{
  "AcquisitionMatrixPE": 104,
  "AcquisitionNumber": 1,
  "AcquisitionTime": "19:35:26.577500",
  "BandwidthPerPixelPhaseEncode": 17.17,
  "BaseResolution": 104,
  "BodyPartExamined": "BRAIN",
  "CoilCombinationMethod": "Sum of Squares",
  "ConsistencyInfo": "N4_VE11C_LATEST_20160120",
  "ConversionSoftware": "dcm2niix",
  "ConversionSoftwareVersion": "v1.0.20220505",
  "DerivedVendorReportedEchoSpacing": 0.000560011,
  "DeviceSerialNumber": "167006",
  "DwellTime": 2.1e-06,
  "EchoTime": 0.037,
  "EchoTime1": 0.037,
  "EchoTime2": 0.001,
  "EchoTrainLength": 104,
  "EffectiveEchoSpacing": 0.000560011,
  "FlipAngle": 52,
  "HeudiconvVersion": "0.5.3.post811+g6206e14",
  "ImageComments": "Unaliased MB4/PE3/LB",
  "ImageOrientationPatientDICOM": [0.999494, -0.0310227, 0.00704329, 0.0314103, 0.927296, -0.373009],
  "ImageOrientationText": "Tra>Cor(-21.9)>Sag(-0.3)",
  "ImageType": [
    "ORIGINAL",
    "PRIMARY",
    "P",
    "MB",
    "ND",
    "MOSAIC",
    "PHASE"
],
  "ImagingFrequency": 123.26,
  "InPlanePhaseEncodingDirectionDICOM": "COL",
  "InstitutionAddress": "Chemin Queen-Mary 4565,Montreal,District,CA,H3W 1W5",
  "InstitutionName": "IUGM",
  "InstitutionalDepartmentName": "Department",
  "MRAcquisitionType": "2D",
  "MagneticFieldStrength": 3,
  "Manufacturer": "Siemens",
  "ManufacturersModelName": "Prisma_fit",
  "MatrixCoilMode": "SENSE",
  "Modality": "MR",
  "MultibandAccelerationFactor": 4,
  "PartialFourier": 1,
  "PatientPosition": "HFS",
  "PercentPhaseFOV": 100,
  "PercentSampling": 100,
  "PhaseEncodingDirection": "j",
  "PhaseEncodingSteps": 104,
  "PhaseResolution": 1,
  "PixelBandwidth": 2290,
  "ProcedureStepDescription": "games^mariostars",
  "ProtocolName": "func_task-mariostars_run-10",
  "PulseSequenceDetails": "%CustomerSeq%\\cmrr_mbep2d_bold",
  "ReceiveCoilActiveElements": "HC1-7;NC1,2",
  "ReceiveCoilName": "HeadNeck_64",
  "ReconMatrixPE": 104,
  "RepetitionTime": 1.49,
  "SAR": 0.0558584,
  "ScanOptions": "FS",
  "ScanningSequence": "EP",
  "SequenceName": "epfid2d1_104",
  "SequenceVariant": "SK\\SS",
  "SeriesDescription": "func_task-mariostars_run-10",
  "SeriesNumber": 39,
  "ShimSetting": [601, -7251, -8798, 458, 24, -310, 15, 44],
  "SliceThickness": 2,
  "SliceTiming": [0, 0.7825, 0.0975, 0.88, 0.195, 0.98, 0.2925, 1.0775, 0.39, 1.175, 0.49, 1.2725, 0.5875, 1.37, 0.685, 0, 0.7825, 0.0975, 0.88, 0.195, 0.98, 0.2925, 1.0775, 0.39, 1.175, 0.49, 1.2725, 0.5875, 1.37, 0.685, 0, 0.7825, 0.0975, 0.88, 0.195, 0.98, 0.2925, 1.0775, 0.39, 1.175, 0.49, 1.2725, 0.5875, 1.37, 0.685, 0, 0.7825, 0.0975, 0.88, 0.195, 0.98, 0.2925, 1.0775, 0.39, 1.175, 0.49, 1.2725, 0.5875, 1.37, 0.685],
  "SoftwareVersions": "syngo MR E11",
  "SpacingBetweenSlices": 2,
  "StationName": "MRC35049",
  "TaskName": "mariostars",
  "TotalReadoutTime": 0.0576811,
  "TxRefAmp": 265.677,
  "WipMemBlock": "56604282-ee85-4a18-ae8b-57e200ad033d||Sequence: R017 ve11c/master r/75a17815+; Jun 28 2022 16:32:11 by eja",
  "dcmmeta_affine": [
    [-1.9989876747131348, 0.0628206878900528, -0.010081109590828419, 101.20454406738281],
    [0.06204543262720108, 1.8545914888381958, -0.7460837960243225, -70.80105590820312],
    [0.014086578041315079, 0.7460188865661621, 1.8556016683578491, -60.51971435546875],
    [0.0, 0.0, 0.0, 1.0]
],
  "dcmmeta_reorient_transform": [
    [0.0, -1.0, 0.0, 103.0],
    [1.0, 0.0, 0.0, 0.0],
    [0.0, 0.0, 1.0, 0.0],
    [0.0, 0.0, 0.0, 1.0]
],
  "dcmmeta_shape": [104, 104, 60, 552],
  "dcmmeta_slice_dim": 2,
  "dcmmeta_version": 0.6,
  "global": {
    "const": {
      "AcquisitionMatrix": [104, 0, 0, 104],
      "AngioFlag": "N",
      "BitsAllocated": 16,
      "BitsStored": 16,
      "BodyPartExamined": "BRAIN",
      "Columns": 832,
      "EchoNumbers": 1,
      "EchoTime": 37.0,
      "EchoTrainLength": 104,
      "FlipAngle": 52.0,
      "HighBit": 15,
      "ImageOrientationPatient": [0.99949386347216, -0.0310227168068, 0.00704328924709, 0.03141034370572, 0.92729571474294, -0.3730094472365],
      "ImagePositionPatient": [-858.17333881246, -772.70860617617, 282.74359572075],
      "ImageType": [
        "ORIGINAL",
        "PRIMARY",
        "P",
        "MB",
        "ND",
        "MOSAIC"
],
      "ImagedNucleus": "1H",
      "ImagingFrequency": 123.260229,
      "InPlanePhaseEncodingDirection": "COL",
      "LargestImagePixelValue": 4095,
      "MRAcquisitionType": "2D",
      "MagneticFieldStrength": 3.0,
      "Manufacturer": "SIEMENS",
      "ManufacturerModelName": "Prisma_fit",
      "Modality": "MR",
      "NumberOfAverages": 1.0,
      "NumberOfPhaseEncodingSteps": 104,
      "PercentPhaseFieldOfView": 100.0,
      "PercentSampling": 100.0,
      "PerformedProcedureStepStartTime": "170640.569000",
      "PhotometricInterpretation": "MONOCHROME2",
      "PixelBandwidth": 2290.0,
      "PixelRepresentation": 0,
      "PixelSpacing": [2.0, 2.0],
      "ProtocolName": "func_task-mariostars_run-10",
      "RepetitionTime": 1490.0,
      "RescaleIntercept": -4096.0,
      "RescaleSlope": 2.0,
      "RescaleType": "US",
      "Rows": 832,
      "SAR": 0.05585841049676,
      "SamplesPerPixel": 1,
      "ScanOptions": "FS",
      "ScanningSequence": "EP",
      "SequenceName": "epfid2d1_104",
      "SequenceVariant": [
        "SK",
        "SS"
],
      "SeriesDescription": "func_task-mariostars_run-10",
      "SeriesNumber": 39,
      "SeriesTime": "193629.421000",
      "SliceLocation": -30.248607680883,
      "SliceThickness": 2.0,
      "SmallestImagePixelValue": 0,
      "SoftwareVersions": "syngo MR E11",
      "SpacingBetweenSlices": 2.0000000346351,
      "SpecificCharacterSet": "ISO_IR 100",
      "StudyID": "1",
      "StudyTime": "170640.493000",
      "TransmitCoilName": "Body",
      "VariableFlipAngleFlag": "N",
      "WindowCenterWidthExplanation": "Algo1",
      "dBdt": 0.0},
    "slices": {}
  },
  "time": {
    "samples": {
      "AcquisitionNumber": [1, 2, 3, 4, 5, 6, 7, 8, 9, 10, 11, 12, 13, 14, 15, 16, 17, 18, 19, 20, 21, 22, 23, 24, 25, 26, 27, 28, 29, 30, 31, 32, 33, 34, 35, 36, 37, 38, 39, 40, 41, 42, 43, 44, 45, 46, 47, 48, 49, 50, 51, 52, 53, 54, 55, 56, 57, 58, 59, 60, 61, 62, 63, 64, 65, 66, 67, 68, 69, 70, 71, 72, 73, 74, 75, 76, 77, 78, 79, 80, 81, 82, 83, 84, 85, 86, 87, 88, 89, 90, 91, 92, 93, 94, 95, 96, 97, 98, 99, 100, 101, 102, 103, 104, 105, 106, 107, 108, 109, 110, 111, 112, 113, 114, 115, 116, 117, 118, 119, 120, 121, 122, 123, 124, 125, 126, 127, 128, 129, 130, 131, 132, 133, 134, 135, 136, 137, 138, 139, 140, 141, 142, 143, 144, 145, 146, 147, 148, 149, 150, 151, 152, 153, 154, 155, 156, 157, 158, 159, 160, 161, 162, 163, 164, 165, 166, 167, 168, 169, 170, 171, 172, 173, 174, 175, 176, 177, 178, 179, 180, 181, 182, 183, 184, 185, 186, 187, 188, 189, 190, 191, 192, 193, 194, 195, 196, 197, 198, 199, 200, 201, 202, 203, 204, 205, 206, 207, 208, 209, 210, 211, 212, 213, 214, 215, 216, 217, 218, 219, 220, 221, 222, 223, 224, 225, 226, 227, 228, 229, 230, 231, 232, 233, 234, 235, 236, 237, 238, 239, 240, 241, 242, 243, 244, 245, 246, 247, 248, 249, 250, 251, 252, 253, 254, 255, 256, 257, 258, 259, 260, 261, 262, 263, 264, 265, 266, 267, 268, 269, 270, 271, 272, 273, 274, 275, 276, 277, 278, 279, 280, 281, 282, 283, 284, 285, 286, 287, 288, 289, 290, 291, 292, 293, 294, 295, 296, 297, 298, 299, 300, 301, 302, 303, 304, 305, 306, 307, 308, 309, 310, 311, 312, 313, 314, 315, 316, 317, 318, 319, 320, 321, 322, 323, 324, 325, 326, 327, 328, 329, 330, 331, 332, 333, 334, 335, 336, 337, 338, 339, 340, 341, 342, 343, 344, 345, 346, 347, 348, 349, 350, 351, 352, 353, 354, 355, 356, 357, 358, 359, 360, 361, 362, 363, 364, 365, 366, 367, 368, 369, 370, 371, 372, 373, 374, 375, 376, 377, 378, 379, 380, 381, 382, 383, 384, 385, 386, 387, 388, 389, 390, 391, 392, 393, 394, 395, 396, 397, 398, 399, 400, 401, 402, 403, 404, 405, 406, 407, 408, 409, 410, 411, 412, 413, 414, 415, 416, 417, 418, 419, 420, 421, 422, 423, 424, 425, 426, 427, 428, 429, 430, 431, 432, 433, 434, 435, 436, 437, 438, 439, 440, 441, 442, 443, 444, 445, 446, 447, 448, 449, 450, 451, 452, 453, 454, 455, 456, 457, 458, 459, 460, 461, 462, 463, 464, 465, 466, 467, 468, 469, 470, 471, 472, 473, 474, 475, 476, 477, 478, 479, 480, 481, 482, 483, 484, 485, 486, 487, 488, 489, 490, 491, 492, 493, 494, 495, 496, 497, 498, 499, 500, 501, 502, 503, 504, 505, 506, 507, 508, 509, 510, 511, 512, 513, 514, 515, 516, 517, 518, 519, 520, 521, 522, 523, 524, 525, 526, 527, 528, 529, 530, 531, 532, 533, 534, 535, 536, 537, 538, 539, 540, 541, 542, 543, 544, 545, 546, 547, 548, 549, 550, 551, 552],
      "AcquisitionTime": ["193526.577500", "193528.067500", "193529.557500", "193531.047500", "193532.537500", "193534.027500", "193535.517500", "193537.007500", "193538.497500", "193539.987500", "193541.477500", "193542.967500", "193544.457500", "193545.947500", "193547.437500", "193548.927500", "193550.417500", "193551.907500", "193553.397500", "193554.887500", "193556.377500", "193557.867500", "193559.357500", "193600.847500", "193602.337500", "193603.827500", "193605.317500", "193606.807500", "193608.297500", "193609.787500", "193611.277500", "193612.767500", "193614.257500", "193615.747500", "193617.237500", "193618.727500", "193620.217500", "193621.707500", "193623.197500", "193624.687500", "193626.177500", "193627.667500", "193629.157500", "193630.647500", "193632.137500", "193633.627500", "193635.117500", "193636.607500", "193638.097500", "193639.587500", "193641.077500", "193642.567500", "193644.057500", "193645.547500", "193647.037500", "193648.527500", "193650.017500", "193651.507500", "193652.997500", "193654.487500", "193655.977500", "193657.467500", "193658.957500", "193700.447500", "193701.937500", "193703.427500", "193704.917500", "193706.407500", "193707.897500", "193709.387500", "193710.877500", "193712.367500", "193713.857500", "193715.347500", "193716.837500", "193718.327500", "193719.817500", "193721.307500", "193722.797500", "193724.287500", "193725.777500", "193727.267500", "193728.757500", "193730.247500", "193731.737500", "193733.227500", "193734.717500", "193736.207500", "193737.697500", "193739.187500", "193740.677500", "193742.167500", "193743.657500", "193745.147500", "193746.637500", "193748.127500", "193749.617500", "193751.107500", "193752.597500", "193754.087500", "193755.577500", "193757.067500", "193758.557500", "193800.047500", "193801.537500", "193803.027500", "193804.517500", "193806.007500", "193807.497500", "193808.987500", "193810.477500", "193811.967500", "193813.457500", "193814.947500", "193816.437500", "193817.927500", "193819.417500", "193820.907500", "193822.397500", "193823.887500", "193825.377500", "193826.867500", "193828.357500", "193829.847500", "193831.337500", "193832.827500", "193834.317500", "193835.807500", "193837.297500", "193838.787500", "193840.277500", "193841.767500", "193843.257500", "193844.747500", "193846.237500", "193847.727500", "193849.217500", "193850.707500", "193852.197500", "193853.687500", "193855.177500", "193856.667500", "193858.157500", "193859.647500", "193901.137500", "193902.627500", "193904.117500", "193905.607500", "193907.097500", "193908.587500", "193910.077500", "193911.567500", "193913.057500", "193914.547500", "193916.037500", "193917.527500", "193919.017500", "193920.507500", "193921.997500", "193923.487500", "193924.977500", "193926.467500", "193927.957500", "193929.447500", "193930.937500", "193932.427500", "193933.917500", "193935.407500", "193936.897500", "193938.387500", "193939.877500", "193941.367500", "193942.857500", "193944.347500", "193945.837500", "193947.327500", "193948.817500", "193950.307500", "193951.797500", "193953.287500", "193954.777500", "193956.267500", "193957.757500", "193959.247500", "194000.737500", "194002.227500", "194003.717500", "194005.207500", "194006.697500", "194008.187500", "194009.677500", "194011.167500", "194012.657500", "194014.147500", "194015.637500", "194017.127500", "194018.617500", "194020.107500", "194021.597500", "194023.087500", "194024.577500", "194026.067500", "194027.557500", "194029.047500", "194030.537500", "194032.027500", "194033.517500", "194035.007500", "194036.497500", "194037.987500", "194039.477500", "194040.967500", "194042.457500", "194043.947500", "194045.437500", "194046.927500", "194048.417500", "194049.907500", "194051.397500", "194052.887500", "194054.377500", "194055.867500", "194057.357500", "194058.847500", "194100.337500", "194101.827500", "194103.317500", "194104.807500", "194106.297500", "194107.787500", "194109.277500", "194110.767500", "194112.257500", "194113.747500", "194115.237500", "194116.727500", "194118.217500", "194119.707500", "194121.197500", "194122.687500", "194124.177500", "194125.667500", "194127.157500", "194128.647500", "194130.137500", "194131.627500", "194133.117500", "194134.607500", "194136.097500", "194137.587500", "194139.077500", "194140.567500", "194142.057500", "194143.547500", "194145.037500", "194146.527500", "194148.017500", "194149.507500", "194150.997500", "194152.487500", "194153.977500", "194155.467500", "194156.957500", "194158.447500", "194159.937500", "194201.427500", "194202.917500", "194204.407500", "194205.897500", "194207.387500", "194208.877500", "194210.367500", "194211.857500", "194213.347500", "194214.837500", "194216.327500", "194217.817500", "194219.307500", "194220.797500", "194222.287500", "194223.777500", "194225.267500", "194226.757500", "194228.247500", "194229.737500", "194231.227500", "194232.717500", "194234.207500", "194235.697500", "194237.187500", "194238.677500", "194240.167500", "194241.657500", "194243.147500", "194244.637500", "194246.127500", "194247.617500", "194249.107500", "194250.597500", "194252.087500", "194253.577500", "194255.067500", "194256.557500", "194258.047500", "194259.537500", "194301.027500", "194302.517500", "194304.007500", "194305.497500", "194306.987500", "194308.477500", "194309.967500", "194311.457500", "194312.947500", "194314.437500", "194315.927500", "194317.417500", "194318.907500", "194320.397500", "194321.887500", "194323.377500", "194324.867500", "194326.357500", "194327.847500", "194329.337500", "194330.827500", "194332.317500", "194333.807500", "194335.297500", "194336.787500", "194338.277500", "194339.767500", "194341.257500", "194342.747500", "194344.237500", "194345.727500", "194347.217500", "194348.707500", "194350.197500", "194351.687500", "194353.177500", "194354.667500", "194356.157500", "194357.647500", "194359.137500", "194400.627500", "194402.117500", "194403.607500", "194405.097500", "194406.587500", "194408.077500", "194409.567500", "194411.057500", "194412.547500", "194414.037500", "194415.527500", "194417.017500", "194418.507500", "194419.997500", "194421.487500", "194422.977500", "194424.467500", "194425.957500", "194427.447500", "194428.937500", "194430.427500", "194431.917500", "194433.407500", "194434.897500", "194436.387500", "194437.877500", "194439.367500", "194440.857500", "194442.347500", "194443.837500", "194445.327500", "194446.817500", "194448.307500", "194449.797500", "194451.287500", "194452.777500", "194454.267500", "194455.757500", "194457.247500", "194458.737500", "194500.227500", "194501.717500", "194503.207500", "194504.697500", "194506.187500", "194507.677500", "194509.167500", "194510.657500", "194512.147500", "194513.637500", "194515.127500", "194516.617500", "194518.107500", "194519.597500", "194521.087500", "194522.577500", "194524.067500", "194525.557500", "194527.047500", "194528.537500", "194530.027500", "194531.517500", "194533.007500", "194534.497500", "194535.987500", "194537.477500", "194538.967500", "194540.457500", "194541.947500", "194543.437500", "194544.927500", "194546.417500", "194547.907500", "194549.397500", "194550.887500", "194552.377500", "194553.867500", "194555.357500", "194556.847500", "194558.337500", "194559.827500", "194601.317500", "194602.807500", "194604.297500", "194605.787500", "194607.277500", "194608.767500", "194610.257500", "194611.747500", "194613.237500", "194614.727500", "194616.217500", "194617.707500", "194619.197500", "194620.687500", "194622.177500", "194623.667500", "194625.157500", "194626.647500", "194628.137500", "194629.627500", "194631.117500", "194632.607500", "194634.097500", "194635.587500", "194637.077500", "194638.567500", "194640.057500", "194641.547500", "194643.037500", "194644.527500", "194646.017500", "194647.507500", "194648.997500", "194650.487500", "194651.977500", "194653.467500", "194654.957500", "194656.447500", "194657.937500", "194659.427500", "194700.917500", "194702.407500", "194703.897500", "194705.387500", "194706.877500", "194708.367500", "194709.857500", "194711.347500", "194712.837500", "194714.327500", "194715.817500", "194717.307500", "194718.797500", "194720.287500", "194721.777500", "194723.267500", "194724.757500", "194726.247500", "194727.737500", "194729.227500", "194730.717500", "194732.207500", "194733.697500", "194735.187500", "194736.677500", "194738.167500", "194739.657500", "194741.147500", "194742.637500", "194744.127500", "194745.617500", "194747.107500", "194748.597500", "194750.087500", "194751.577500", "194753.067500", "194754.557500", "194756.047500", "194757.537500", "194759.027500", "194800.517500", "194802.007500", "194803.497500", "194804.987500", "194806.477500", "194807.967500", "194809.457500", "194810.947500", "194812.437500", "194813.927500", "194815.417500", "194816.907500", "194818.397500", "194819.887500", "194821.377500", "194822.867500", "194824.357500", "194825.847500", "194827.337500", "194828.827500", "194830.317500", "194831.807500", "194833.297500", "194834.787500", "194836.277500", "194837.767500", "194839.257500", "194840.747500", "194842.237500", "194843.727500", "194845.217500", "194846.707500", "194848.197500", "194849.687500", "194851.177500", "194852.667500", "194854.157500", "194855.647500", "194857.137500", "194858.627500", "194900.117500", "194901.607500", "194903.097500", "194904.587500", "194906.077500", "194907.567500"],
      "ContentTime": ["193629.423000", "193629.425000", "193629.428000", "193629.430000", "193629.433000", "193629.436000", "193629.438000", "193629.440000", "193629.443000", "193629.445000", "193629.448000", "193629.461000", "193649.417000", "193649.420000", "193649.422000", "193649.425000", "193649.427000", "193649.430000", "193649.432000", "193649.435000", "193649.437000", "193649.440000", "193649.442000", "193649.445000", "193649.447000", "193649.450000", "193649.452000", "193649.455000", "193649.458000", "193649.461000", "193649.463000", "193649.466000", "193649.468000", "193709.399000", "193709.401000", "193709.413000", "193709.415000", "193709.418000", "193709.420000", "193709.423000", "193709.425000", "193709.427000", "193709.430000", "193709.432000", "193709.435000", "193709.437000", "193709.440000", "193709.442000", "193709.445000", "193709.447000", "193709.450000", "193709.452000", "193709.455000", "193729.386000", "193729.389000", "193729.391000", "193729.394000", "193729.396000", "193729.399000", "193729.401000", "193729.404000", "193729.406000", "193729.409000", "193729.411000", "193729.414000", "193729.416000", "193729.419000", "193729.421000", "193729.424000", "193729.426000", "193729.429000", "193729.431000", "193729.434000", "193749.402000", "193749.405000", "193749.407000", "193749.410000", "193749.412000", "193749.415000", "193749.418000", "193749.420000", "193749.423000", "193749.425000", "193749.427000", "193749.430000", "193749.432000", "193749.435000", "193749.437000", "193749.440000", "193749.442000", "193749.445000", "193749.448000", "193749.450000", "193829.423000", "193829.426000", "193829.430000", "193829.433000", "193829.436000", "193829.438000", "193829.441000", "193829.443000", "193829.446000", "193829.448000", "193829.451000", "193829.453000", "193829.456000", "193829.458000", "193829.461000", "193829.463000", "193829.466000", "193829.468000", "193829.471000", "193829.473000", "193829.476000", "193829.478000", "193829.481000", "193829.483000", "193829.486000", "193829.488000", "193829.491000", "193829.493000", "193909.423000", "193909.426000", "193909.429000", "193909.431000", "193909.434000", "193909.436000", "193909.439000", "193909.441000", "193909.444000", "193909.447000", "193909.449000", "193909.451000", "193909.454000", "193909.457000", "193909.459000", "193909.462000", "193909.464000", "193909.467000", "193909.469000", "193909.472000", "193909.475000", "193909.477000", "193909.480000", "193909.482000", "193909.485000", "193909.487000", "193909.490000", "193949.419000", "193949.422000", "193949.424000", "193949.427000", "193949.430000", "193949.432000", "193949.434000", "193949.437000", "193949.440000", "193949.442000", "193949.445000", "193949.447000", "193949.450000", "193949.452000", "193949.455000", "193949.457000", "193949.460000", "193949.462000", "193949.465000", "193949.467000", "193949.470000", "193949.472000", "193949.475000", "193949.477000", "193949.480000", "193949.482000", "193949.485000", "194029.427000", "194029.430000", "194029.432000", "194029.435000", "194029.437000", "194029.440000", "194029.442000", "194029.445000", "194029.447000", "194029.450000", "194029.452000", "194029.455000", "194029.457000", "194029.460000", "194029.463000", "194029.465000", "194029.468000", "194029.470000", "194029.473000", "194029.475000", "194029.478000", "194029.480000", "194029.483000", "194029.486000", "194029.488000", "194029.491000", "194029.493000", "194109.430000", "194109.433000", "194109.435000", "194109.438000", "194109.440000", "194109.443000", "194109.445000", "194109.448000", "194109.450000", "194109.453000", "194109.455000", "194109.458000", "194109.461000", "194109.463000", "194109.466000", "194109.468000", "194109.471000", "194109.473000", "194109.476000", "194109.478000", "194109.481000", "194109.483000", "194109.486000", "194109.488000", "194109.491000", "194109.493000", "194109.496000", "194149.432000", "194149.435000", "194149.437000", "194149.440000", "194149.442000", "194149.445000", "194149.447000", "194149.450000", "194149.452000", "194149.455000", "194149.458000", "194149.460000", "194149.463000", "194149.465000", "194149.468000", "194149.470000", "194149.473000", "194149.475000", "194149.478000", "194149.480000", "194149.483000", "194149.486000", "194149.488000", "194149.491000", "194149.493000", "194149.496000", "194149.498000", "194229.440000", "194229.442000", "194229.445000", "194229.447000", "194229.450000", "194229.453000", "194229.455000", "194229.458000", "194229.460000", "194229.463000", "194229.465000", "194229.468000", "194229.470000", "194229.473000", "194229.475000", "194229.478000", "194229.481000", "194229.483000", "194229.486000", "194229.488000", "194229.491000", "194229.493000", "194229.496000", "194229.498000", "194229.501000", "194229.503000", "194309.426000", "194309.429000", "194309.431000", "194309.434000", "194309.436000", "194309.439000", "194309.442000", "194309.444000", "194309.447000", "194309.449000", "194309.452000", "194309.454000", "194309.457000", "194309.460000", "194309.462000", "194309.465000", "194309.467000", "194309.470000", "194309.472000", "194309.475000", "194309.477000", "194309.480000", "194309.482000", "194309.485000", "194309.488000", "194309.490000", "194309.493000", "194349.428000", "194349.431000", "194349.433000", "194349.436000", "194349.438000", "194349.441000", "194349.443000", "194349.446000", "194349.448000", "194349.451000", "194349.454000", "194349.456000", "194349.459000", "194349.461000", "194349.464000", "194349.466000", "194349.469000", "194349.471000", "194349.474000", "194349.476000", "194349.479000", "194349.481000", "194349.484000", "194349.486000", "194349.489000", "194349.491000", "194349.494000", "194429.419000", "194429.422000", "194429.424000", "194429.427000", "194429.429000", "194429.432000", "194429.434000", "194429.437000", "194429.440000", "194429.442000", "194429.445000", "194429.447000", "194429.450000", "194429.452000", "194429.455000", "194429.457000", "194429.460000", "194429.462000", "194429.465000", "194429.467000", "194429.470000", "194429.472000", "194429.475000", "194429.477000", "194429.480000", "194429.482000", "194429.485000", "194509.421000", "194509.424000", "194509.427000", "194509.429000", "194509.431000", "194509.434000", "194509.437000", "194509.439000", "194509.442000", "194509.444000", "194509.447000", "194509.449000", "194509.452000", "194509.455000", "194509.457000", "194509.460000", "194509.462000", "194509.465000", "194509.467000", "194509.470000", "194509.472000", "194509.475000", "194509.477000", "194509.480000", "194509.482000", "194509.485000", "194509.487000", "194549.425000", "194549.427000", "194549.430000", "194549.433000", "194549.435000", "194549.438000", "194549.440000", "194549.443000", "194549.446000", "194549.448000", "194549.451000", "194549.453000", "194549.456000", "194549.458000", "194549.461000", "194549.463000", "194549.466000", "194549.468000", "194549.471000", "194549.474000", "194549.476000", "194549.479000", "194549.481000", "194549.484000", "194549.486000", "194549.489000", "194549.491000", "194629.427000", "194629.430000", "194629.433000", "194629.435000", "194629.437000", "194629.440000", "194629.443000", "194629.445000", "194629.448000", "194629.451000", "194629.453000", "194629.455000", "194629.458000", "194629.461000", "194629.463000", "194629.466000", "194629.468000", "194629.471000", "194629.473000", "194629.476000", "194629.478000", "194629.481000", "194629.484000", "194629.486000", "194629.488000", "194629.491000", "194629.494000", "194709.424000", "194709.427000", "194709.430000", "194709.433000", "194709.435000", "194709.438000", "194709.440000", "194709.443000", "194709.446000", "194709.448000", "194709.451000", "194709.453000", "194709.456000", "194709.458000", "194709.461000", "194709.464000", "194709.466000", "194709.469000", "194709.471000", "194709.474000", "194709.476000", "194709.479000", "194709.481000", "194709.484000", "194709.487000", "194709.489000", "194749.422000", "194749.425000", "194749.428000", "194749.430000", "194749.433000", "194749.435000", "194749.438000", "194749.441000", "194749.443000", "194749.446000", "194749.448000", "194749.451000", "194749.453000", "194749.456000", "194749.458000", "194749.461000", "194749.464000", "194749.466000", "194749.469000", "194749.471000", "194749.474000", "194749.476000", "194749.479000", "194749.481000", "194749.484000", "194749.486000", "194749.489000", "194829.813000", "194829.816000", "194829.819000", "194829.821000", "194829.824000", "194829.826000", "194829.829000", "194829.831000", "194829.834000", "194829.837000", "194829.839000", "194829.842000", "194829.844000", "194829.847000", "194829.849000", "194829.852000", "194829.854000", "194829.857000", "194829.860000", "194829.862000", "194829.865000", "194829.868000", "194829.870000", "194829.873000", "194829.875000", "194829.878000", "194829.881000", "194909.449000", "194909.452000", "194909.454000", "194909.457000", "194909.460000", "194909.462000", "194909.465000", "194909.467000", "194909.470000", "194909.472000", "194909.475000", "194909.477000", "194909.480000", "194909.482000", "194909.485000", "194909.488000", "194909.490000", "194909.493000", "194909.495000", "194909.498000", "194909.500000", "194909.503000", "194909.505000", "194909.508000", "194909.511000", "194909.513000", "194909.516000", "194911.150000"],
