{
  "AcquisitionMatrixPE": 104,
  "AcquisitionNumber": 1,
  "AcquisitionTime": "18:39:8.587500",
  "BandwidthPerPixelPhaseEncode": 17.17,
  "BaseResolution": 104,
  "BodyPartExamined": "BRAIN",
  "CoilCombinationMethod": "Sum of Squares",
  "ConsistencyInfo": "N4_VE11C_LATEST_20160120",
  "ConversionSoftware": "dcm2niix",
  "ConversionSoftwareVersion": "v1.0.20220505",
  "DerivedVendorReportedEchoSpacing": 0.000560011,
  "DeviceSerialNumber": "167006",
  "DwellTime": 2.1e-06,
  "EchoTime": 0.037,
  "EchoTime1": 0.037,
  "EchoTime2": 0.001,
  "EchoTrainLength": 104,
  "EffectiveEchoSpacing": 0.000560011,
  "FlipAngle": 52,
  "HeudiconvVersion": "0.5.3.post811+g6206e14",
  "ImageComments": "Unaliased MB4/PE3/LB",
  "ImageOrientationPatientDICOM": [0.999494, -0.0310227, 0.00704329, 0.0314103, 0.927296, -0.373009],
  "ImageOrientationText": "Tra>Cor(-21.9)>Sag(-0.3)",
  "ImageType": [
    "ORIGINAL",
    "PRIMARY",
    "P",
    "MB",
    "ND",
    "MOSAIC",
    "PHASE"
],
  "ImagingFrequency": 123.26,
  "InPlanePhaseEncodingDirectionDICOM": "COL",
  "InstitutionAddress": "Chemin Queen-Mary 4565,Montreal,District,CA,H3W 1W5",
  "InstitutionName": "IUGM",
  "InstitutionalDepartmentName": "Department",
  "MRAcquisitionType": "2D",
  "MagneticFieldStrength": 3,
  "Manufacturer": "Siemens",
  "ManufacturersModelName": "Prisma_fit",
  "MatrixCoilMode": "SENSE",
  "Modality": "MR",
  "MultibandAccelerationFactor": 4,
  "PartialFourier": 1,
  "PatientPosition": "HFS",
  "PercentPhaseFOV": 100,
  "PercentSampling": 100,
  "PhaseEncodingDirection": "j",
  "PhaseEncodingSteps": 104,
  "PhaseResolution": 1,
  "PixelBandwidth": 2290,
  "ProcedureStepDescription": "games^mariostars",
  "ProtocolName": "func_task-mariostars_run-06",
  "PulseSequenceDetails": "%CustomerSeq%\\cmrr_mbep2d_bold",
  "ReceiveCoilActiveElements": "HC1-7;NC1,2",
  "ReceiveCoilName": "HeadNeck_64",
  "ReconMatrixPE": 104,
  "RepetitionTime": 1.49,
  "SAR": 0.0558584,
  "ScanOptions": "FS",
  "ScanningSequence": "EP",
  "SequenceName": "epfid2d1_104",
  "SequenceVariant": "SK\\SS",
  "SeriesDescription": "func_task-mariostars_run-06",
  "SeriesNumber": 27,
  "ShimSetting": [601, -7251, -8798, 458, 24, -310, 15, 44],
  "SliceThickness": 2,
  "SliceTiming": [0, 0.785, 0.0975, 0.8825, 0.195, 0.98, 0.295, 1.0775, 0.3925, 1.175, 0.49, 1.275, 0.5875, 1.3725, 0.685, 0, 0.785, 0.0975, 0.8825, 0.195, 0.98, 0.295, 1.0775, 0.3925, 1.175, 0.49, 1.275, 0.5875, 1.3725, 0.685, 0, 0.785, 0.0975, 0.8825, 0.195, 0.98, 0.295, 1.0775, 0.3925, 1.175, 0.49, 1.275, 0.5875, 1.3725, 0.685, 0, 0.785, 0.0975, 0.8825, 0.195, 0.98, 0.295, 1.0775, 0.3925, 1.175, 0.49, 1.275, 0.5875, 1.3725, 0.685],
  "SoftwareVersions": "syngo MR E11",
  "SpacingBetweenSlices": 2,
  "StationName": "MRC35049",
  "TaskName": "mariostars",
  "TotalReadoutTime": 0.0576811,
  "TxRefAmp": 265.677,
  "WipMemBlock": "d29602c7-8c8e-497f-9121-65224d4bdd6f||Sequence: R017 ve11c/master r/75a17815+; Jun 28 2022 16:32:11 by eja",
  "dcmmeta_affine": [
    [-1.9989876747131348, 0.0628206878900528, -0.010081109590828419, 101.20454406738281],
    [0.06204543262720108, 1.8545914888381958, -0.7460837960243225, -70.80105590820312],
    [0.014086578041315079, 0.7460188865661621, 1.8556016683578491, -60.51971435546875],
    [0.0, 0.0, 0.0, 1.0]
],
  "dcmmeta_reorient_transform": [
    [0.0, -1.0, 0.0, 103.0],
    [1.0, 0.0, 0.0, 0.0],
    [0.0, 0.0, 1.0, 0.0],
    [0.0, 0.0, 0.0, 1.0]
],
  "dcmmeta_shape": [104, 104, 60, 505],
  "dcmmeta_slice_dim": 2,
  "dcmmeta_version": 0.6,
  "global": {
    "const": {
      "AcquisitionMatrix": [104, 0, 0, 104],
      "AngioFlag": "N",
      "BitsAllocated": 16,
      "BitsStored": 16,
      "BodyPartExamined": "BRAIN",
      "Columns": 832,
      "EchoNumbers": 1,
      "EchoTime": 37.0,
      "EchoTrainLength": 104,
      "FlipAngle": 52.0,
      "HighBit": 15,
      "ImageOrientationPatient": [0.99949386347216, -0.0310227168068, 0.00704328924709, 0.03141034370572, 0.92729571474294, -0.3730094472365],
      "ImagePositionPatient": [-858.17333881246, -772.70860617617, 282.74359572075],
      "ImageType": [
        "ORIGINAL",
        "PRIMARY",
        "P",
        "MB",
        "ND",
        "MOSAIC"
],
      "ImagedNucleus": "1H",
      "ImagingFrequency": 123.260226,
      "InPlanePhaseEncodingDirection": "COL",
      "LargestImagePixelValue": 4095,
      "MRAcquisitionType": "2D",
      "MagneticFieldStrength": 3.0,
      "Manufacturer": "SIEMENS",
      "ManufacturerModelName": "Prisma_fit",
      "Modality": "MR",
      "NumberOfAverages": 1.0,
      "NumberOfPhaseEncodingSteps": 104,
      "PercentPhaseFieldOfView": 100.0,
      "PercentSampling": 100.0,
      "PerformedProcedureStepStartTime": "170640.569000",
      "PhotometricInterpretation": "MONOCHROME2",
      "PixelBandwidth": 2290.0,
      "PixelRepresentation": 0,
      "PixelSpacing": [2.0, 2.0],
      "ProtocolName": "func_task-mariostars_run-06",
      "RepetitionTime": 1490.0,
      "RescaleIntercept": -4096.0,
      "RescaleSlope": 2.0,
      "RescaleType": "US",
      "Rows": 832,
      "SAR": 0.05585841049676,
      "SamplesPerPixel": 1,
      "ScanOptions": "FS",
      "ScanningSequence": "EP",
      "SequenceName": "epfid2d1_104",
      "SequenceVariant": [
        "SK",
        "SS"
],
      "SeriesDescription": "func_task-mariostars_run-06",
      "SeriesNumber": 27,
      "SeriesTime": "184027.578000",
      "SliceLocation": -30.248607680883,
      "SliceThickness": 2.0,
      "SmallestImagePixelValue": 0,
      "SoftwareVersions": "syngo MR E11",
      "SpacingBetweenSlices": 2.0000000346351,
      "SpecificCharacterSet": "ISO_IR 100",
      "StudyID": "1",
      "StudyTime": "170640.493000",
      "TransmitCoilName": "Body",
      "VariableFlipAngleFlag": "N",
      "WindowCenterWidthExplanation": "Algo1",
      "dBdt": 0.0},
    "slices": {}
  },
  "time": {
    "samples": {
      "AcquisitionNumber": [1, 2, 3, 4, 5, 6, 7, 8, 9, 10, 11, 12, 13, 14, 15, 16, 17, 18, 19, 20, 21, 22, 23, 24, 25, 26, 27, 28, 29, 30, 31, 32, 33, 34, 35, 36, 37, 38, 39, 40, 41, 42, 43, 44, 45, 46, 47, 48, 49, 50, 51, 52, 53, 54, 55, 56, 57, 58, 59, 60, 61, 62, 63, 64, 65, 66, 67, 68, 69, 70, 71, 72, 73, 74, 75, 76, 77, 78, 79, 80, 81, 82, 83, 84, 85, 86, 87, 88, 89, 90, 91, 92, 93, 94, 95, 96, 97, 98, 99, 100, 101, 102, 103, 104, 105, 106, 107, 108, 109, 110, 111, 112, 113, 114, 115, 116, 117, 118, 119, 120, 121, 122, 123, 124, 125, 126, 127, 128, 129, 130, 131, 132, 133, 134, 135, 136, 137, 138, 139, 140, 141, 142, 143, 144, 145, 146, 147, 148, 149, 150, 151, 152, 153, 154, 155, 156, 157, 158, 159, 160, 161, 162, 163, 164, 165, 166, 167, 168, 169, 170, 171, 172, 173, 174, 175, 176, 177, 178, 179, 180, 181, 182, 183, 184, 185, 186, 187, 188, 189, 190, 191, 192, 193, 194, 195, 196, 197, 198, 199, 200, 201, 202, 203, 204, 205, 206, 207, 208, 209, 210, 211, 212, 213, 214, 215, 216, 217, 218, 219, 220, 221, 222, 223, 224, 225, 226, 227, 228, 229, 230, 231, 232, 233, 234, 235, 236, 237, 238, 239, 240, 241, 242, 243, 244, 245, 246, 247, 248, 249, 250, 251, 252, 253, 254, 255, 256, 257, 258, 259, 260, 261, 262, 263, 264, 265, 266, 267, 268, 269, 270, 271, 272, 273, 274, 275, 276, 277, 278, 279, 280, 281, 282, 283, 284, 285, 286, 287, 288, 289, 290, 291, 292, 293, 294, 295, 296, 297, 298, 299, 300, 301, 302, 303, 304, 305, 306, 307, 308, 309, 310, 311, 312, 313, 314, 315, 316, 317, 318, 319, 320, 321, 322, 323, 324, 325, 326, 327, 328, 329, 330, 331, 332, 333, 334, 335, 336, 337, 338, 339, 340, 341, 342, 343, 344, 345, 346, 347, 348, 349, 350, 351, 352, 353, 354, 355, 356, 357, 358, 359, 360, 361, 362, 363, 364, 365, 366, 367, 368, 369, 370, 371, 372, 373, 374, 375, 376, 377, 378, 379, 380, 381, 382, 383, 384, 385, 386, 387, 388, 389, 390, 391, 392, 393, 394, 395, 396, 397, 398, 399, 400, 401, 402, 403, 404, 405, 406, 407, 408, 409, 410, 411, 412, 413, 414, 415, 416, 417, 418, 419, 420, 421, 422, 423, 424, 425, 426, 427, 428, 429, 430, 431, 432, 433, 434, 435, 436, 437, 438, 439, 440, 441, 442, 443, 444, 445, 446, 447, 448, 449, 450, 451, 452, 453, 454, 455, 456, 457, 458, 459, 460, 461, 462, 463, 464, 465, 466, 467, 468, 469, 470, 471, 472, 473, 474, 475, 476, 477, 478, 479, 480, 481, 482, 483, 484, 485, 486, 487, 488, 489, 490, 491, 492, 493, 494, 495, 496, 497, 498, 499, 500, 501, 502, 503, 504, 505],
      "AcquisitionTime": ["183908.587500", "183910.077500", "183911.567500", "183913.057500", "183914.547500", "183916.037500", "183917.527500", "183919.017500", "183920.507500", "183921.997500", "183923.487500", "183924.977500", "183926.467500", "183927.957500", "183929.447500", "183930.937500", "183932.427500", "183933.917500", "183935.407500", "183936.897500", "183938.387500", "183939.877500", "183941.367500", "183942.857500", "183944.347500", "183945.837500", "183947.327500", "183948.817500", "183950.307500", "183951.797500", "183953.287500", "183954.777500", "183956.267500", "183957.757500", "183959.247500", "184000.737500", "184002.227500", "184003.717500", "184005.207500", "184006.697500", "184008.187500", "184009.677500", "184011.167500", "184012.657500", "184014.147500", "184015.637500", "184017.127500", "184018.617500", "184020.107500", "184021.597500", "184023.087500", "184024.577500", "184026.067500", "184027.557500", "184029.047500", "184030.537500", "184032.027500", "184033.517500", "184035.007500", "184036.497500", "184037.987500", "184039.477500", "184040.967500", "184042.457500", "184043.947500", "184045.437500", "184046.927500", "184048.417500", "184049.907500", "184051.397500", "184052.887500", "184054.377500", "184055.867500", "184057.357500", "184058.847500", "184100.337500", "184101.827500", "184103.317500", "184104.807500", "184106.297500", "184107.787500", "184109.277500", "184110.767500", "184112.257500", "184113.747500", "184115.237500", "184116.727500", "184118.217500", "184119.707500", "184121.197500", "184122.687500", "184124.177500", "184125.667500", "184127.157500", "184128.647500", "184130.137500", "184131.627500", "184133.117500", "184134.607500", "184136.097500", "184137.587500", "184139.077500", "184140.567500", "184142.057500", "184143.547500", "184145.037500", "184146.527500", "184148.017500", "184149.507500", "184150.997500", "184152.487500", "184153.977500", "184155.467500", "184156.957500", "184158.447500", "184159.937500", "184201.427500", "184202.917500", "184204.407500", "184205.897500", "184207.387500", "184208.877500", "184210.367500", "184211.857500", "184213.347500", "184214.837500", "184216.327500", "184217.817500", "184219.307500", "184220.797500", "184222.287500", "184223.777500", "184225.267500", "184226.757500", "184228.247500", "184229.737500", "184231.227500", "184232.717500", "184234.207500", "184235.697500", "184237.187500", "184238.677500", "184240.167500", "184241.657500", "184243.147500", "184244.637500", "184246.127500", "184247.617500", "184249.107500", "184250.597500", "184252.087500", "184253.577500", "184255.067500", "184256.557500", "184258.047500", "184259.537500", "184301.027500", "184302.517500", "184304.007500", "184305.497500", "184306.987500", "184308.477500", "184309.967500", "184311.457500", "184312.947500", "184314.437500", "184315.927500", "184317.417500", "184318.907500", "184320.397500", "184321.887500", "184323.377500", "184324.867500", "184326.357500", "184327.847500", "184329.337500", "184330.827500", "184332.317500", "184333.807500", "184335.297500", "184336.787500", "184338.277500", "184339.767500", "184341.257500", "184342.747500", "184344.237500", "184345.727500", "184347.217500", "184348.707500", "184350.197500", "184351.687500", "184353.177500", "184354.667500", "184356.157500", "184357.647500", "184359.137500", "184400.627500", "184402.117500", "184403.607500", "184405.097500", "184406.587500", "184408.077500", "184409.567500", "184411.057500", "184412.547500", "184414.037500", "184415.527500", "184417.017500", "184418.507500", "184419.997500", "184421.487500", "184422.977500", "184424.467500", "184425.957500", "184427.447500", "184428.937500", "184430.427500", "184431.917500", "184433.407500", "184434.897500", "184436.387500", "184437.877500", "184439.367500", "184440.857500", "184442.347500", "184443.837500", "184445.327500", "184446.817500", "184448.307500", "184449.797500", "184451.287500", "184452.777500", "184454.267500", "184455.757500", "184457.247500", "184458.737500", "184500.227500", "184501.717500", "184503.207500", "184504.697500", "184506.187500", "184507.677500", "184509.167500", "184510.657500", "184512.147500", "184513.637500", "184515.127500", "184516.617500", "184518.107500", "184519.597500", "184521.087500", "184522.577500", "184524.067500", "184525.557500", "184527.047500", "184528.537500", "184530.027500", "184531.517500", "184533.007500", "184534.497500", "184535.987500", "184537.477500", "184538.967500", "184540.457500", "184541.947500", "184543.437500", "184544.927500", "184546.417500", "184547.907500", "184549.397500", "184550.887500", "184552.377500", "184553.867500", "184555.357500", "184556.847500", "184558.337500", "184559.827500", "184601.317500", "184602.807500", "184604.297500", "184605.787500", "184607.277500", "184608.767500", "184610.257500", "184611.747500", "184613.237500", "184614.727500", "184616.217500", "184617.707500", "184619.197500", "184620.687500", "184622.177500", "184623.667500", "184625.157500", "184626.647500", "184628.137500", "184629.627500", "184631.117500", "184632.607500", "184634.097500", "184635.587500", "184637.077500", "184638.567500", "184640.057500", "184641.547500", "184643.037500", "184644.527500", "184646.017500", "184647.507500", "184648.997500", "184650.487500", "184651.977500", "184653.467500", "184654.957500", "184656.447500", "184657.937500", "184659.427500", "184700.917500", "184702.407500", "184703.897500", "184705.387500", "184706.877500", "184708.367500", "184709.857500", "184711.347500", "184712.837500", "184714.327500", "184715.817500", "184717.307500", "184718.797500", "184720.287500", "184721.777500", "184723.267500", "184724.757500", "184726.247500", "184727.737500", "184729.227500", "184730.717500", "184732.207500", "184733.697500", "184735.187500", "184736.677500", "184738.167500", "184739.657500", "184741.147500", "184742.637500", "184744.127500", "184745.617500", "184747.107500", "184748.597500", "184750.087500", "184751.577500", "184753.067500", "184754.557500", "184756.047500", "184757.537500", "184759.027500", "184800.517500", "184802.007500", "184803.497500", "184804.987500", "184806.477500", "184807.967500", "184809.457500", "184810.947500", "184812.437500", "184813.927500", "184815.417500", "184816.907500", "184818.397500", "184819.887500", "184821.377500", "184822.867500", "184824.357500", "184825.847500", "184827.337500", "184828.827500", "184830.317500", "184831.807500", "184833.297500", "184834.787500", "184836.277500", "184837.767500", "184839.257500", "184840.747500", "184842.237500", "184843.727500", "184845.217500", "184846.707500", "184848.197500", "184849.687500", "184851.177500", "184852.667500", "184854.157500", "184855.647500", "184857.137500", "184858.627500", "184900.117500", "184901.607500", "184903.097500", "184904.587500", "184906.077500", "184907.567500", "184909.057500", "184910.547500", "184912.037500", "184913.527500", "184915.017500", "184916.507500", "184917.997500", "184919.487500", "184920.977500", "184922.467500", "184923.957500", "184925.447500", "184926.937500", "184928.427500", "184929.917500", "184931.407500", "184932.897500", "184934.387500", "184935.877500", "184937.367500", "184938.857500", "184940.347500", "184941.837500", "184943.327500", "184944.817500", "184946.307500", "184947.797500", "184949.287500", "184950.777500", "184952.267500", "184953.757500", "184955.247500", "184956.737500", "184958.227500", "184959.717500", "185001.207500", "185002.697500", "185004.187500", "185005.677500", "185007.167500", "185008.657500", "185010.147500", "185011.637500", "185013.127500", "185014.617500", "185016.107500", "185017.597500", "185019.087500", "185020.577500", "185022.067500", "185023.557500", "185025.047500", "185026.537500", "185028.027500", "185029.517500", "185031.007500", "185032.497500", "185033.987500", "185035.477500", "185036.967500", "185038.457500", "185039.947500", "185041.437500", "185042.927500", "185044.417500", "185045.907500", "185047.397500", "185048.887500", "185050.377500", "185051.867500", "185053.357500", "185054.847500", "185056.337500", "185057.827500", "185059.317500", "185100.807500", "185102.297500", "185103.787500", "185105.277500", "185106.767500", "185108.257500", "185109.747500", "185111.237500", "185112.727500", "185114.217500", "185115.707500", "185117.197500", "185118.687500", "185120.177500", "185121.667500", "185123.157500", "185124.647500", "185126.137500", "185127.627500", "185129.117500", "185130.607500", "185132.097500", "185133.587500", "185135.077500", "185136.567500", "185138.057500", "185139.547500"],
      "ContentTime": ["184027.580000", "184027.582000", "184027.585000", "184027.588000", "184027.590000", "184027.593000", "184027.595000", "184027.598000", "184027.600000", "184027.603000", "184027.605000", "184027.608000", "184027.610000", "184027.613000", "184027.615000", "184027.618000", "184027.620000", "184027.622000", "184027.625000", "184027.627000", "184027.630000", "184027.632000", "184027.635000", "184027.637000", "184027.640000", "184027.642000", "184027.645000", "184027.647000", "184027.650000", "184047.504000", "184047.506000", "184047.509000", "184047.511000", "184047.514000", "184047.516000", "184047.519000", "184047.521000", "184047.524000", "184047.535000", "184047.538000", "184047.540000", "184047.543000", "184047.545000", "184047.548000", "184047.550000", "184047.553000", "184047.555000", "184047.558000", "184047.560000", "184107.502000", "184107.505000", "184107.508000", "184107.516000", "184107.518000", "184107.521000", "184107.523000", "184107.526000", "184107.528000", "184107.531000", "184107.533000", "184107.536000", "184107.538000", "184107.541000", "184107.543000", "184107.546000", "184107.548000", "184107.551000", "184107.553000", "184107.556000", "184107.558000", "184127.507000", "184127.510000", "184127.512000", "184127.515000", "184127.517000", "184127.520000", "184127.522000", "184127.525000", "184127.527000", "184127.530000", "184127.532000", "184127.535000", "184127.537000", "184127.540000", "184127.542000", "184127.545000", "184127.547000", "184127.550000", "184127.552000", "184127.555000", "184207.521000", "184207.523000", "184207.526000", "184207.528000", "184207.531000", "184207.533000", "184207.536000", "184207.538000", "184207.541000", "184207.543000", "184207.546000", "184207.559000", "184207.561000", "184207.563000", "184207.566000", "184207.569000", "184207.571000", "184207.574000", "184207.576000", "184207.579000", "184207.581000", "184207.584000", "184207.586000", "184207.589000", "184207.591000", "184207.594000", "184207.596000", "184207.599000", "184207.601000", "184247.545000", "184247.548000", "184247.551000", "184247.553000", "184247.556000", "184247.558000", "184247.561000", "184247.563000", "184247.566000", "184247.568000", "184247.571000", "184247.574000", "184247.576000", "184247.579000", "184247.581000", "184247.584000", "184247.586000", "184247.588000", "184247.591000", "184247.593000", "184247.596000", "184247.598000", "184247.601000", "184247.603000", "184247.606000", "184247.608000", "184247.615000", "184327.542000", "184327.545000", "184327.548000", "184327.550000", "184327.553000", "184327.555000", "184327.558000", "184327.560000", "184327.563000", "184327.565000", "184327.568000", "184327.570000", "184327.573000", "184327.575000", "184327.578000", "184327.580000", "184327.583000", "184327.585000", "184327.588000", "184327.590000", "184327.593000", "184327.595000", "184327.598000", "184327.600000", "184327.603000", "184327.605000", "184327.608000", "184407.516000", "184407.519000", "184407.521000", "184407.524000", "184407.526000", "184407.529000", "184407.531000", "184407.534000", "184407.536000", "184407.538000", "184407.541000", "184407.543000", "184407.546000", "184407.549000", "184407.551000", "184407.554000", "184407.556000", "184407.559000", "184407.562000", "184407.564000", "184407.567000", "184407.569000", "184407.572000", "184407.574000", "184407.577000", "184407.580000", "184447.529000", "184447.532000", "184447.534000", "184447.537000", "184447.539000", "184447.542000", "184447.544000", "184447.547000", "184447.549000", "184447.552000", "184447.554000", "184447.557000", "184447.559000", "184447.562000", "184447.564000", "184447.567000", "184447.570000", "184447.572000", "184447.575000", "184447.577000", "184447.580000", "184447.582000", "184447.585000", "184447.587000", "184447.590000", "184447.592000", "184447.595000", "184527.538000", "184527.541000", "184527.543000", "184527.546000", "184527.548000", "184527.551000", "184527.553000", "184527.556000", "184527.558000", "184527.561000", "184527.563000", "184527.566000", "184527.568000", "184527.571000", "184527.573000", "184527.576000", "184527.578000", "184527.581000", "184527.583000", "184527.586000", "184527.588000", "184527.591000", "184527.593000", "184527.596000", "184527.598000", "184527.601000", "184527.603000", "184547.456000", "184547.458000", "184547.461000", "184547.463000", "184547.466000", "184547.468000", "184547.471000", "184547.483000", "184547.486000", "184547.488000", "184547.491000", "184547.508000", "184547.511000", "184627.521000", "184627.524000", "184627.526000", "184627.529000", "184627.531000", "184627.534000", "184627.536000", "184627.539000", "184627.541000", "184627.544000", "184627.546000", "184627.549000", "184627.551000", "184627.554000", "184627.556000", "184627.559000", "184627.561000", "184627.564000", "184627.567000", "184627.569000", "184627.572000", "184627.574000", "184627.577000", "184627.579000", "184627.582000", "184627.584000", "184627.587000", "184707.518000", "184707.520000", "184707.523000", "184707.525000", "184707.528000", "184707.530000", "184707.533000", "184707.535000", "184707.538000", "184707.540000", "184707.543000", "184707.546000", "184707.549000", "184707.551000", "184707.554000", "184707.556000", "184707.559000", "184707.561000", "184707.564000", "184707.566000", "184707.569000", "184707.571000", "184707.574000", "184707.576000", "184707.579000", "184707.581000", "184707.584000", "184747.525000", "184747.528000", "184747.531000", "184747.533000", "184747.536000", "184747.538000", "184747.541000", "184747.543000", "184747.546000", "184747.548000", "184747.551000", "184747.553000", "184747.556000", "184747.558000", "184747.561000", "184747.563000", "184747.566000", "184747.569000", "184747.571000", "184747.574000", "184747.576000", "184747.579000", "184747.583000", "184747.586000", "184747.588000", "184747.591000", "184747.593000", "184828.030000", "184828.032000", "184828.035000", "184828.037000", "184828.040000", "184828.042000", "184828.045000", "184828.048000", "184828.050000", "184828.053000", "184828.055000", "184828.057000", "184828.060000", "184828.062000", "184828.065000", "184828.067000", "184828.070000", "184828.072000", "184828.083000", "184828.086000", "184828.088000", "184828.091000", "184828.094000", "184828.096000", "184828.099000", "184828.101000", "184828.104000", "184907.525000", "184907.527000", "184907.530000", "184907.532000", "184907.535000", "184907.537000", "184907.540000", "184907.542000", "184907.545000", "184907.547000", "184907.550000", "184907.552000", "184907.555000", "184907.557000", "184907.560000", "184907.562000", "184907.565000", "184907.568000", "184907.570000", "184907.573000", "184907.575000", "184907.578000", "184907.580000", "184907.583000", "184907.585000", "184907.588000", "184907.590000", "184947.521000", "184947.524000", "184947.527000", "184947.529000", "184947.532000", "184947.534000", "184947.537000", "184947.539000", "184947.542000", "184947.544000", "184947.547000", "184947.549000", "184947.552000", "184947.554000", "184947.557000", "184947.560000", "184947.562000", "184947.565000", "184947.567000", "184947.570000", "184947.572000", "184947.575000", "184947.577000", "184947.580000", "184947.582000", "184947.585000", "184947.587000", "185027.531000", "185027.533000", "185027.536000", "185027.538000", "185027.541000", "185027.543000", "185027.546000", "185027.548000", "185027.551000", "185027.553000", "185027.556000", "185027.558000", "185027.561000", "185027.563000", "185027.566000", "185027.568000", "185027.571000", "185027.573000", "185027.576000", "185027.578000", "185027.581000", "185027.583000", "185027.586000", "185027.588000", "185027.591000", "185027.593000", "185107.528000", "185107.530000", "185107.533000", "185107.535000", "185107.538000", "185107.541000", "185107.543000", "185107.546000", "185107.548000", "185107.551000", "185107.553000", "185107.556000", "185107.558000", "185107.561000", "185107.563000", "185107.566000", "185107.568000", "185107.571000", "185107.573000", "185107.576000", "185107.579000", "185107.581000", "185107.584000", "185107.586000", "185107.589000", "185107.591000", "185107.594000", "185143.338000", "185143.341000", "185143.343000", "185143.346000", "185143.348000", "185143.351000", "185143.353000", "185143.356000", "185143.358000", "185143.361000", "185143.363000", "185143.366000", "185143.368000", "185143.371000", "185143.373000", "185143.376000", "185143.378000", "185143.381000", "185143.383000", "185143.386000", "185143.388000", "185143.391000", "185143.393000", "185143.396000"],
