{
  "AcquisitionMatrixPE": 104,
  "AcquisitionNumber": 1,
  "AcquisitionTime": "19:06:44.850000",
  "BandwidthPerPixelPhaseEncode": 17.17,
  "BaseResolution": 104,
  "BodyPartExamined": "BRAIN",
  "CoilCombinationMethod": "Sum of Squares",
  "ConsistencyInfo": "N4_VE11C_LATEST_20160120",
  "ConversionSoftware": "dcm2niix",
  "ConversionSoftwareVersion": "v1.0.20220505",
  "DerivedVendorReportedEchoSpacing": 0.000560011,
  "DeviceSerialNumber": "167006",
  "DwellTime": 2.1e-06,
  "EchoTime": 0.037,
  "EchoTrainLength": 104,
  "EffectiveEchoSpacing": 0.000560011,
  "FlipAngle": 52,
  "HeudiconvVersion": "0.5.3.post811+g6206e14",
  "ImageComments": "Unaliased MB4/PE3/LB",
  "ImageOrientationPatientDICOM": [0.999494, -0.0310227, 0.00704329, 0.0314103, 0.927296, -0.373009],
  "ImageOrientationText": "Tra>Cor(-21.9)>Sag(-0.3)",
  "ImageType": [
    "ORIGINAL",
    "PRIMARY",
    "M",
    "MB",
    "ND",
    "MOSAIC"
],
  "ImagingFrequency": 123.26,
  "InPlanePhaseEncodingDirectionDICOM": "COL",
  "InstitutionAddress": "Chemin Queen-Mary 4565,Montreal,District,CA,H3W 1W5",
  "InstitutionName": "IUGM",
  "InstitutionalDepartmentName": "Department",
  "MRAcquisitionType": "2D",
  "MagneticFieldStrength": 3,
  "Manufacturer": "Siemens",
  "ManufacturersModelName": "Prisma_fit",
  "MatrixCoilMode": "SENSE",
  "Modality": "MR",
  "MultibandAccelerationFactor": 4,
  "PartialFourier": 1,
  "PatientPosition": "HFS",
  "PercentPhaseFOV": 100,
  "PercentSampling": 100,
  "PhaseEncodingDirection": "j",
  "PhaseEncodingSteps": 104,
  "PhaseResolution": 1,
  "PixelBandwidth": 2290,
  "ProcedureStepDescription": "games^mariostars",
  "ProtocolName": "func_task-mariostars_run-08",
  "PulseSequenceDetails": "%CustomerSeq%\\cmrr_mbep2d_bold",
  "ReceiveCoilActiveElements": "HC1-7;NC1,2",
  "ReceiveCoilName": "HeadNeck_64",
  "ReconMatrixPE": 104,
  "RepetitionTime": 1.49,
  "SAR": 0.0558584,
  "ScanOptions": "FS",
  "ScanningSequence": "EP",
  "SequenceName": "epfid2d1_104",
  "SequenceVariant": "SK\\SS",
  "SeriesDescription": "func_task-mariostars_run-08",
  "SeriesNumber": 32,
  "ShimSetting": [601, -7251, -8798, 458, 24, -310, 15, 44],
  "SliceThickness": 2,
  "SliceTiming": [0, 0.7825, 0.0975, 0.8825, 0.195, 0.98, 0.295, 1.0775, 0.3925, 1.175, 0.49, 1.2725, 0.5875, 1.3725, 0.685, 0, 0.7825, 0.0975, 0.8825, 0.195, 0.98, 0.295, 1.0775, 0.3925, 1.175, 0.49, 1.2725, 0.5875, 1.3725, 0.685, 0, 0.7825, 0.0975, 0.8825, 0.195, 0.98, 0.295, 1.0775, 0.3925, 1.175, 0.49, 1.2725, 0.5875, 1.3725, 0.685, 0, 0.7825, 0.0975, 0.8825, 0.195, 0.98, 0.295, 1.0775, 0.3925, 1.175, 0.49, 1.2725, 0.5875, 1.3725, 0.685],
  "SoftwareVersions": "syngo MR E11",
  "SpacingBetweenSlices": 2,
  "StationName": "MRC35049",
  "TaskName": "mariostars",
  "TotalReadoutTime": 0.0576811,
  "TxRefAmp": 265.677,
  "WipMemBlock": "c97b6fc1-a368-43bd-bd23-87ab48647017||Sequence: R017 ve11c/master r/75a17815+; Jun 28 2022 16:32:11 by eja",
  "dcmmeta_affine": [
    [-1.9989876747131348, 0.0628206878900528, -0.010081109590828419, 101.20454406738281],
    [0.06204543262720108, 1.8545914888381958, -0.7460837960243225, -70.80105590820312],
    [0.014086578041315079, 0.7460188865661621, 1.8556016683578491, -60.51971435546875],
    [0.0, 0.0, 0.0, 1.0]
],
  "dcmmeta_reorient_transform": [
    [0.0, -1.0, 0.0, 103.0],
    [1.0, 0.0, 0.0, 0.0],
    [0.0, 0.0, 1.0, 0.0],
    [0.0, 0.0, 0.0, 1.0]
],
  "dcmmeta_shape": [104, 104, 60, 443],
  "dcmmeta_slice_dim": 2,
  "dcmmeta_version": 0.6,
  "global": {
    "const": {
      "AcquisitionMatrix": [104, 0, 0, 104],
      "AngioFlag": "N",
      "BitsAllocated": 16,
      "BitsStored": 16,
      "BodyPartExamined": "BRAIN",
      "Columns": 832,
      "EchoNumbers": 1,
      "EchoTime": 37.0,
      "EchoTrainLength": 104,
      "FlipAngle": 52.0,
      "HighBit": 15,
      "ImageOrientationPatient": [0.99949386347216, -0.0310227168068, 0.00704328924709, 0.03141034370572, 0.92729571474294, -0.3730094472365],
      "ImagePositionPatient": [-858.17333881246, -772.70860617617, 282.74359572075],
      "ImageType": [
        "ORIGINAL",
        "PRIMARY",
        "M",
        "MB",
        "ND",
        "MOSAIC"
],
      "ImagedNucleus": "1H",
      "ImagingFrequency": 123.260229,
      "InPlanePhaseEncodingDirection": "COL",
      "MRAcquisitionType": "2D",
      "MagneticFieldStrength": 3.0,
      "Manufacturer": "SIEMENS",
      "ManufacturerModelName": "Prisma_fit",
      "Modality": "MR",
      "NumberOfAverages": 1.0,
      "NumberOfPhaseEncodingSteps": 104,
      "PercentPhaseFieldOfView": 100.0,
      "PercentSampling": 100.0,
      "PerformedProcedureStepStartTime": "170640.569000",
      "PhotometricInterpretation": "MONOCHROME2",
      "PixelBandwidth": 2290.0,
      "PixelRepresentation": 0,
      "PixelSpacing": [2.0, 2.0],
      "ProtocolName": "func_task-mariostars_run-08",
      "RepetitionTime": 1490.0,
      "Rows": 832,
      "SAR": 0.05585841049676,
      "SamplesPerPixel": 1,
      "ScanOptions": "FS",
      "ScanningSequence": "EP",
      "SequenceName": "epfid2d1_104",
      "SequenceVariant": [
        "SK",
        "SS"
],
      "SeriesDescription": "func_task-mariostars_run-08",
      "SeriesNumber": 32,
      "SeriesTime": "190812.508000",
      "SliceLocation": -30.248607680883,
      "SliceThickness": 2.0,
      "SmallestImagePixelValue": 0,
      "SoftwareVersions": "syngo MR E11",
      "SpacingBetweenSlices": 2.0000000346351,
      "SpecificCharacterSet": "ISO_IR 100",
      "StudyID": "1",
      "StudyTime": "170640.493000",
      "TransmitCoilName": "Body",
      "VariableFlipAngleFlag": "N",
      "WindowCenterWidthExplanation": "Algo1",
      "dBdt": 0.0},
    "slices": {}
  },
  "time": {
    "samples": {
      "AcquisitionNumber": [1, 2, 3, 4, 5, 6, 7, 8, 9, 10, 11, 12, 13, 14, 15, 16, 17, 18, 19, 20, 21, 22, 23, 24, 25, 26, 27, 28, 29, 30, 31, 32, 33, 34, 35, 36, 37, 38, 39, 40, 41, 42, 43, 44, 45, 46, 47, 48, 49, 50, 51, 52, 53, 54, 55, 56, 57, 58, 59, 60, 61, 62, 63, 64, 65, 66, 67, 68, 69, 70, 71, 72, 73, 74, 75, 76, 77, 78, 79, 80, 81, 82, 83, 84, 85, 86, 87, 88, 89, 90, 91, 92, 93, 94, 95, 96, 97, 98, 99, 100, 101, 102, 103, 104, 105, 106, 107, 108, 109, 110, 111, 112, 113, 114, 115, 116, 117, 118, 119, 120, 121, 122, 123, 124, 125, 126, 127, 128, 129, 130, 131, 132, 133, 134, 135, 136, 137, 138, 139, 140, 141, 142, 143, 144, 145, 146, 147, 148, 149, 150, 151, 152, 153, 154, 155, 156, 157, 158, 159, 160, 161, 162, 163, 164, 165, 166, 167, 168, 169, 170, 171, 172, 173, 174, 175, 176, 177, 178, 179, 180, 181, 182, 183, 184, 185, 186, 187, 188, 189, 190, 191, 192, 193, 194, 195, 196, 197, 198, 199, 200, 201, 202, 203, 204, 205, 206, 207, 208, 209, 210, 211, 212, 213, 214, 215, 216, 217, 218, 219, 220, 221, 222, 223, 224, 225, 226, 227, 228, 229, 230, 231, 232, 233, 234, 235, 236, 237, 238, 239, 240, 241, 242, 243, 244, 245, 246, 247, 248, 249, 250, 251, 252, 253, 254, 255, 256, 257, 258, 259, 260, 261, 262, 263, 264, 265, 266, 267, 268, 269, 270, 271, 272, 273, 274, 275, 276, 277, 278, 279, 280, 281, 282, 283, 284, 285, 286, 287, 288, 289, 290, 291, 292, 293, 294, 295, 296, 297, 298, 299, 300, 301, 302, 303, 304, 305, 306, 307, 308, 309, 310, 311, 312, 313, 314, 315, 316, 317, 318, 319, 320, 321, 322, 323, 324, 325, 326, 327, 328, 329, 330, 331, 332, 333, 334, 335, 336, 337, 338, 339, 340, 341, 342, 343, 344, 345, 346, 347, 348, 349, 350, 351, 352, 353, 354, 355, 356, 357, 358, 359, 360, 361, 362, 363, 364, 365, 366, 367, 368, 369, 370, 371, 372, 373, 374, 375, 376, 377, 378, 379, 380, 381, 382, 383, 384, 385, 386, 387, 388, 389, 390, 391, 392, 393, 394, 395, 396, 397, 398, 399, 400, 401, 402, 403, 404, 405, 406, 407, 408, 409, 410, 411, 412, 413, 414, 415, 416, 417, 418, 419, 420, 421, 422, 423, 424, 425, 426, 427, 428, 429, 430, 431, 432, 433, 434, 435, 436, 437, 438, 439, 440, 441, 442, 443],
      "AcquisitionTime": ["190644.850000", "190646.340000", "190647.830000", "190649.320000", "190650.810000", "190652.300000", "190653.790000", "190655.280000", "190656.770000", "190658.260000", "190659.750000", "190701.240000", "190702.730000", "190704.220000", "190705.710000", "190707.200000", "190708.690000", "190710.180000", "190711.670000", "190713.160000", "190714.650000", "190716.140000", "190717.630000", "190719.120000", "190720.610000", "190722.100000", "190723.590000", "190725.080000", "190726.570000", "190728.060000", "190729.550000", "190731.040000", "190732.530000", "190734.020000", "190735.510000", "190737.000000", "190738.490000", "190739.980000", "190741.470000", "190742.960000", "190744.450000", "190745.940000", "190747.430000", "190748.920000", "190750.410000", "190751.900000", "190753.390000", "190754.880000", "190756.370000", "190757.860000", "190759.350000", "190800.840000", "190802.330000", "190803.820000", "190805.310000", "190806.800000", "190808.290000", "190809.780000", "190811.270000", "190812.760000", "190814.250000", "190815.740000", "190817.230000", "190818.720000", "190820.210000", "190821.700000", "190823.190000", "190824.680000", "190826.170000", "190827.660000", "190829.150000", "190830.640000", "190832.130000", "190833.620000", "190835.110000", "190836.600000", "190838.090000", "190839.580000", "190841.070000", "190842.560000", "190844.050000", "190845.540000", "190847.030000", "190848.520000", "190850.010000", "190851.500000", "190852.990000", "190854.480000", "190855.970000", "190857.460000", "190858.950000", "190900.440000", "190901.930000", "190903.420000", "190904.910000", "190906.400000", "190907.890000", "190909.380000", "190910.870000", "190912.360000", "190913.850000", "190915.340000", "190916.830000", "190918.320000", "190919.810000", "190921.300000", "190922.790000", "190924.280000", "190925.770000", "190927.260000", "190928.750000", "190930.240000", "190931.730000", "190933.220000", "190934.710000", "190936.200000", "190937.690000", "190939.180000", "190940.670000", "190942.160000", "190943.650000", "190945.140000", "190946.630000", "190948.120000", "190949.610000", "190951.100000", "190952.590000", "190954.080000", "190955.570000", "190957.060000", "190958.550000", "191000.040000", "191001.530000", "191003.020000", "191004.510000", "191006.000000", "191007.490000", "191008.980000", "191010.470000", "191011.960000", "191013.450000", "191014.940000", "191016.430000", "191017.920000", "191019.410000", "191020.900000", "191022.390000", "191023.880000", "191025.370000", "191026.860000", "191028.350000", "191029.840000", "191031.330000", "191032.820000", "191034.310000", "191035.800000", "191037.290000", "191038.780000", "191040.270000", "191041.760000", "191043.250000", "191044.740000", "191046.230000", "191047.720000", "191049.210000", "191050.700000", "191052.190000", "191053.680000", "191055.170000", "191056.660000", "191058.150000", "191059.640000", "191101.130000", "191102.620000", "191104.110000", "191105.600000", "191107.090000", "191108.580000", "191110.070000", "191111.560000", "191113.050000", "191114.540000", "191116.030000", "191117.520000", "191119.010000", "191120.500000", "191121.990000", "191123.480000", "191124.970000", "191126.460000", "191127.950000", "191129.440000", "191130.930000", "191132.420000", "191133.910000", "191135.400000", "191136.890000", "191138.380000", "191139.870000", "191141.360000", "191142.850000", "191144.340000", "191145.830000", "191147.320000", "191148.810000", "191150.300000", "191151.790000", "191153.280000", "191154.770000", "191156.260000", "191157.750000", "191159.240000", "191200.730000", "191202.220000", "191203.710000", "191205.200000", "191206.690000", "191208.180000", "191209.670000", "191211.160000", "191212.650000", "191214.140000", "191215.630000", "191217.120000", "191218.610000", "191220.100000", "191221.590000", "191223.080000", "191224.570000", "191226.060000", "191227.550000", "191229.040000", "191230.530000", "191232.020000", "191233.510000", "191235.000000", "191236.490000", "191237.980000", "191239.470000", "191240.960000", "191242.450000", "191243.940000", "191245.430000", "191246.920000", "191248.410000", "191249.900000", "191251.390000", "191252.880000", "191254.370000", "191255.860000", "191257.350000", "191258.840000", "191300.330000", "191301.820000", "191303.310000", "191304.800000", "191306.290000", "191307.780000", "191309.270000", "191310.760000", "191312.250000", "191313.740000", "191315.230000", "191316.720000", "191318.210000", "191319.700000", "191321.190000", "191322.680000", "191324.170000", "191325.660000", "191327.150000", "191328.640000", "191330.130000", "191331.620000", "191333.110000", "191334.600000", "191336.090000", "191337.580000", "191339.070000", "191340.560000", "191342.050000", "191343.540000", "191345.030000", "191346.520000", "191348.010000", "191349.500000", "191350.990000", "191352.480000", "191353.970000", "191355.460000", "191356.950000", "191358.440000", "191359.930000", "191401.420000", "191402.910000", "191404.400000", "191405.890000", "191407.380000", "191408.870000", "191410.360000", "191411.850000", "191413.340000", "191414.830000", "191416.320000", "191417.810000", "191419.300000", "191420.790000", "191422.280000", "191423.770000", "191425.260000", "191426.750000", "191428.240000", "191429.730000", "191431.220000", "191432.710000", "191434.200000", "191435.690000", "191437.180000", "191438.670000", "191440.160000", "191441.650000", "191443.140000", "191444.630000", "191446.120000", "191447.610000", "191449.100000", "191450.590000", "191452.080000", "191453.570000", "191455.060000", "191456.550000", "191458.040000", "191459.530000", "191501.020000", "191502.510000", "191504.000000", "191505.490000", "191506.980000", "191508.470000", "191509.960000", "191511.450000", "191512.940000", "191514.430000", "191515.920000", "191517.410000", "191518.900000", "191520.390000", "191521.880000", "191523.370000", "191524.860000", "191526.350000", "191527.840000", "191529.330000", "191530.820000", "191532.310000", "191533.800000", "191535.290000", "191536.780000", "191538.270000", "191539.760000", "191541.250000", "191542.740000", "191544.230000", "191545.720000", "191547.210000", "191548.700000", "191550.190000", "191551.680000", "191553.170000", "191554.660000", "191556.150000", "191557.640000", "191559.130000", "191600.620000", "191602.110000", "191603.600000", "191605.090000", "191606.580000", "191608.070000", "191609.560000", "191611.050000", "191612.540000", "191614.030000", "191615.520000", "191617.010000", "191618.500000", "191619.990000", "191621.480000", "191622.970000", "191624.460000", "191625.950000", "191627.440000", "191628.930000", "191630.420000", "191631.910000", "191633.400000", "191634.890000", "191636.380000", "191637.870000", "191639.360000", "191640.850000", "191642.340000", "191643.830000", "191645.320000", "191646.810000", "191648.300000", "191649.790000", "191651.280000", "191652.770000", "191654.260000", "191655.750000", "191657.240000", "191658.730000", "191700.220000", "191701.710000", "191703.200000", "191704.690000", "191706.180000", "191707.670000", "191709.160000", "191710.650000", "191712.140000", "191713.630000", "191715.120000", "191716.610000", "191718.100000", "191719.590000", "191721.080000", "191722.570000", "191724.060000", "191725.550000", "191727.040000", "191728.530000", "191730.020000", "191731.510000", "191733.000000", "191734.490000", "191735.980000", "191737.470000", "191738.960000", "191740.450000", "191741.940000", "191743.430000"],
      "ContentTime": ["190812.511000", "190812.515000", "190812.518000", "190812.522000", "190812.525000", "190812.528000", "190812.532000", "190812.535000", "190812.538000", "190812.542000", "190812.545000", "190812.548000", "190812.552000", "190812.555000", "190812.558000", "190812.562000", "190812.565000", "190812.568000", "190812.572000", "190812.575000", "190812.578000", "190812.582000", "190812.585000", "190812.589000", "190812.592000", "190812.595000", "190812.599000", "190812.602000", "190812.605000", "190812.609000", "190812.612000", "190812.615000", "190812.619000", "190812.622000", "190812.625000", "190812.629000", "190812.632000", "190832.469000", "190832.473000", "190832.476000", "190832.480000", "190832.483000", "190832.486000", "190832.490000", "190832.493000", "190832.497000", "190832.500000", "190832.503000", "190832.507000", "190832.510000", "190832.513000", "190832.517000", "190832.520000", "190832.524000", "190832.527000", "190832.531000", "190832.534000", "190852.469000", "190852.473000", "190852.476000", "190852.480000", "190852.483000", "190852.486000", "190852.490000", "190852.493000", "190852.497000", "190852.500000", "190852.503000", "190852.506000", "190852.510000", "190852.513000", "190852.516000", "190852.520000", "190852.523000", "190852.527000", "190852.530000", "190852.533000", "190912.469000", "190912.473000", "190912.476000", "190912.479000", "190912.483000", "190912.486000", "190912.490000", "190912.504000", "190912.508000", "190912.511000", "190912.514000", "190912.518000", "190912.521000", "190912.524000", "190912.528000", "190912.531000", "190912.535000", "190912.538000", "190912.541000", "190912.544000", "190952.469000", "190952.473000", "190952.476000", "190952.479000", "190952.483000", "190952.486000", "190952.490000", "190952.493000", "190952.496000", "190952.500000", "190952.503000", "190952.506000", "190952.510000", "190952.513000", "190952.521000", "190952.524000", "190952.528000", "190952.531000", "190952.534000", "190952.538000", "190952.548000", "190952.551000", "190952.555000", "190952.558000", "190952.561000", "190952.565000", "190952.568000", "190952.571000", "191032.469000", "191032.473000", "191032.476000", "191032.480000", "191032.483000", "191032.486000", "191032.490000", "191032.493000", "191032.496000", "191032.500000", "191032.503000", "191032.506000", "191032.510000", "191032.513000", "191032.517000", "191032.520000", "191032.523000", "191032.526000", "191032.530000", "191032.533000", "191032.537000", "191032.540000", "191032.543000", "191032.547000", "191032.550000", "191032.553000", "191032.556000", "191112.469000", "191112.473000", "191112.476000", "191112.480000", "191112.483000", "191112.487000", "191112.490000", "191112.493000", "191112.497000", "191112.500000", "191112.505000", "191112.509000", "191112.512000", "191112.516000", "191112.520000", "191112.523000", "191112.526000", "191112.530000", "191112.533000", "191112.537000", "191112.540000", "191112.543000", "191112.547000", "191112.550000", "191112.554000", "191112.557000", "191152.469000", "191152.473000", "191152.476000", "191152.488000", "191152.492000", "191152.495000", "191152.498000", "191152.502000", "191152.505000", "191152.508000", "191152.512000", "191152.515000", "191152.519000", "191152.522000", "191152.525000", "191152.529000", "191152.532000", "191152.535000", "191152.539000", "191152.542000", "191152.546000", "191152.549000", "191152.552000", "191152.555000", "191152.559000", "191152.562000", "191152.565000", "191232.468000", "191232.472000", "191232.476000", "191232.479000", "191232.482000", "191232.486000", "191232.489000", "191232.492000", "191232.496000", "191232.499000", "191232.502000", "191232.506000", "191232.509000", "191232.523000", "191232.526000", "191232.530000", "191232.533000", "191232.536000", "191232.540000", "191232.543000", "191232.546000", "191232.550000", "191232.553000", "191232.556000", "191232.560000", "191232.563000", "191232.567000", "191312.469000", "191312.473000", "191312.476000", "191312.480000", "191312.483000", "191312.486000", "191312.490000", "191312.493000", "191312.497000", "191312.500000", "191312.503000", "191312.507000", "191312.510000", "191312.513000", "191312.517000", "191312.520000", "191312.523000", "191312.527000", "191312.530000", "191312.533000", "191312.536000", "191312.540000", "191312.543000", "191312.547000", "191312.550000", "191312.553000", "191312.556000", "191352.469000", "191352.481000", "191352.484000", "191352.488000", "191352.491000", "191352.495000", "191352.498000", "191352.501000", "191352.505000", "191352.508000", "191352.512000", "191352.515000", "191352.518000", "191352.522000", "191352.525000", "191352.528000", "191352.532000", "191352.535000", "191352.539000", "191352.542000", "191352.545000", "191352.549000", "191352.568000", "191352.572000", "191352.575000", "191352.579000", "191352.582000", "191432.469000", "191432.473000", "191432.476000", "191432.480000", "191432.483000", "191432.486000", "191432.490000", "191432.493000", "191432.497000", "191432.500000", "191432.503000", "191432.507000", "191432.510000", "191432.513000", "191432.517000", "191432.520000", "191432.524000", "191432.527000", "191432.530000", "191432.534000", "191432.537000", "191432.541000", "191432.544000", "191432.547000", "191432.551000", "191432.554000", "191432.557000", "191512.469000", "191512.480000", "191512.483000", "191512.487000", "191512.490000", "191512.494000", "191512.497000", "191512.500000", "191512.504000", "191512.507000", "191512.510000", "191512.514000", "191512.517000", "191512.521000", "191512.524000", "191512.527000", "191512.531000", "191512.534000", "191512.537000", "191512.541000", "191512.544000", "191512.548000", "191512.562000", "191512.566000", "191512.569000", "191512.573000", "191512.578000", "191532.469000", "191532.473000", "191532.477000", "191532.480000", "191532.483000", "191532.486000", "191532.490000", "191532.493000", "191532.497000", "191532.500000", "191532.503000", "191532.507000", "191532.510000", "191612.469000", "191612.473000", "191612.476000", "191612.480000", "191612.483000", "191612.487000", "191612.490000", "191612.493000", "191612.497000", "191612.500000", "191612.503000", "191612.507000", "191612.526000", "191612.530000", "191612.533000", "191612.536000", "191612.540000", "191612.543000", "191612.546000", "191612.550000", "191612.553000", "191612.557000", "191612.560000", "191612.563000", "191612.567000", "191612.570000", "191612.574000", "191652.469000", "191652.473000", "191652.476000", "191652.480000", "191652.483000", "191652.487000", "191652.490000", "191652.493000", "191652.497000", "191652.500000", "191652.503000", "191652.507000", "191652.510000", "191652.513000", "191652.517000", "191652.520000", "191652.523000", "191652.527000", "191652.530000", "191652.533000", "191652.537000", "191652.540000", "191652.544000", "191652.547000", "191652.550000", "191652.554000", "191652.557000", "191732.469000", "191732.473000", "191732.476000", "191732.480000", "191732.488000", "191732.491000", "191732.494000", "191732.498000", "191732.501000", "191732.504000", "191732.508000", "191732.511000", "191732.515000", "191732.518000", "191732.521000", "191732.525000", "191732.528000", "191732.531000", "191732.535000", "191732.538000", "191732.541000", "191732.545000", "191732.548000", "191732.552000", "191732.555000", "191732.558000", "191746.584000", "191746.587000", "191746.591000", "191746.594000", "191746.598000", "191746.601000", "191746.605000", "191746.608000", "191746.611000", "191746.615000"],
