{
  "AcquisitionMatrixPE": 104,
  "AcquisitionNumber": 1,
  "AcquisitionTime": "17:32:16.815000",
  "BandwidthPerPixelPhaseEncode": 17.17,
  "BaseResolution": 104,
  "BodyPartExamined": "BRAIN",
  "CoilCombinationMethod": "Sum of Squares",
  "ConsistencyInfo": "N4_VE11C_LATEST_20160120",
  "ConversionSoftware": "dcm2niix",
  "ConversionSoftwareVersion": "v1.0.20220505",
  "DerivedVendorReportedEchoSpacing": 0.000560011,
  "DeviceSerialNumber": "167006",
  "DwellTime": 2.1e-06,
  "EchoTime": 0.037,
  "EchoTime1": 0.037,
  "EchoTime2": 0.001,
  "EchoTrainLength": 104,
  "EffectiveEchoSpacing": 0.000560011,
  "FlipAngle": 52,
  "HeudiconvVersion": "0.5.3.post811+g6206e14",
  "ImageComments": "Unaliased MB4/PE3/LB",
  "ImageOrientationPatientDICOM": [0.999494, -0.0310227, 0.00704329, 0.0314103, 0.927296, -0.373009],
  "ImageOrientationText": "Tra>Cor(-21.9)>Sag(-0.3)",
  "ImageType": [
    "ORIGINAL",
    "PRIMARY",
    "P",
    "MB",
    "ND",
    "MOSAIC",
    "PHASE"
],
  "ImagingFrequency": 123.26,
  "InPlanePhaseEncodingDirectionDICOM": "COL",
  "InstitutionAddress": "Chemin Queen-Mary 4565,Montreal,District,CA,H3W 1W5",
  "InstitutionName": "IUGM",
  "InstitutionalDepartmentName": "Department",
  "MRAcquisitionType": "2D",
  "MagneticFieldStrength": 3,
  "Manufacturer": "Siemens",
  "ManufacturersModelName": "Prisma_fit",
  "MatrixCoilMode": "SENSE",
  "Modality": "MR",
  "MultibandAccelerationFactor": 4,
  "PartialFourier": 1,
  "PatientPosition": "HFS",
  "PercentPhaseFOV": 100,
  "PercentSampling": 100,
  "PhaseEncodingDirection": "j",
  "PhaseEncodingSteps": 104,
  "PhaseResolution": 1,
  "PixelBandwidth": 2290,
  "ProcedureStepDescription": "games^mariostars",
  "ProtocolName": "func_task-mariostars_run-01",
  "PulseSequenceDetails": "%CustomerSeq%\\cmrr_mbep2d_bold",
  "ReceiveCoilActiveElements": "HC1-7;NC1,2",
  "ReceiveCoilName": "HeadNeck_64",
  "ReconMatrixPE": 104,
  "RepetitionTime": 1.49,
  "SAR": 0.0558584,
  "ScanOptions": "FS",
  "ScanningSequence": "EP",
  "SequenceName": "epfid2d1_104",
  "SequenceVariant": "SK\\SS",
  "SeriesDescription": "func_task-mariostars_run-01",
  "SeriesNumber": 12,
  "ShimSetting": [601, -7251, -8798, 458, 24, -310, 15, 44],
  "SliceThickness": 2,
  "SliceTiming": [0, 0.785, 0.0975, 0.8825, 0.1975, 0.98, 0.295, 1.0775, 0.3925, 1.1775, 0.49, 1.275, 0.5875, 1.3725, 0.6875, 0, 0.785, 0.0975, 0.8825, 0.1975, 0.98, 0.295, 1.0775, 0.3925, 1.1775, 0.49, 1.275, 0.5875, 1.3725, 0.6875, 0, 0.785, 0.0975, 0.8825, 0.1975, 0.98, 0.295, 1.0775, 0.3925, 1.1775, 0.49, 1.275, 0.5875, 1.3725, 0.6875, 0, 0.785, 0.0975, 0.8825, 0.1975, 0.98, 0.295, 1.0775, 0.3925, 1.1775, 0.49, 1.275, 0.5875, 1.3725, 0.6875],
  "SoftwareVersions": "syngo MR E11",
  "SpacingBetweenSlices": 2,
  "StationName": "MRC35049",
  "TaskName": "mariostars",
  "TotalReadoutTime": 0.0576811,
  "TxRefAmp": 265.677,
  "WipMemBlock": "68eebd51-58fa-40c0-b316-fd660a0ff69d||Sequence: R017 ve11c/master r/75a17815+; Jun 28 2022 16:32:11 by eja",
  "dcmmeta_affine": [
    [-1.9989876747131348, 0.0628206878900528, -0.010081109590828419, 101.20454406738281],
    [0.06204543262720108, 1.8545914888381958, -0.7460837960243225, -70.80105590820312],
    [0.014086578041315079, 0.7460188865661621, 1.8556016683578491, -60.51971435546875],
    [0.0, 0.0, 0.0, 1.0]
],
  "dcmmeta_reorient_transform": [
    [0.0, -1.0, 0.0, 103.0],
    [1.0, 0.0, 0.0, 0.0],
    [0.0, 0.0, 1.0, 0.0],
    [0.0, 0.0, 0.0, 1.0]
],
  "dcmmeta_shape": [104, 104, 60, 445],
  "dcmmeta_slice_dim": 2,
  "dcmmeta_version": 0.6,
  "global": {
    "const": {
      "AcquisitionMatrix": [104, 0, 0, 104],
      "AngioFlag": "N",
      "BitsAllocated": 16,
      "BitsStored": 16,
      "BodyPartExamined": "BRAIN",
      "Columns": 832,
      "EchoNumbers": 1,
      "EchoTime": 37.0,
      "EchoTrainLength": 104,
      "FlipAngle": 52.0,
      "HighBit": 15,
      "ImageOrientationPatient": [0.99949386347216, -0.0310227168068, 0.00704328924709, 0.03141034370572, 0.92729571474294, -0.3730094472365],
      "ImagePositionPatient": [-858.17333881246, -772.70860617617, 282.74359572075],
      "ImageType": [
        "ORIGINAL",
        "PRIMARY",
        "P",
        "MB",
        "ND",
        "MOSAIC"
],
      "ImagedNucleus": "1H",
      "ImagingFrequency": 123.260199,
      "InPlanePhaseEncodingDirection": "COL",
      "LargestImagePixelValue": 4095,
      "MRAcquisitionType": "2D",
      "MagneticFieldStrength": 3.0,
      "Manufacturer": "SIEMENS",
      "ManufacturerModelName": "Prisma_fit",
      "Modality": "MR",
      "NumberOfAverages": 1.0,
      "NumberOfPhaseEncodingSteps": 104,
      "PercentPhaseFieldOfView": 100.0,
      "PercentSampling": 100.0,
      "PerformedProcedureStepStartTime": "170640.569000",
      "PhotometricInterpretation": "MONOCHROME2",
      "PixelBandwidth": 2290.0,
      "PixelRepresentation": 0,
      "PixelSpacing": [2.0, 2.0],
      "ProtocolName": "func_task-mariostars_run-01",
      "RepetitionTime": 1490.0,
      "RescaleIntercept": -4096.0,
      "RescaleSlope": 2.0,
      "RescaleType": "US",
      "Rows": 832,
      "SAR": 0.05585841049676,
      "SamplesPerPixel": 1,
      "ScanOptions": "FS",
      "ScanningSequence": "EP",
      "SequenceName": "epfid2d1_104",
      "SequenceVariant": [
        "SK",
        "SS"
],
      "SeriesDescription": "func_task-mariostars_run-01",
      "SeriesNumber": 12,
      "SeriesTime": "173329.440000",
      "SliceLocation": -30.248607680883,
      "SliceThickness": 2.0,
      "SmallestImagePixelValue": 0,
      "SoftwareVersions": "syngo MR E11",
      "SpacingBetweenSlices": 2.0000000346351,
      "SpecificCharacterSet": "ISO_IR 100",
      "StudyID": "1",
      "StudyTime": "170640.493000",
      "TransmitCoilName": "Body",
      "VariableFlipAngleFlag": "N",
      "WindowCenterWidthExplanation": "Algo1",
      "dBdt": 0.0},
    "slices": {}
  },
  "time": {
    "samples": {
      "AcquisitionNumber": [1, 2, 3, 4, 5, 6, 7, 8, 9, 10, 11, 12, 13, 14, 15, 16, 17, 18, 19, 20, 21, 22, 23, 24, 25, 26, 27, 28, 29, 30, 31, 32, 33, 34, 35, 36, 37, 38, 39, 40, 41, 42, 43, 44, 45, 46, 47, 48, 49, 50, 51, 52, 53, 54, 55, 56, 57, 58, 59, 60, 61, 62, 63, 64, 65, 66, 67, 68, 69, 70, 71, 72, 73, 74, 75, 76, 77, 78, 79, 80, 81, 82, 83, 84, 85, 86, 87, 88, 89, 90, 91, 92, 93, 94, 95, 96, 97, 98, 99, 100, 101, 102, 103, 104, 105, 106, 107, 108, 109, 110, 111, 112, 113, 114, 115, 116, 117, 118, 119, 120, 121, 122, 123, 124, 125, 126, 127, 128, 129, 130, 131, 132, 133, 134, 135, 136, 137, 138, 139, 140, 141, 142, 143, 144, 145, 146, 147, 148, 149, 150, 151, 152, 153, 154, 155, 156, 157, 158, 159, 160, 161, 162, 163, 164, 165, 166, 167, 168, 169, 170, 171, 172, 173, 174, 175, 176, 177, 178, 179, 180, 181, 182, 183, 184, 185, 186, 187, 188, 189, 190, 191, 192, 193, 194, 195, 196, 197, 198, 199, 200, 201, 202, 203, 204, 205, 206, 207, 208, 209, 210, 211, 212, 213, 214, 215, 216, 217, 218, 219, 220, 221, 222, 223, 224, 225, 226, 227, 228, 229, 230, 231, 232, 233, 234, 235, 236, 237, 238, 239, 240, 241, 242, 243, 244, 245, 246, 247, 248, 249, 250, 251, 252, 253, 254, 255, 256, 257, 258, 259, 260, 261, 262, 263, 264, 265, 266, 267, 268, 269, 270, 271, 272, 273, 274, 275, 276, 277, 278, 279, 280, 281, 282, 283, 284, 285, 286, 287, 288, 289, 290, 291, 292, 293, 294, 295, 296, 297, 298, 299, 300, 301, 302, 303, 304, 305, 306, 307, 308, 309, 310, 311, 312, 313, 314, 315, 316, 317, 318, 319, 320, 321, 322, 323, 324, 325, 326, 327, 328, 329, 330, 331, 332, 333, 334, 335, 336, 337, 338, 339, 340, 341, 342, 343, 344, 345, 346, 347, 348, 349, 350, 351, 352, 353, 354, 355, 356, 357, 358, 359, 360, 361, 362, 363, 364, 365, 366, 367, 368, 369, 370, 371, 372, 373, 374, 375, 376, 377, 378, 379, 380, 381, 382, 383, 384, 385, 386, 387, 388, 389, 390, 391, 392, 393, 394, 395, 396, 397, 398, 399, 400, 401, 402, 403, 404, 405, 406, 407, 408, 409, 410, 411, 412, 413, 414, 415, 416, 417, 418, 419, 420, 421, 422, 423, 424, 425, 426, 427, 428, 429, 430, 431, 432, 433, 434, 435, 436, 437, 438, 439, 440, 441, 442, 443, 444, 445],
      "AcquisitionTime": ["173216.815000", "173218.305000", "173219.795000", "173221.285000", "173222.775000", "173224.265000", "173225.755000", "173227.245000", "173228.735000", "173230.225000", "173231.715000", "173233.205000", "173234.695000", "173236.185000", "173237.675000", "173239.165000", "173240.655000", "173242.145000", "173243.635000", "173245.125000", "173246.615000", "173248.105000", "173249.595000", "173251.085000", "173252.575000", "173254.065000", "173255.555000", "173257.045000", "173258.535000", "173300.025000", "173301.515000", "173303.005000", "173304.495000", "173305.985000", "173307.475000", "173308.965000", "173310.455000", "173311.945000", "173313.435000", "173314.925000", "173316.415000", "173317.905000", "173319.395000", "173320.885000", "173322.375000", "173323.865000", "173325.355000", "173326.845000", "173328.335000", "173329.825000", "173331.315000", "173332.805000", "173334.295000", "173335.785000", "173337.275000", "173338.765000", "173340.255000", "173341.745000", "173343.235000", "173344.725000", "173346.215000", "173347.705000", "173349.195000", "173350.685000", "173352.175000", "173353.665000", "173355.155000", "173356.645000", "173358.135000", "173359.625000", "173401.115000", "173402.605000", "173404.095000", "173405.585000", "173407.075000", "173408.565000", "173410.055000", "173411.545000", "173413.035000", "173414.525000", "173416.015000", "173417.505000", "173418.995000", "173420.485000", "173421.975000", "173423.465000", "173424.955000", "173426.445000", "173427.935000", "173429.425000", "173430.915000", "173432.405000", "173433.895000", "173435.385000", "173436.875000", "173438.365000", "173439.855000", "173441.345000", "173442.835000", "173444.325000", "173445.815000", "173447.305000", "173448.795000", "173450.285000", "173451.775000", "173453.265000", "173454.755000", "173456.245000", "173457.735000", "173459.225000", "173500.715000", "173502.205000", "173503.695000", "173505.185000", "173506.675000", "173508.165000", "173509.655000", "173511.145000", "173512.635000", "173514.125000", "173515.615000", "173517.105000", "173518.595000", "173520.085000", "173521.575000", "173523.065000", "173524.555000", "173526.045000", "173527.535000", "173529.025000", "173530.515000", "173532.005000", "173533.495000", "173534.985000", "173536.475000", "173537.965000", "173539.455000", "173540.945000", "173542.435000", "173543.925000", "173545.415000", "173546.905000", "173548.395000", "173549.885000", "173551.375000", "173552.865000", "173554.355000", "173555.845000", "173557.335000", "173558.825000", "173600.315000", "173601.805000", "173603.295000", "173604.785000", "173606.275000", "173607.765000", "173609.255000", "173610.745000", "173612.235000", "173613.725000", "173615.215000", "173616.705000", "173618.195000", "173619.685000", "173621.175000", "173622.665000", "173624.155000", "173625.645000", "173627.135000", "173628.625000", "173630.115000", "173631.605000", "173633.095000", "173634.585000", "173636.075000", "173637.565000", "173639.055000", "173640.545000", "173642.035000", "173643.525000", "173645.015000", "173646.505000", "173647.995000", "173649.485000", "173650.975000", "173652.465000", "173653.955000", "173655.445000", "173656.935000", "173658.425000", "173659.915000", "173701.405000", "173702.895000", "173704.385000", "173705.875000", "173707.365000", "173708.855000", "173710.345000", "173711.835000", "173713.325000", "173714.815000", "173716.305000", "173717.795000", "173719.285000", "173720.775000", "173722.265000", "173723.755000", "173725.245000", "173726.735000", "173728.225000", "173729.715000", "173731.205000", "173732.695000", "173734.185000", "173735.675000", "173737.165000", "173738.655000", "173740.145000", "173741.635000", "173743.125000", "173744.615000", "173746.105000", "173747.595000", "173749.085000", "173750.575000", "173752.065000", "173753.555000", "173755.045000", "173756.535000", "173758.025000", "173759.515000", "173801.005000", "173802.495000", "173803.985000", "173805.475000", "173806.965000", "173808.455000", "173809.945000", "173811.435000", "173812.925000", "173814.415000", "173815.905000", "173817.395000", "173818.885000", "173820.375000", "173821.865000", "173823.355000", "173824.845000", "173826.335000", "173827.825000", "173829.315000", "173830.805000", "173832.295000", "173833.785000", "173835.275000", "173836.765000", "173838.255000", "173839.745000", "173841.235000", "173842.725000", "173844.215000", "173845.705000", "173847.195000", "173848.685000", "173850.175000", "173851.665000", "173853.155000", "173854.645000", "173856.135000", "173857.625000", "173859.115000", "173900.605000", "173902.095000", "173903.585000", "173905.075000", "173906.565000", "173908.055000", "173909.545000", "173911.035000", "173912.525000", "173914.015000", "173915.505000", "173916.995000", "173918.485000", "173919.975000", "173921.465000", "173922.955000", "173924.445000", "173925.935000", "173927.425000", "173928.915000", "173930.405000", "173931.895000", "173933.385000", "173934.875000", "173936.365000", "173937.855000", "173939.345000", "173940.835000", "173942.325000", "173943.815000", "173945.305000", "173946.795000", "173948.285000", "173949.775000", "173951.265000", "173952.755000", "173954.245000", "173955.735000", "173957.225000", "173958.715000", "174000.205000", "174001.695000", "174003.185000", "174004.675000", "174006.165000", "174007.655000", "174009.145000", "174010.635000", "174012.125000", "174013.615000", "174015.105000", "174016.595000", "174018.085000", "174019.575000", "174021.065000", "174022.555000", "174024.045000", "174025.535000", "174027.025000", "174028.515000", "174030.005000", "174031.495000", "174032.985000", "174034.475000", "174035.965000", "174037.455000", "174038.945000", "174040.435000", "174041.925000", "174043.415000", "174044.905000", "174046.395000", "174047.885000", "174049.375000", "174050.865000", "174052.355000", "174053.845000", "174055.335000", "174056.825000", "174058.315000", "174059.805000", "174101.295000", "174102.785000", "174104.275000", "174105.765000", "174107.255000", "174108.745000", "174110.235000", "174111.725000", "174113.215000", "174114.705000", "174116.195000", "174117.685000", "174119.175000", "174120.665000", "174122.155000", "174123.645000", "174125.135000", "174126.625000", "174128.115000", "174129.605000", "174131.095000", "174132.585000", "174134.075000", "174135.565000", "174137.055000", "174138.545000", "174140.035000", "174141.525000", "174143.015000", "174144.505000", "174145.995000", "174147.485000", "174148.975000", "174150.465000", "174151.955000", "174153.445000", "174154.935000", "174156.425000", "174157.915000", "174159.405000", "174200.895000", "174202.385000", "174203.875000", "174205.365000", "174206.855000", "174208.345000", "174209.835000", "174211.325000", "174212.815000", "174214.305000", "174215.795000", "174217.285000", "174218.775000", "174220.265000", "174221.755000", "174223.245000", "174224.735000", "174226.225000", "174227.715000", "174229.205000", "174230.695000", "174232.185000", "174233.675000", "174235.165000", "174236.655000", "174238.145000", "174239.635000", "174241.125000", "174242.615000", "174244.105000", "174245.595000", "174247.085000", "174248.575000", "174250.065000", "174251.555000", "174253.045000", "174254.535000", "174256.025000", "174257.515000", "174259.005000", "174300.495000", "174301.985000", "174303.475000", "174304.965000", "174306.455000", "174307.945000", "174309.435000", "174310.925000", "174312.415000", "174313.905000", "174315.395000", "174316.885000", "174318.375000"],
      "ContentTime": ["173329.442000", "173329.445000", "173329.448000", "173329.450000", "173329.453000", "173329.455000", "173329.458000", "173329.460000", "173329.463000", "173329.474000", "173329.477000", "173329.479000", "173329.482000", "173329.484000", "173329.487000", "173329.489000", "173329.492000", "173329.494000", "173329.497000", "173329.499000", "173329.502000", "173329.504000", "173329.507000", "173329.509000", "173349.389000", "173349.391000", "173349.394000", "173349.396000", "173349.399000", "173349.401000", "173349.404000", "173349.406000", "173349.409000", "173349.411000", "173349.414000", "173349.416000", "173349.419000", "173349.421000", "173349.424000", "173349.426000", "173349.429000", "173349.431000", "173349.434000", "173349.436000", "173409.399000", "173409.402000", "173409.404000", "173409.407000", "173409.418000", "173409.420000", "173409.423000", "173409.425000", "173409.428000", "173409.430000", "173409.433000", "173409.436000", "173409.438000", "173409.441000", "173409.443000", "173409.446000", "173409.448000", "173409.451000", "173409.453000", "173409.456000", "173429.409000", "173429.412000", "173429.415000", "173429.425000", "173429.427000", "173429.430000", "173429.432000", "173429.435000", "173429.437000", "173429.440000", "173429.442000", "173429.445000", "173429.447000", "173429.450000", "173429.452000", "173429.455000", "173429.457000", "173429.460000", "173429.462000", "173429.465000", "173509.427000", "173509.430000", "173509.433000", "173509.435000", "173509.438000", "173509.440000", "173509.443000", "173509.445000", "173509.448000", "173509.450000", "173509.453000", "173509.455000", "173509.458000", "173509.460000", "173509.463000", "173509.465000", "173509.468000", "173509.470000", "173509.473000", "173509.475000", "173509.478000", "173509.480000", "173509.483000", "173509.485000", "173509.487000", "173509.490000", "173509.492000", "173509.495000", "173509.497000", "173509.500000", "173509.502000", "173549.442000", "173549.444000", "173549.447000", "173549.449000", "173549.452000", "173549.454000", "173549.457000", "173549.459000", "173549.462000", "173549.464000", "173549.467000", "173549.469000", "173549.472000", "173549.474000", "173549.477000", "173549.479000", "173549.482000", "173549.484000", "173549.487000", "173549.489000", "173549.492000", "173549.494000", "173549.497000", "173549.499000", "173549.502000", "173549.504000", "173629.409000", "173629.412000", "173629.414000", "173629.417000", "173629.419000", "173629.422000", "173629.424000", "173629.427000", "173629.429000", "173629.432000", "173629.435000", "173629.438000", "173629.440000", "173629.443000", "173629.445000", "173629.448000", "173629.450000", "173629.453000", "173629.455000", "173629.458000", "173629.460000", "173629.463000", "173629.465000", "173629.467000", "173629.470000", "173629.472000", "173629.485000", "173709.451000", "173709.454000", "173709.456000", "173709.459000", "173709.461000", "173709.464000", "173709.466000", "173709.469000", "173709.471000", "173709.474000", "173709.476000", "173709.479000", "173709.481000", "173709.484000", "173709.486000", "173709.489000", "173709.491000", "173709.493000", "173709.496000", "173709.498000", "173709.501000", "173709.503000", "173709.506000", "173709.508000", "173709.511000", "173709.513000", "173709.516000", "173749.424000", "173749.427000", "173749.430000", "173749.432000", "173749.435000", "173749.437000", "173749.440000", "173749.442000", "173749.445000", "173749.447000", "173749.450000", "173749.452000", "173749.455000", "173749.458000", "173749.460000", "173749.463000", "173749.466000", "173749.468000", "173749.470000", "173749.473000", "173749.476000", "173749.478000", "173749.481000", "173749.483000", "173749.486000", "173749.488000", "173749.491000", "173830.027000", "173830.029000", "173830.032000", "173830.034000", "173830.037000", "173830.039000", "173830.042000", "173830.044000", "173830.047000", "173830.050000", "173830.052000", "173830.055000", "173830.057000", "173830.070000", "173830.072000", "173830.075000", "173830.077000", "173830.080000", "173830.082000", "173830.085000", "173830.087000", "173830.090000", "173830.092000", "173830.095000", "173830.097000", "173830.100000", "173830.102000", "173909.424000", "173909.426000", "173909.429000", "173909.432000", "173909.434000", "173909.437000", "173909.439000", "173909.442000", "173909.444000", "173909.446000", "173909.449000", "173909.451000", "173909.454000", "173909.456000", "173909.459000", "173909.461000", "173909.464000", "173909.466000", "173909.469000", "173909.471000", "173909.474000", "173909.476000", "173909.479000", "173909.481000", "173909.484000", "173909.486000", "173909.489000", "173949.420000", "173949.423000", "173949.426000", "173949.429000", "173949.431000", "173949.434000", "173949.436000", "173949.439000", "173949.441000", "173949.444000", "173949.446000", "173949.448000", "173949.451000", "173949.453000", "173949.456000", "173949.458000", "173949.461000", "173949.463000", "173949.466000", "173949.468000", "173949.471000", "173949.473000", "173949.476000", "173949.478000", "173949.481000", "173949.483000", "173949.486000", "174029.412000", "174029.415000", "174029.417000", "174029.420000", "174029.422000", "174029.425000", "174029.427000", "174029.430000", "174029.432000", "174029.435000", "174029.437000", "174029.440000", "174029.442000", "174029.444000", "174029.447000", "174029.450000", "174029.453000", "174029.456000", "174029.459000", "174029.462000", "174029.464000", "174029.467000", "174029.469000", "174029.472000", "174029.474000", "174029.477000", "174109.420000", "174109.423000", "174109.425000", "174109.428000", "174109.430000", "174109.433000", "174109.435000", "174109.438000", "174109.440000", "174109.443000", "174109.445000", "174109.448000", "174109.450000", "174109.453000", "174109.455000", "174109.458000", "174109.460000", "174109.463000", "174109.465000", "174109.468000", "174109.470000", "174109.472000", "174109.475000", "174109.477000", "174109.480000", "174109.482000", "174109.485000", "174149.423000", "174149.425000", "174149.428000", "174149.430000", "174149.433000", "174149.435000", "174149.438000", "174149.441000", "174149.443000", "174149.446000", "174149.448000", "174149.451000", "174149.453000", "174149.455000", "174149.458000", "174149.460000", "174149.463000", "174149.465000", "174149.468000", "174149.470000", "174149.473000", "174149.475000", "174149.478000", "174149.480000", "174149.483000", "174149.486000", "174149.488000", "174229.431000", "174229.434000", "174229.436000", "174229.439000", "174229.441000", "174229.444000", "174229.446000", "174229.448000", "174229.451000", "174229.453000", "174229.456000", "174229.458000", "174229.461000", "174229.463000", "174229.466000", "174229.468000", "174229.471000", "174229.473000", "174229.476000", "174229.478000", "174229.481000", "174229.483000", "174229.486000", "174229.488000", "174229.491000", "174229.493000", "174229.496000", "174309.423000", "174309.426000", "174309.428000", "174309.431000", "174309.433000", "174309.436000", "174309.438000", "174309.441000", "174309.443000", "174309.445000", "174309.448000", "174309.450000", "174309.453000", "174309.456000", "174309.458000", "174309.461000", "174309.463000", "174309.465000", "174309.469000", "174309.471000", "174309.474000", "174309.476000", "174309.478000", "174309.481000", "174309.483000", "174309.486000", "174309.489000", "174321.965000", "174321.967000", "174321.970000", "174321.972000", "174321.975000", "174321.977000", "174321.980000", "174321.982000"],
