{
  "AcquisitionMatrixPE": 104,
  "AcquisitionNumber": 1,
  "AcquisitionTime": "18:52:51.210000",
  "BandwidthPerPixelPhaseEncode": 17.17,
  "BaseResolution": 104,
  "BodyPartExamined": "BRAIN",
  "CoilCombinationMethod": "Sum of Squares",
  "ConsistencyInfo": "N4_VE11C_LATEST_20160120",
  "ConversionSoftware": "dcm2niix",
  "ConversionSoftwareVersion": "v1.0.20220505",
  "DerivedVendorReportedEchoSpacing": 0.000560011,
  "DeviceSerialNumber": "167006",
  "DwellTime": 2.1e-06,
  "EchoTime": 0.037,
  "EchoTrainLength": 104,
  "EffectiveEchoSpacing": 0.000560011,
  "FlipAngle": 52,
  "HeudiconvVersion": "0.5.3.post811+g6206e14",
  "ImageComments": "Unaliased MB4/PE3/LB",
  "ImageOrientationPatientDICOM": [0.999494, -0.0310227, 0.00704329, 0.0314103, 0.927296, -0.373009],
  "ImageOrientationText": "Tra>Cor(-21.9)>Sag(-0.3)",
  "ImageType": [
    "ORIGINAL",
    "PRIMARY",
    "M",
    "MB",
    "ND",
    "MOSAIC"
],
  "ImagingFrequency": 123.26,
  "InPlanePhaseEncodingDirectionDICOM": "COL",
  "InstitutionAddress": "Chemin Queen-Mary 4565,Montreal,District,CA,H3W 1W5",
  "InstitutionName": "IUGM",
  "InstitutionalDepartmentName": "Department",
  "MRAcquisitionType": "2D",
  "MagneticFieldStrength": 3,
  "Manufacturer": "Siemens",
  "ManufacturersModelName": "Prisma_fit",
  "MatrixCoilMode": "SENSE",
  "Modality": "MR",
  "MultibandAccelerationFactor": 4,
  "PartialFourier": 1,
  "PatientPosition": "HFS",
  "PercentPhaseFOV": 100,
  "PercentSampling": 100,
  "PhaseEncodingDirection": "j",
  "PhaseEncodingSteps": 104,
  "PhaseResolution": 1,
  "PixelBandwidth": 2290,
  "ProcedureStepDescription": "games^mariostars",
  "ProtocolName": "func_task-mariostars_run-07",
  "PulseSequenceDetails": "%CustomerSeq%\\cmrr_mbep2d_bold",
  "ReceiveCoilActiveElements": "HC1-7;NC1,2",
  "ReceiveCoilName": "HeadNeck_64",
  "ReconMatrixPE": 104,
  "RepetitionTime": 1.49,
  "SAR": 0.0558584,
  "ScanOptions": "FS",
  "ScanningSequence": "EP",
  "SequenceName": "epfid2d1_104",
  "SequenceVariant": "SK\\SS",
  "SeriesDescription": "func_task-mariostars_run-07",
  "SeriesNumber": 29,
  "ShimSetting": [601, -7251, -8798, 458, 24, -310, 15, 44],
  "SliceThickness": 2,
  "SliceTiming": [0, 0.7825, 0.0975, 0.8825, 0.195, 0.98, 0.2925, 1.0775, 0.3925, 1.175, 0.49, 1.2725, 0.5875, 1.3725, 0.685, 0, 0.7825, 0.0975, 0.8825, 0.195, 0.98, 0.2925, 1.0775, 0.3925, 1.175, 0.49, 1.2725, 0.5875, 1.3725, 0.685, 0, 0.7825, 0.0975, 0.8825, 0.195, 0.98, 0.2925, 1.0775, 0.3925, 1.175, 0.49, 1.2725, 0.5875, 1.3725, 0.685, 0, 0.7825, 0.0975, 0.8825, 0.195, 0.98, 0.2925, 1.0775, 0.3925, 1.175, 0.49, 1.2725, 0.5875, 1.3725, 0.685],
  "SoftwareVersions": "syngo MR E11",
  "SpacingBetweenSlices": 2,
  "StationName": "MRC35049",
  "TaskName": "mariostars",
  "TotalReadoutTime": 0.0576811,
  "TxRefAmp": 265.677,
  "WipMemBlock": "18497a0b-a1ee-4c19-a082-c4edf4979337||Sequence: R017 ve11c/master r/75a17815+; Jun 28 2022 16:32:11 by eja",
  "dcmmeta_affine": [
    [-1.9989876747131348, 0.0628206878900528, -0.010081109590828419, 101.20454406738281],
    [0.06204543262720108, 1.8545914888381958, -0.7460837960243225, -70.80105590820312],
    [0.014086578041315079, 0.7460188865661621, 1.8556016683578491, -60.51971435546875],
    [0.0, 0.0, 0.0, 1.0]
],
  "dcmmeta_reorient_transform": [
    [0.0, -1.0, 0.0, 103.0],
    [1.0, 0.0, 0.0, 0.0],
    [0.0, 0.0, 1.0, 0.0],
    [0.0, 0.0, 0.0, 1.0]
],
  "dcmmeta_shape": [104, 104, 60, 486],
  "dcmmeta_slice_dim": 2,
  "dcmmeta_version": 0.6,
  "global": {
    "const": {
      "AcquisitionMatrix": [104, 0, 0, 104],
      "AngioFlag": "N",
      "BitsAllocated": 16,
      "BitsStored": 16,
      "BodyPartExamined": "BRAIN",
      "Columns": 832,
      "EchoNumbers": 1,
      "EchoTime": 37.0,
      "EchoTrainLength": 104,
      "FlipAngle": 52.0,
      "HighBit": 15,
      "ImageOrientationPatient": [0.99949386347216, -0.0310227168068, 0.00704328924709, 0.03141034370572, 0.92729571474294, -0.3730094472365],
      "ImagePositionPatient": [-858.17333881246, -772.70860617617, 282.74359572075],
      "ImageType": [
        "ORIGINAL",
        "PRIMARY",
        "M",
        "MB",
        "ND",
        "MOSAIC"
],
      "ImagedNucleus": "1H",
      "ImagingFrequency": 123.260229,
      "InPlanePhaseEncodingDirection": "COL",
      "MRAcquisitionType": "2D",
      "MagneticFieldStrength": 3.0,
      "Manufacturer": "SIEMENS",
      "ManufacturerModelName": "Prisma_fit",
      "Modality": "MR",
      "NumberOfAverages": 1.0,
      "NumberOfPhaseEncodingSteps": 104,
      "PercentPhaseFieldOfView": 100.0,
      "PercentSampling": 100.0,
      "PerformedProcedureStepStartTime": "170640.569000",
      "PhotometricInterpretation": "MONOCHROME2",
      "PixelBandwidth": 2290.0,
      "PixelRepresentation": 0,
      "PixelSpacing": [2.0, 2.0],
      "ProtocolName": "func_task-mariostars_run-07",
      "RepetitionTime": 1490.0,
      "Rows": 832,
      "SAR": 0.05585841049676,
      "SamplesPerPixel": 1,
      "ScanOptions": "FS",
      "ScanningSequence": "EP",
      "SequenceName": "epfid2d1_104",
      "SequenceVariant": [
        "SK",
        "SS"
],
      "SeriesDescription": "func_task-mariostars_run-07",
      "SeriesNumber": 29,
      "SeriesTime": "185409.317000",
      "SliceLocation": -30.248607680883,
      "SliceThickness": 2.0,
      "SmallestImagePixelValue": 0,
      "SoftwareVersions": "syngo MR E11",
      "SpacingBetweenSlices": 2.0000000346351,
      "SpecificCharacterSet": "ISO_IR 100",
      "StudyID": "1",
      "StudyTime": "170640.493000",
      "TransmitCoilName": "Body",
      "VariableFlipAngleFlag": "N",
      "WindowCenterWidthExplanation": "Algo1",
      "dBdt": 0.0},
    "slices": {}
  },
  "time": {
    "samples": {
      "AcquisitionNumber": [1, 2, 3, 4, 5, 6, 7, 8, 9, 10, 11, 12, 13, 14, 15, 16, 17, 18, 19, 20, 21, 22, 23, 24, 25, 26, 27, 28, 29, 30, 31, 32, 33, 34, 35, 36, 37, 38, 39, 40, 41, 42, 43, 44, 45, 46, 47, 48, 49, 50, 51, 52, 53, 54, 55, 56, 57, 58, 59, 60, 61, 62, 63, 64, 65, 66, 67, 68, 69, 70, 71, 72, 73, 74, 75, 76, 77, 78, 79, 80, 81, 82, 83, 84, 85, 86, 87, 88, 89, 90, 91, 92, 93, 94, 95, 96, 97, 98, 99, 100, 101, 102, 103, 104, 105, 106, 107, 108, 109, 110, 111, 112, 113, 114, 115, 116, 117, 118, 119, 120, 121, 122, 123, 124, 125, 126, 127, 128, 129, 130, 131, 132, 133, 134, 135, 136, 137, 138, 139, 140, 141, 142, 143, 144, 145, 146, 147, 148, 149, 150, 151, 152, 153, 154, 155, 156, 157, 158, 159, 160, 161, 162, 163, 164, 165, 166, 167, 168, 169, 170, 171, 172, 173, 174, 175, 176, 177, 178, 179, 180, 181, 182, 183, 184, 185, 186, 187, 188, 189, 190, 191, 192, 193, 194, 195, 196, 197, 198, 199, 200, 201, 202, 203, 204, 205, 206, 207, 208, 209, 210, 211, 212, 213, 214, 215, 216, 217, 218, 219, 220, 221, 222, 223, 224, 225, 226, 227, 228, 229, 230, 231, 232, 233, 234, 235, 236, 237, 238, 239, 240, 241, 242, 243, 244, 245, 246, 247, 248, 249, 250, 251, 252, 253, 254, 255, 256, 257, 258, 259, 260, 261, 262, 263, 264, 265, 266, 267, 268, 269, 270, 271, 272, 273, 274, 275, 276, 277, 278, 279, 280, 281, 282, 283, 284, 285, 286, 287, 288, 289, 290, 291, 292, 293, 294, 295, 296, 297, 298, 299, 300, 301, 302, 303, 304, 305, 306, 307, 308, 309, 310, 311, 312, 313, 314, 315, 316, 317, 318, 319, 320, 321, 322, 323, 324, 325, 326, 327, 328, 329, 330, 331, 332, 333, 334, 335, 336, 337, 338, 339, 340, 341, 342, 343, 344, 345, 346, 347, 348, 349, 350, 351, 352, 353, 354, 355, 356, 357, 358, 359, 360, 361, 362, 363, 364, 365, 366, 367, 368, 369, 370, 371, 372, 373, 374, 375, 376, 377, 378, 379, 380, 381, 382, 383, 384, 385, 386, 387, 388, 389, 390, 391, 392, 393, 394, 395, 396, 397, 398, 399, 400, 401, 402, 403, 404, 405, 406, 407, 408, 409, 410, 411, 412, 413, 414, 415, 416, 417, 418, 419, 420, 421, 422, 423, 424, 425, 426, 427, 428, 429, 430, 431, 432, 433, 434, 435, 436, 437, 438, 439, 440, 441, 442, 443, 444, 445, 446, 447, 448, 449, 450, 451, 452, 453, 454, 455, 456, 457, 458, 459, 460, 461, 462, 463, 464, 465, 466, 467, 468, 469, 470, 471, 472, 473, 474, 475, 476, 477, 478, 479, 480, 481, 482, 483, 484, 485, 486],
      "AcquisitionTime": ["185251.210000", "185252.700000", "185254.190000", "185255.680000", "185257.170000", "185258.660000", "185300.150000", "185301.640000", "185303.130000", "185304.620000", "185306.110000", "185307.600000", "185309.090000", "185310.580000", "185312.070000", "185313.560000", "185315.050000", "185316.540000", "185318.030000", "185319.520000", "185321.010000", "185322.500000", "185323.990000", "185325.480000", "185326.970000", "185328.460000", "185329.950000", "185331.440000", "185332.930000", "185334.420000", "185335.910000", "185337.400000", "185338.890000", "185340.380000", "185341.870000", "185343.360000", "185344.850000", "185346.340000", "185347.830000", "185349.320000", "185350.810000", "185352.300000", "185353.790000", "185355.280000", "185356.770000", "185358.260000", "185359.750000", "185401.240000", "185402.730000", "185404.220000", "185405.710000", "185407.200000", "185408.690000", "185410.180000", "185411.670000", "185413.160000", "185414.650000", "185416.140000", "185417.630000", "185419.120000", "185420.610000", "185422.100000", "185423.590000", "185425.080000", "185426.570000", "185428.060000", "185429.550000", "185431.040000", "185432.530000", "185434.020000", "185435.510000", "185437.000000", "185438.490000", "185439.980000", "185441.470000", "185442.960000", "185444.450000", "185445.940000", "185447.430000", "185448.920000", "185450.410000", "185451.900000", "185453.390000", "185454.880000", "185456.370000", "185457.860000", "185459.350000", "185500.840000", "185502.330000", "185503.820000", "185505.310000", "185506.800000", "185508.290000", "185509.780000", "185511.270000", "185512.760000", "185514.250000", "185515.740000", "185517.230000", "185518.720000", "185520.210000", "185521.700000", "185523.190000", "185524.680000", "185526.170000", "185527.660000", "185529.150000", "185530.640000", "185532.130000", "185533.620000", "185535.110000", "185536.600000", "185538.090000", "185539.580000", "185541.070000", "185542.560000", "185544.050000", "185545.540000", "185547.030000", "185548.520000", "185550.010000", "185551.500000", "185552.990000", "185554.480000", "185555.970000", "185557.460000", "185558.950000", "185600.440000", "185601.930000", "185603.420000", "185604.910000", "185606.400000", "185607.890000", "185609.380000", "185610.870000", "185612.360000", "185613.850000", "185615.340000", "185616.830000", "185618.320000", "185619.810000", "185621.300000", "185622.790000", "185624.280000", "185625.770000", "185627.260000", "185628.750000", "185630.240000", "185631.730000", "185633.220000", "185634.710000", "185636.200000", "185637.690000", "185639.180000", "185640.670000", "185642.160000", "185643.650000", "185645.140000", "185646.630000", "185648.120000", "185649.610000", "185651.100000", "185652.590000", "185654.080000", "185655.570000", "185657.060000", "185658.550000", "185700.040000", "185701.530000", "185703.020000", "185704.510000", "185706.000000", "185707.490000", "185708.980000", "185710.470000", "185711.960000", "185713.450000", "185714.940000", "185716.430000", "185717.920000", "185719.410000", "185720.900000", "185722.390000", "185723.880000", "185725.370000", "185726.860000", "185728.350000", "185729.840000", "185731.330000", "185732.820000", "185734.310000", "185735.800000", "185737.290000", "185738.780000", "185740.270000", "185741.760000", "185743.250000", "185744.740000", "185746.230000", "185747.720000", "185749.210000", "185750.700000", "185752.190000", "185753.680000", "185755.170000", "185756.660000", "185758.150000", "185759.640000", "185801.130000", "185802.620000", "185804.110000", "185805.600000", "185807.090000", "185808.580000", "185810.070000", "185811.560000", "185813.050000", "185814.540000", "185816.030000", "185817.520000", "185819.010000", "185820.500000", "185821.990000", "185823.480000", "185824.970000", "185826.460000", "185827.950000", "185829.440000", "185830.930000", "185832.420000", "185833.910000", "185835.400000", "185836.890000", "185838.380000", "185839.870000", "185841.360000", "185842.850000", "185844.340000", "185845.830000", "185847.320000", "185848.810000", "185850.300000", "185851.790000", "185853.280000", "185854.770000", "185856.260000", "185857.750000", "185859.240000", "185900.730000", "185902.220000", "185903.710000", "185905.200000", "185906.690000", "185908.180000", "185909.670000", "185911.160000", "185912.650000", "185914.140000", "185915.630000", "185917.120000", "185918.610000", "185920.100000", "185921.590000", "185923.080000", "185924.570000", "185926.060000", "185927.550000", "185929.040000", "185930.530000", "185932.020000", "185933.510000", "185935.000000", "185936.490000", "185937.980000", "185939.470000", "185940.960000", "185942.450000", "185943.940000", "185945.430000", "185946.920000", "185948.410000", "185949.900000", "185951.390000", "185952.880000", "185954.370000", "185955.860000", "185957.350000", "185958.840000", "190000.330000", "190001.820000", "190003.310000", "190004.800000", "190006.290000", "190007.780000", "190009.270000", "190010.760000", "190012.250000", "190013.740000", "190015.230000", "190016.720000", "190018.210000", "190019.700000", "190021.190000", "190022.680000", "190024.170000", "190025.660000", "190027.150000", "190028.640000", "190030.130000", "190031.620000", "190033.110000", "190034.600000", "190036.090000", "190037.580000", "190039.070000", "190040.560000", "190042.050000", "190043.540000", "190045.030000", "190046.520000", "190048.010000", "190049.500000", "190050.990000", "190052.480000", "190053.970000", "190055.460000", "190056.950000", "190058.440000", "190059.930000", "190101.420000", "190102.910000", "190104.400000", "190105.890000", "190107.380000", "190108.870000", "190110.360000", "190111.850000", "190113.340000", "190114.830000", "190116.320000", "190117.810000", "190119.300000", "190120.790000", "190122.280000", "190123.770000", "190125.260000", "190126.750000", "190128.240000", "190129.730000", "190131.220000", "190132.710000", "190134.200000", "190135.690000", "190137.180000", "190138.670000", "190140.160000", "190141.650000", "190143.140000", "190144.630000", "190146.120000", "190147.610000", "190149.100000", "190150.590000", "190152.080000", "190153.570000", "190155.060000", "190156.550000", "190158.040000", "190159.530000", "190201.020000", "190202.510000", "190204.000000", "190205.490000", "190206.980000", "190208.470000", "190209.960000", "190211.450000", "190212.940000", "190214.430000", "190215.920000", "190217.410000", "190218.900000", "190220.390000", "190221.880000", "190223.370000", "190224.860000", "190226.350000", "190227.840000", "190229.330000", "190230.820000", "190232.310000", "190233.800000", "190235.290000", "190236.780000", "190238.270000", "190239.760000", "190241.250000", "190242.740000", "190244.230000", "190245.720000", "190247.210000", "190248.700000", "190250.190000", "190251.680000", "190253.170000", "190254.660000", "190256.150000", "190257.640000", "190259.130000", "190300.620000", "190302.110000", "190303.600000", "190305.090000", "190306.580000", "190308.070000", "190309.560000", "190311.050000", "190312.540000", "190314.030000", "190315.520000", "190317.010000", "190318.500000", "190319.990000", "190321.480000", "190322.970000", "190324.460000", "190325.950000", "190327.440000", "190328.930000", "190330.420000", "190331.910000", "190333.400000", "190334.890000", "190336.380000", "190337.870000", "190339.360000", "190340.850000", "190342.340000", "190343.830000", "190345.320000", "190346.810000", "190348.300000", "190349.790000", "190351.280000", "190352.770000", "190354.260000", "190355.750000", "190357.240000", "190358.730000", "190400.220000", "190401.710000", "190403.200000", "190404.690000", "190406.180000", "190407.670000", "190409.160000", "190410.650000", "190412.140000", "190413.630000", "190415.120000", "190416.610000", "190418.100000", "190419.590000", "190421.080000", "190422.570000", "190424.060000", "190425.550000", "190427.040000", "190428.530000", "190430.020000", "190431.510000", "190433.000000", "190434.490000", "190435.980000", "190437.470000", "190438.960000", "190440.450000", "190441.940000", "190443.430000", "190444.920000", "190446.410000", "190447.900000", "190449.390000", "190450.880000", "190452.370000", "190453.860000"],
      "ContentTime": ["185409.320000", "185409.323000", "185409.327000", "185409.330000", "185409.333000", "185409.336000", "185409.340000", "185409.343000", "185409.346000", "185409.349000", "185409.353000", "185409.356000", "185409.359000", "185409.363000", "185409.366000", "185409.369000", "185409.372000", "185409.376000", "185409.379000", "185409.382000", "185409.385000", "185409.389000", "185409.392000", "185409.395000", "185409.399000", "185409.407000", "185409.410000", "185409.413000", "185409.433000", "185429.281000", "185429.285000", "185429.288000", "185429.292000", "185429.295000", "185429.298000", "185429.301000", "185429.305000", "185429.308000", "185429.311000", "185429.315000", "185429.318000", "185429.321000", "185429.324000", "185429.328000", "185429.331000", "185429.334000", "185429.338000", "185429.341000", "185429.344000", "185449.281000", "185449.285000", "185449.288000", "185449.291000", "185449.295000", "185449.298000", "185449.301000", "185449.313000", "185449.316000", "185449.319000", "185449.323000", "185449.326000", "185449.329000", "185449.332000", "185449.336000", "185449.339000", "185449.342000", "185449.346000", "185449.349000", "185449.352000", "185509.281000", "185509.285000", "185509.288000", "185509.291000", "185509.295000", "185509.298000", "185509.301000", "185509.305000", "185509.308000", "185509.311000", "185509.314000", "185509.318000", "185509.321000", "185509.324000", "185509.328000", "185509.331000", "185509.334000", "185509.337000", "185509.341000", "185509.344000", "185549.280000", "185549.284000", "185549.287000", "185549.291000", "185549.294000", "185549.297000", "185549.301000", "185549.304000", "185549.307000", "185549.311000", "185549.314000", "185549.317000", "185549.321000", "185549.324000", "185549.327000", "185549.330000", "185549.334000", "185549.337000", "185549.340000", "185549.344000", "185549.347000", "185549.350000", "185549.353000", "185549.357000", "185549.360000", "185549.363000", "185549.366000", "185549.370000", "185549.373000", "185549.376000", "185629.280000", "185629.284000", "185629.287000", "185629.291000", "185629.294000", "185629.297000", "185629.300000", "185629.304000", "185629.307000", "185629.310000", "185629.314000", "185629.317000", "185629.320000", "185629.324000", "185629.327000", "185629.330000", "185629.333000", "185629.337000", "185629.340000", "185629.343000", "185629.347000", "185629.350000", "185629.354000", "185629.357000", "185629.360000", "185629.364000", "185629.367000", "185709.281000", "185709.285000", "185709.288000", "185709.292000", "185709.295000", "185709.298000", "185709.301000", "185709.305000", "185709.308000", "185709.311000", "185709.315000", "185709.318000", "185709.321000", "185709.324000", "185709.328000", "185709.331000", "185709.334000", "185709.337000", "185709.341000", "185709.344000", "185709.347000", "185709.351000", "185709.354000", "185709.357000", "185709.366000", "185709.370000", "185749.280000", "185749.284000", "185749.287000", "185749.290000", "185749.294000", "185749.297000", "185749.300000", "185749.304000", "185749.307000", "185749.310000", "185749.314000", "185749.317000", "185749.320000", "185749.324000", "185749.327000", "185749.330000", "185749.334000", "185749.337000", "185749.340000", "185749.344000", "185749.347000", "185749.350000", "185749.354000", "185749.357000", "185749.360000", "185749.364000", "185749.367000", "185829.280000", "185829.284000", "185829.287000", "185829.291000", "185829.294000", "185829.297000", "185829.301000", "185829.304000", "185829.307000", "185829.311000", "185829.314000", "185829.317000", "185829.321000", "185829.324000", "185829.327000", "185829.331000", "185829.350000", "185829.354000", "185829.357000", "185829.360000", "185829.364000", "185829.367000", "185829.370000", "185829.374000", "185829.377000", "185829.380000", "185829.384000", "185909.281000", "185909.285000", "185909.288000", "185909.292000", "185909.295000", "185909.298000", "185909.302000", "185909.305000", "185909.308000", "185909.312000", "185909.315000", "185909.318000", "185909.322000", "185909.325000", "185909.328000", "185909.332000", "185909.335000", "185909.338000", "185909.342000", "185909.345000", "185909.349000", "185909.352000", "185909.355000", "185909.359000", "185909.362000", "185909.365000", "185909.368000", "185949.280000", "185949.294000", "185949.298000", "185949.301000", "185949.305000", "185949.308000", "185949.312000", "185949.315000", "185949.318000", "185949.322000", "185949.325000", "185949.328000", "185949.332000", "185949.339000", "185949.342000", "185949.346000", "185949.349000", "185949.352000", "185949.356000", "185949.359000", "185949.362000", "185949.366000", "185949.369000", "185949.372000", "185949.376000", "185949.379000", "185949.382000", "190029.280000", "190029.284000", "190029.287000", "190029.291000", "190029.294000", "190029.297000", "190029.301000", "190029.311000", "190029.315000", "190029.318000", "190029.321000", "190029.325000", "190029.328000", "190029.332000", "190029.335000", "190029.338000", "190029.342000", "190029.345000", "190029.348000", "190029.352000", "190029.355000", "190029.359000", "190029.362000", "190029.365000", "190029.369000", "190029.372000", "190029.375000", "190109.280000", "190109.284000", "190109.288000", "190109.291000", "190109.294000", "190109.298000", "190109.301000", "190109.304000", "190109.308000", "190109.311000", "190109.314000", "190109.318000", "190109.321000", "190109.325000", "190109.328000", "190109.331000", "190109.334000", "190109.338000", "190109.341000", "190109.344000", "190109.348000", "190109.351000", "190109.354000", "190109.358000", "190109.361000", "190109.364000", "190149.281000", "190149.285000", "190149.288000", "190149.292000", "190149.295000", "190149.299000", "190149.302000", "190149.307000", "190149.310000", "190149.314000", "190149.317000", "190149.320000", "190149.324000", "190149.327000", "190149.330000", "190149.334000", "190149.337000", "190149.340000", "190149.344000", "190149.347000", "190149.350000", "190149.360000", "190149.363000", "190149.366000", "190149.369000", "190149.373000", "190149.376000", "190229.280000", "190229.284000", "190229.287000", "190229.291000", "190229.294000", "190229.297000", "190229.301000", "190229.304000", "190229.307000", "190229.311000", "190229.314000", "190229.317000", "190229.321000", "190229.324000", "190229.327000", "190229.331000", "190229.334000", "190229.337000", "190229.341000", "190229.344000", "190229.347000", "190229.351000", "190229.354000", "190229.357000", "190229.360000", "190229.364000", "190229.367000", "190309.280000", "190309.284000", "190309.287000", "190309.291000", "190309.294000", "190309.297000", "190309.301000", "190309.304000", "190309.307000", "190309.311000", "190309.327000", "190309.331000", "190309.334000", "190309.337000", "190309.340000", "190309.344000", "190309.347000", "190309.351000", "190309.354000", "190309.357000", "190309.360000", "190309.364000", "190309.367000", "190309.370000", "190309.374000", "190309.377000", "190309.380000", "190349.281000", "190349.285000", "190349.288000", "190349.292000", "190349.295000", "190349.298000", "190349.302000", "190349.305000", "190349.308000", "190349.312000", "190349.315000", "190349.319000", "190349.322000", "190349.326000", "190349.329000", "190349.332000", "190349.336000", "190349.339000", "190349.342000", "190349.346000", "190349.349000", "190349.353000", "190349.356000", "190349.359000", "190349.362000", "190349.366000", "190349.369000", "190429.280000", "190429.284000", "190429.287000", "190429.291000", "190429.294000", "190429.297000", "190429.301000", "190429.304000", "190429.308000", "190429.311000", "190429.314000", "190429.318000", "190429.321000", "190429.324000", "190429.327000", "190429.331000", "190429.334000", "190429.338000", "190429.341000", "190429.344000", "190429.348000", "190429.351000", "190429.354000", "190429.358000", "190429.361000", "190429.364000", "190429.367000", "190456.971000", "190456.974000", "190456.978000", "190456.981000", "190456.985000", "190456.988000", "190456.991000", "190456.995000", "190456.998000", "190457.003000", "190457.006000", "190457.010000", "190457.013000", "190457.016000", "190457.035000", "190457.039000", "190457.042000", "190457.045000"],
