{
  "AcquisitionMatrixPE": 104,
  "AcquisitionNumber": 1,
  "AcquisitionTime": "18:11:27.185000",
  "BandwidthPerPixelPhaseEncode": 17.17,
  "BaseResolution": 104,
  "BodyPartExamined": "BRAIN",
  "CoilCombinationMethod": "Sum of Squares",
  "ConsistencyInfo": "N4_VE11C_LATEST_20160120",
  "ConversionSoftware": "dcm2niix",
  "ConversionSoftwareVersion": "v1.0.20220505",
  "DerivedVendorReportedEchoSpacing": 0.000560011,
  "DeviceSerialNumber": "167006",
  "DwellTime": 2.1e-06,
  "EchoTime": 0.037,
  "EchoTrainLength": 104,
  "EffectiveEchoSpacing": 0.000560011,
  "FlipAngle": 52,
  "HeudiconvVersion": "0.5.3.post811+g6206e14",
  "ImageComments": "Unaliased MB4/PE3/LB",
  "ImageOrientationPatientDICOM": [0.999494, -0.0310227, 0.00704329, 0.0314103, 0.927296, -0.373009],
  "ImageOrientationText": "Tra>Cor(-21.9)>Sag(-0.3)",
  "ImageType": [
    "ORIGINAL",
    "PRIMARY",
    "M",
    "MB",
    "ND",
    "MOSAIC"
],
  "ImagingFrequency": 123.26,
  "InPlanePhaseEncodingDirectionDICOM": "COL",
  "InstitutionAddress": "Chemin Queen-Mary 4565,Montreal,District,CA,H3W 1W5",
  "InstitutionName": "IUGM",
  "InstitutionalDepartmentName": "Department",
  "MRAcquisitionType": "2D",
  "MagneticFieldStrength": 3,
  "Manufacturer": "Siemens",
  "ManufacturersModelName": "Prisma_fit",
  "MatrixCoilMode": "SENSE",
  "Modality": "MR",
  "MultibandAccelerationFactor": 4,
  "PartialFourier": 1,
  "PatientPosition": "HFS",
  "PercentPhaseFOV": 100,
  "PercentSampling": 100,
  "PhaseEncodingDirection": "j",
  "PhaseEncodingSteps": 104,
  "PhaseResolution": 1,
  "PixelBandwidth": 2290,
  "ProcedureStepDescription": "games^mariostars",
  "ProtocolName": "func_task-mariostars_run-04",
  "PulseSequenceDetails": "%CustomerSeq%\\cmrr_mbep2d_bold",
  "ReceiveCoilActiveElements": "HC1-7;NC1,2",
  "ReceiveCoilName": "HeadNeck_64",
  "ReconMatrixPE": 104,
  "RepetitionTime": 1.49,
  "SAR": 0.0558584,
  "ScanOptions": "FS",
  "ScanningSequence": "EP",
  "SequenceName": "epfid2d1_104",
  "SequenceVariant": "SK\\SS",
  "SeriesDescription": "func_task-mariostars_run-04",
  "SeriesNumber": 20,
  "ShimSetting": [601, -7251, -8798, 458, 24, -310, 15, 44],
  "SliceThickness": 2,
  "SliceTiming": [0, 0.785, 0.1, 0.8825, 0.1975, 0.98, 0.295, 1.0775, 0.3925, 1.1775, 0.49, 1.275, 0.59, 1.3725, 0.6875, 0, 0.785, 0.1, 0.8825, 0.1975, 0.98, 0.295, 1.0775, 0.3925, 1.1775, 0.49, 1.275, 0.59, 1.3725, 0.6875, 0, 0.785, 0.1, 0.8825, 0.1975, 0.98, 0.295, 1.0775, 0.3925, 1.1775, 0.49, 1.275, 0.59, 1.3725, 0.6875, 0, 0.785, 0.1, 0.8825, 0.1975, 0.98, 0.295, 1.0775, 0.3925, 1.1775, 0.49, 1.275, 0.59, 1.3725, 0.6875],
  "SoftwareVersions": "syngo MR E11",
  "SpacingBetweenSlices": 2,
  "StationName": "MRC35049",
  "TaskName": "mariostars",
  "TotalReadoutTime": 0.0576811,
  "TxRefAmp": 265.677,
  "WipMemBlock": "fc3d09e9-c141-4911-920d-16b738912236||Sequence: R017 ve11c/master r/75a17815+; Jun 28 2022 16:32:11 by eja",
  "dcmmeta_affine": [
    [-1.9989876747131348, 0.0628206878900528, -0.010081109590828419, 101.20454406738281],
    [0.06204543262720108, 1.8545914888381958, -0.7460837960243225, -70.80105590820312],
    [0.014086578041315079, 0.7460188865661621, 1.8556016683578491, -60.51971435546875],
    [0.0, 0.0, 0.0, 1.0]
],
  "dcmmeta_reorient_transform": [
    [0.0, -1.0, 0.0, 103.0],
    [1.0, 0.0, 0.0, 0.0],
    [0.0, 0.0, 1.0, 0.0],
    [0.0, 0.0, 0.0, 1.0]
],
  "dcmmeta_shape": [104, 104, 60, 434],
  "dcmmeta_slice_dim": 2,
  "dcmmeta_version": 0.6,
  "global": {
    "const": {
      "AcquisitionMatrix": [104, 0, 0, 104],
      "AngioFlag": "N",
      "BitsAllocated": 16,
      "BitsStored": 16,
      "BodyPartExamined": "BRAIN",
      "Columns": 832,
      "EchoNumbers": 1,
      "EchoTime": 37.0,
      "EchoTrainLength": 104,
      "FlipAngle": 52.0,
      "HighBit": 15,
      "ImageOrientationPatient": [0.99949386347216, -0.0310227168068, 0.00704328924709, 0.03141034370572, 0.92729571474294, -0.3730094472365],
      "ImagePositionPatient": [-858.17333881246, -772.70860617617, 282.74359572075],
      "ImageType": [
        "ORIGINAL",
        "PRIMARY",
        "M",
        "MB",
        "ND",
        "MOSAIC"
],
      "ImagedNucleus": "1H",
      "ImagingFrequency": 123.26022,
      "InPlanePhaseEncodingDirection": "COL",
      "MRAcquisitionType": "2D",
      "MagneticFieldStrength": 3.0,
      "Manufacturer": "SIEMENS",
      "ManufacturerModelName": "Prisma_fit",
      "Modality": "MR",
      "NumberOfAverages": 1.0,
      "NumberOfPhaseEncodingSteps": 104,
      "PercentPhaseFieldOfView": 100.0,
      "PercentSampling": 100.0,
      "PerformedProcedureStepStartTime": "170640.569000",
      "PhotometricInterpretation": "MONOCHROME2",
      "PixelBandwidth": 2290.0,
      "PixelRepresentation": 0,
      "PixelSpacing": [2.0, 2.0],
      "ProtocolName": "func_task-mariostars_run-04",
      "RepetitionTime": 1490.0,
      "Rows": 832,
      "SAR": 0.05585841049676,
      "SamplesPerPixel": 1,
      "ScanOptions": "FS",
      "ScanningSequence": "EP",
      "SequenceName": "epfid2d1_104",
      "SequenceVariant": [
        "SK",
        "SS"
],
      "SeriesDescription": "func_task-mariostars_run-04",
      "SeriesNumber": 20,
      "SeriesTime": "181249.314000",
      "SliceLocation": -30.248607680883,
      "SliceThickness": 2.0,
      "SmallestImagePixelValue": 0,
      "SoftwareVersions": "syngo MR E11",
      "SpacingBetweenSlices": 2.0000000346351,
      "SpecificCharacterSet": "ISO_IR 100",
      "StudyID": "1",
      "StudyTime": "170640.493000",
      "TransmitCoilName": "Body",
      "VariableFlipAngleFlag": "N",
      "WindowCenterWidthExplanation": "Algo1",
      "dBdt": 0.0},
    "slices": {}
  },
  "time": {
    "samples": {
      "AcquisitionNumber": [1, 2, 3, 4, 5, 6, 7, 8, 9, 10, 11, 12, 13, 14, 15, 16, 17, 18, 19, 20, 21, 22, 23, 24, 25, 26, 27, 28, 29, 30, 31, 32, 33, 34, 35, 36, 37, 38, 39, 40, 41, 42, 43, 44, 45, 46, 47, 48, 49, 50, 51, 52, 53, 54, 55, 56, 57, 58, 59, 60, 61, 62, 63, 64, 65, 66, 67, 68, 69, 70, 71, 72, 73, 74, 75, 76, 77, 78, 79, 80, 81, 82, 83, 84, 85, 86, 87, 88, 89, 90, 91, 92, 93, 94, 95, 96, 97, 98, 99, 100, 101, 102, 103, 104, 105, 106, 107, 108, 109, 110, 111, 112, 113, 114, 115, 116, 117, 118, 119, 120, 121, 122, 123, 124, 125, 126, 127, 128, 129, 130, 131, 132, 133, 134, 135, 136, 137, 138, 139, 140, 141, 142, 143, 144, 145, 146, 147, 148, 149, 150, 151, 152, 153, 154, 155, 156, 157, 158, 159, 160, 161, 162, 163, 164, 165, 166, 167, 168, 169, 170, 171, 172, 173, 174, 175, 176, 177, 178, 179, 180, 181, 182, 183, 184, 185, 186, 187, 188, 189, 190, 191, 192, 193, 194, 195, 196, 197, 198, 199, 200, 201, 202, 203, 204, 205, 206, 207, 208, 209, 210, 211, 212, 213, 214, 215, 216, 217, 218, 219, 220, 221, 222, 223, 224, 225, 226, 227, 228, 229, 230, 231, 232, 233, 234, 235, 236, 237, 238, 239, 240, 241, 242, 243, 244, 245, 246, 247, 248, 249, 250, 251, 252, 253, 254, 255, 256, 257, 258, 259, 260, 261, 262, 263, 264, 265, 266, 267, 268, 269, 270, 271, 272, 273, 274, 275, 276, 277, 278, 279, 280, 281, 282, 283, 284, 285, 286, 287, 288, 289, 290, 291, 292, 293, 294, 295, 296, 297, 298, 299, 300, 301, 302, 303, 304, 305, 306, 307, 308, 309, 310, 311, 312, 313, 314, 315, 316, 317, 318, 319, 320, 321, 322, 323, 324, 325, 326, 327, 328, 329, 330, 331, 332, 333, 334, 335, 336, 337, 338, 339, 340, 341, 342, 343, 344, 345, 346, 347, 348, 349, 350, 351, 352, 353, 354, 355, 356, 357, 358, 359, 360, 361, 362, 363, 364, 365, 366, 367, 368, 369, 370, 371, 372, 373, 374, 375, 376, 377, 378, 379, 380, 381, 382, 383, 384, 385, 386, 387, 388, 389, 390, 391, 392, 393, 394, 395, 396, 397, 398, 399, 400, 401, 402, 403, 404, 405, 406, 407, 408, 409, 410, 411, 412, 413, 414, 415, 416, 417, 418, 419, 420, 421, 422, 423, 424, 425, 426, 427, 428, 429, 430, 431, 432, 433, 434],
      "AcquisitionTime": ["181127.185000", "181128.675000", "181130.165000", "181131.655000", "181133.145000", "181134.635000", "181136.125000", "181137.615000", "181139.105000", "181140.595000", "181142.085000", "181143.575000", "181145.065000", "181146.555000", "181148.045000", "181149.535000", "181151.025000", "181152.515000", "181154.005000", "181155.495000", "181156.985000", "181158.475000", "181159.965000", "181201.455000", "181202.945000", "181204.435000", "181205.925000", "181207.415000", "181208.905000", "181210.395000", "181211.885000", "181213.375000", "181214.865000", "181216.355000", "181217.845000", "181219.335000", "181220.825000", "181222.315000", "181223.805000", "181225.295000", "181226.785000", "181228.275000", "181229.765000", "181231.255000", "181232.745000", "181234.235000", "181235.725000", "181237.215000", "181238.705000", "181240.195000", "181241.685000", "181243.175000", "181244.665000", "181246.155000", "181247.645000", "181249.135000", "181250.625000", "181252.115000", "181253.605000", "181255.095000", "181256.585000", "181258.075000", "181259.565000", "181301.055000", "181302.545000", "181304.035000", "181305.525000", "181307.015000", "181308.505000", "181309.995000", "181311.485000", "181312.975000", "181314.465000", "181315.955000", "181317.445000", "181318.935000", "181320.425000", "181321.915000", "181323.405000", "181324.895000", "181326.385000", "181327.875000", "181329.365000", "181330.855000", "181332.345000", "181333.835000", "181335.325000", "181336.815000", "181338.305000", "181339.795000", "181341.285000", "181342.775000", "181344.265000", "181345.755000", "181347.245000", "181348.735000", "181350.225000", "181351.715000", "181353.205000", "181354.695000", "181356.185000", "181357.675000", "181359.165000", "181400.655000", "181402.145000", "181403.635000", "181405.125000", "181406.615000", "181408.105000", "181409.595000", "181411.085000", "181412.575000", "181414.065000", "181415.555000", "181417.045000", "181418.535000", "181420.025000", "181421.515000", "181423.005000", "181424.495000", "181425.985000", "181427.475000", "181428.965000", "181430.455000", "181431.945000", "181433.435000", "181434.925000", "181436.415000", "181437.905000", "181439.395000", "181440.885000", "181442.375000", "181443.865000", "181445.355000", "181446.845000", "181448.335000", "181449.825000", "181451.315000", "181452.805000", "181454.295000", "181455.785000", "181457.275000", "181458.765000", "181500.255000", "181501.745000", "181503.235000", "181504.725000", "181506.215000", "181507.705000", "181509.195000", "181510.685000", "181512.175000", "181513.665000", "181515.155000", "181516.645000", "181518.135000", "181519.625000", "181521.115000", "181522.605000", "181524.095000", "181525.585000", "181527.075000", "181528.565000", "181530.055000", "181531.545000", "181533.035000", "181534.525000", "181536.015000", "181537.505000", "181538.995000", "181540.485000", "181541.975000", "181543.465000", "181544.955000", "181546.445000", "181547.935000", "181549.425000", "181550.915000", "181552.405000", "181553.895000", "181555.385000", "181556.875000", "181558.365000", "181559.855000", "181601.345000", "181602.835000", "181604.325000", "181605.815000", "181607.305000", "181608.795000", "181610.285000", "181611.775000", "181613.265000", "181614.755000", "181616.245000", "181617.735000", "181619.225000", "181620.715000", "181622.205000", "181623.695000", "181625.185000", "181626.675000", "181628.165000", "181629.655000", "181631.145000", "181632.635000", "181634.125000", "181635.615000", "181637.105000", "181638.595000", "181640.085000", "181641.575000", "181643.065000", "181644.555000", "181646.045000", "181647.535000", "181649.025000", "181650.515000", "181652.005000", "181653.495000", "181654.985000", "181656.475000", "181657.965000", "181659.455000", "181700.945000", "181702.435000", "181703.925000", "181705.415000", "181706.905000", "181708.395000", "181709.885000", "181711.375000", "181712.865000", "181714.355000", "181715.845000", "181717.335000", "181718.825000", "181720.315000", "181721.805000", "181723.295000", "181724.785000", "181726.275000", "181727.765000", "181729.255000", "181730.745000", "181732.235000", "181733.725000", "181735.215000", "181736.705000", "181738.195000", "181739.685000", "181741.175000", "181742.665000", "181744.155000", "181745.645000", "181747.135000", "181748.625000", "181750.115000", "181751.605000", "181753.095000", "181754.585000", "181756.075000", "181757.565000", "181759.055000", "181800.545000", "181802.035000", "181803.525000", "181805.015000", "181806.505000", "181807.995000", "181809.485000", "181810.975000", "181812.465000", "181813.955000", "181815.445000", "181816.935000", "181818.425000", "181819.915000", "181821.405000", "181822.895000", "181824.385000", "181825.875000", "181827.365000", "181828.855000", "181830.345000", "181831.835000", "181833.325000", "181834.815000", "181836.305000", "181837.795000", "181839.285000", "181840.775000", "181842.265000", "181843.755000", "181845.245000", "181846.735000", "181848.225000", "181849.715000", "181851.205000", "181852.695000", "181854.185000", "181855.675000", "181857.165000", "181858.655000", "181900.145000", "181901.635000", "181903.125000", "181904.615000", "181906.105000", "181907.595000", "181909.085000", "181910.575000", "181912.065000", "181913.555000", "181915.045000", "181916.535000", "181918.025000", "181919.515000", "181921.005000", "181922.495000", "181923.985000", "181925.475000", "181926.965000", "181928.455000", "181929.945000", "181931.435000", "181932.925000", "181934.415000", "181935.905000", "181937.395000", "181938.885000", "181940.375000", "181941.865000", "181943.355000", "181944.845000", "181946.335000", "181947.825000", "181949.315000", "181950.805000", "181952.295000", "181953.785000", "181955.275000", "181956.765000", "181958.255000", "181959.745000", "182001.235000", "182002.725000", "182004.215000", "182005.705000", "182007.195000", "182008.685000", "182010.175000", "182011.665000", "182013.155000", "182014.645000", "182016.135000", "182017.625000", "182019.115000", "182020.605000", "182022.095000", "182023.585000", "182025.075000", "182026.565000", "182028.055000", "182029.545000", "182031.035000", "182032.525000", "182034.015000", "182035.505000", "182036.995000", "182038.485000", "182039.975000", "182041.465000", "182042.955000", "182044.445000", "182045.935000", "182047.425000", "182048.915000", "182050.405000", "182051.895000", "182053.385000", "182054.875000", "182056.365000", "182057.855000", "182059.345000", "182100.835000", "182102.325000", "182103.815000", "182105.305000", "182106.795000", "182108.285000", "182109.775000", "182111.265000", "182112.755000", "182114.245000", "182115.735000", "182117.225000", "182118.715000", "182120.205000", "182121.695000", "182123.185000", "182124.675000", "182126.165000", "182127.655000", "182129.145000", "182130.635000", "182132.125000", "182133.615000", "182135.105000", "182136.595000", "182138.085000", "182139.575000", "182141.065000", "182142.555000", "182144.045000", "182145.535000", "182147.025000", "182148.515000", "182150.005000", "182151.495000", "182152.985000", "182154.475000", "182155.965000", "182157.455000", "182158.945000", "182200.435000", "182201.925000", "182203.415000", "182204.905000", "182206.395000", "182207.885000", "182209.375000", "182210.865000", "182212.355000"],
      "ContentTime": ["181249.317000", "181249.321000", "181249.325000", "181249.328000", "181249.331000", "181249.335000", "181249.338000", "181249.341000", "181249.345000", "181249.348000", "181249.351000", "181249.355000", "181249.358000", "181249.361000", "181249.364000", "181249.368000", "181249.371000", "181249.374000", "181249.377000", "181249.381000", "181249.384000", "181249.387000", "181249.390000", "181249.394000", "181249.397000", "181249.400000", "181249.415000", "181249.418000", "181249.422000", "181249.425000", "181249.436000", "181249.439000", "181249.443000", "181249.446000", "181309.281000", "181309.291000", "181309.295000", "181309.298000", "181309.301000", "181309.304000", "181309.308000", "181309.311000", "181309.314000", "181309.317000", "181309.321000", "181309.324000", "181309.327000", "181309.331000", "181309.334000", "181309.337000", "181309.340000", "181309.344000", "181309.347000", "181309.350000", "181329.281000", "181329.285000", "181329.288000", "181329.291000", "181329.295000", "181329.298000", "181329.301000", "181329.304000", "181329.308000", "181329.311000", "181329.314000", "181329.317000", "181329.321000", "181329.324000", "181329.327000", "181329.330000", "181329.334000", "181329.337000", "181329.340000", "181329.344000", "181329.347000", "181349.280000", "181349.284000", "181349.303000", "181349.306000", "181349.309000", "181349.313000", "181349.316000", "181349.319000", "181349.322000", "181349.326000", "181349.329000", "181349.332000", "181349.336000", "181349.340000", "181349.343000", "181349.346000", "181349.349000", "181349.353000", "181349.356000", "181429.280000", "181429.284000", "181429.287000", "181429.290000", "181429.294000", "181429.297000", "181429.300000", "181429.303000", "181429.307000", "181429.310000", "181429.313000", "181429.317000", "181429.320000", "181429.323000", "181429.327000", "181429.330000", "181429.333000", "181429.337000", "181429.340000", "181429.343000", "181429.347000", "181429.350000", "181429.353000", "181429.357000", "181429.360000", "181429.363000", "181429.366000", "181509.281000", "181509.285000", "181509.288000", "181509.291000", "181509.295000", "181509.298000", "181509.301000", "181509.305000", "181509.308000", "181509.311000", "181509.314000", "181509.318000", "181509.321000", "181509.324000", "181509.328000", "181509.331000", "181509.343000", "181509.346000", "181509.349000", "181509.353000", "181509.356000", "181509.359000", "181509.363000", "181509.366000", "181509.369000", "181509.373000", "181509.376000", "181549.280000", "181549.284000", "181549.287000", "181549.291000", "181549.294000", "181549.297000", "181549.300000", "181549.304000", "181549.307000", "181549.310000", "181549.314000", "181549.317000", "181549.320000", "181549.324000", "181549.327000", "181549.330000", "181549.334000", "181549.337000", "181549.341000", "181549.348000", "181549.352000", "181549.355000", "181549.358000", "181549.362000", "181549.365000", "181549.368000", "181549.371000", "181629.280000", "181629.284000", "181629.287000", "181629.290000", "181629.294000", "181629.297000", "181629.300000", "181629.304000", "181629.307000", "181629.310000", "181629.313000", "181629.317000", "181629.320000", "181629.323000", "181629.326000", "181629.330000", "181629.333000", "181629.336000", "181629.340000", "181629.343000", "181629.346000", "181629.350000", "181629.353000", "181629.356000", "181629.359000", "181629.363000", "181629.367000", "181709.280000", "181709.284000", "181709.287000", "181709.290000", "181709.294000", "181709.297000", "181709.300000", "181709.304000", "181709.307000", "181709.310000", "181709.313000", "181709.317000", "181709.320000", "181709.323000", "181709.327000", "181709.330000", "181709.333000", "181709.336000", "181709.340000", "181709.343000", "181709.346000", "181709.350000", "181709.353000", "181709.356000", "181709.359000", "181709.363000", "181709.366000", "181749.281000", "181749.285000", "181749.288000", "181749.292000", "181749.295000", "181749.298000", "181749.301000", "181749.305000", "181749.308000", "181749.311000", "181749.315000", "181749.318000", "181749.321000", "181749.325000", "181749.328000", "181749.331000", "181749.334000", "181749.338000", "181749.341000", "181749.344000", "181749.349000", "181749.353000", "181749.357000", "181749.360000", "181749.363000", "181749.367000", "181829.280000", "181829.284000", "181829.287000", "181829.290000", "181829.294000", "181829.297000", "181829.300000", "181829.304000", "181829.307000", "181829.320000", "181829.323000", "181829.327000", "181829.340000", "181829.343000", "181829.346000", "181829.349000", "181829.353000", "181829.356000", "181829.359000", "181829.363000", "181829.366000", "181829.369000", "181829.373000", "181829.376000", "181829.379000", "181829.382000", "181829.386000", "181909.280000", "181909.284000", "181909.287000", "181909.291000", "181909.294000", "181909.297000", "181909.300000", "181909.304000", "181909.307000", "181909.310000", "181909.314000", "181909.317000", "181909.320000", "181909.324000", "181909.327000", "181909.330000", "181909.333000", "181909.337000", "181909.340000", "181909.343000", "181909.347000", "181909.350000", "181909.353000", "181909.356000", "181909.360000", "181909.363000", "181909.366000", "181949.281000", "181949.285000", "181949.288000", "181949.292000", "181949.295000", "181949.298000", "181949.302000", "181949.305000", "181949.308000", "181949.312000", "181949.315000", "181949.318000", "181949.321000", "181949.325000", "181949.328000", "181949.331000", "181949.335000", "181949.338000", "181949.341000", "181949.344000", "181949.348000", "181949.351000", "181949.354000", "181949.358000", "181949.361000", "181949.364000", "181949.368000", "182029.280000", "182029.284000", "182029.287000", "182029.291000", "182029.294000", "182029.297000", "182029.300000", "182029.304000", "182029.307000", "182029.310000", "182029.314000", "182029.317000", "182029.320000", "182029.324000", "182029.327000", "182029.330000", "182029.333000", "182029.337000", "182029.340000", "182029.343000", "182029.347000", "182029.350000", "182029.353000", "182029.368000", "182029.377000", "182029.381000", "182029.386000", "182109.280000", "182109.284000", "182109.287000", "182109.291000", "182109.294000", "182109.297000", "182109.301000", "182109.304000", "182109.307000", "182109.310000", "182109.314000", "182109.317000", "182109.320000", "182109.323000", "182109.327000", "182109.330000", "182109.333000", "182109.337000", "182109.340000", "182109.343000", "182109.346000", "182109.350000", "182109.353000", "182109.356000", "182109.360000", "182109.363000", "182109.366000", "182149.280000", "182149.284000", "182149.287000", "182149.290000", "182149.294000", "182149.297000", "182149.301000", "182149.304000", "182149.307000", "182149.310000", "182149.314000", "182149.317000", "182149.320000", "182149.324000", "182149.327000", "182149.330000", "182149.334000", "182149.337000", "182149.340000", "182149.344000", "182149.347000", "182149.350000", "182149.354000", "182149.357000", "182149.360000", "182149.364000", "182149.367000", "182214.798000", "182214.802000", "182214.805000", "182214.808000", "182214.812000", "182214.815000", "182214.818000", "182214.822000", "182214.825000", "182214.828000", "182214.831000", "182214.835000", "182214.838000", "182214.841000", "182214.845000", "182214.848000", "182214.851000"],
