{
  "AcquisitionMatrixPE": 104,
  "AcquisitionNumber": 1,
  "AcquisitionTime": "18:11:27.185000",
  "BandwidthPerPixelPhaseEncode": 17.17,
  "BaseResolution": 104,
  "BodyPartExamined": "BRAIN",
  "CoilCombinationMethod": "Sum of Squares",
  "ConsistencyInfo": "N4_VE11C_LATEST_20160120",
  "ConversionSoftware": "dcm2niix",
  "ConversionSoftwareVersion": "v1.0.20220505",
  "DerivedVendorReportedEchoSpacing": 0.000560011,
  "DeviceSerialNumber": "167006",
  "DwellTime": 2.1e-06,
  "EchoTime": 0.037,
  "EchoTime1": 0.037,
  "EchoTime2": 0.001,
  "EchoTrainLength": 104,
  "EffectiveEchoSpacing": 0.000560011,
  "FlipAngle": 52,
  "HeudiconvVersion": "0.5.3.post811+g6206e14",
  "ImageComments": "Unaliased MB4/PE3/LB",
  "ImageOrientationPatientDICOM": [0.999494, -0.0310227, 0.00704329, 0.0314103, 0.927296, -0.373009],
  "ImageOrientationText": "Tra>Cor(-21.9)>Sag(-0.3)",
  "ImageType": [
    "ORIGINAL",
    "PRIMARY",
    "P",
    "MB",
    "ND",
    "MOSAIC",
    "PHASE"
],
  "ImagingFrequency": 123.26,
  "InPlanePhaseEncodingDirectionDICOM": "COL",
  "InstitutionAddress": "Chemin Queen-Mary 4565,Montreal,District,CA,H3W 1W5",
  "InstitutionName": "IUGM",
  "InstitutionalDepartmentName": "Department",
  "MRAcquisitionType": "2D",
  "MagneticFieldStrength": 3,
  "Manufacturer": "Siemens",
  "ManufacturersModelName": "Prisma_fit",
  "MatrixCoilMode": "SENSE",
  "Modality": "MR",
  "MultibandAccelerationFactor": 4,
  "PartialFourier": 1,
  "PatientPosition": "HFS",
  "PercentPhaseFOV": 100,
  "PercentSampling": 100,
  "PhaseEncodingDirection": "j",
  "PhaseEncodingSteps": 104,
  "PhaseResolution": 1,
  "PixelBandwidth": 2290,
  "ProcedureStepDescription": "games^mariostars",
  "ProtocolName": "func_task-mariostars_run-04",
  "PulseSequenceDetails": "%CustomerSeq%\\cmrr_mbep2d_bold",
  "ReceiveCoilActiveElements": "HC1-7;NC1,2",
  "ReceiveCoilName": "HeadNeck_64",
  "ReconMatrixPE": 104,
  "RepetitionTime": 1.49,
  "SAR": 0.0558584,
  "ScanOptions": "FS",
  "ScanningSequence": "EP",
  "SequenceName": "epfid2d1_104",
  "SequenceVariant": "SK\\SS",
  "SeriesDescription": "func_task-mariostars_run-04",
  "SeriesNumber": 21,
  "ShimSetting": [601, -7251, -8798, 458, 24, -310, 15, 44],
  "SliceThickness": 2,
  "SliceTiming": [0, 0.785, 0.1, 0.8825, 0.1975, 0.98, 0.295, 1.0775, 0.3925, 1.1775, 0.49, 1.275, 0.59, 1.3725, 0.6875, 0, 0.785, 0.1, 0.8825, 0.1975, 0.98, 0.295, 1.0775, 0.3925, 1.1775, 0.49, 1.275, 0.59, 1.3725, 0.6875, 0, 0.785, 0.1, 0.8825, 0.1975, 0.98, 0.295, 1.0775, 0.3925, 1.1775, 0.49, 1.275, 0.59, 1.3725, 0.6875, 0, 0.785, 0.1, 0.8825, 0.1975, 0.98, 0.295, 1.0775, 0.3925, 1.1775, 0.49, 1.275, 0.59, 1.3725, 0.6875],
  "SoftwareVersions": "syngo MR E11",
  "SpacingBetweenSlices": 2,
  "StationName": "MRC35049",
  "TaskName": "mariostars",
  "TotalReadoutTime": 0.0576811,
  "TxRefAmp": 265.677,
  "WipMemBlock": "fc3d09e9-c141-4911-920d-16b738912236||Sequence: R017 ve11c/master r/75a17815+; Jun 28 2022 16:32:11 by eja",
  "dcmmeta_affine": [
    [-1.9989876747131348, 0.0628206878900528, -0.010081109590828419, 101.20454406738281],
    [0.06204543262720108, 1.8545914888381958, -0.7460837960243225, -70.80105590820312],
    [0.014086578041315079, 0.7460188865661621, 1.8556016683578491, -60.51971435546875],
    [0.0, 0.0, 0.0, 1.0]
],
  "dcmmeta_reorient_transform": [
    [0.0, -1.0, 0.0, 103.0],
    [1.0, 0.0, 0.0, 0.0],
    [0.0, 0.0, 1.0, 0.0],
    [0.0, 0.0, 0.0, 1.0]
],
  "dcmmeta_shape": [104, 104, 60, 434],
  "dcmmeta_slice_dim": 2,
  "dcmmeta_version": 0.6,
  "global": {
    "const": {
      "AcquisitionMatrix": [104, 0, 0, 104],
      "AngioFlag": "N",
      "BitsAllocated": 16,
      "BitsStored": 16,
      "BodyPartExamined": "BRAIN",
      "Columns": 832,
      "EchoNumbers": 1,
      "EchoTime": 37.0,
      "EchoTrainLength": 104,
      "FlipAngle": 52.0,
      "HighBit": 15,
      "ImageOrientationPatient": [0.99949386347216, -0.0310227168068, 0.00704328924709, 0.03141034370572, 0.92729571474294, -0.3730094472365],
      "ImagePositionPatient": [-858.17333881246, -772.70860617617, 282.74359572075],
      "ImageType": [
        "ORIGINAL",
        "PRIMARY",
        "P",
        "MB",
        "ND",
        "MOSAIC"
],
      "ImagedNucleus": "1H",
      "ImagingFrequency": 123.26022,
      "InPlanePhaseEncodingDirection": "COL",
      "LargestImagePixelValue": 4095,
      "MRAcquisitionType": "2D",
      "MagneticFieldStrength": 3.0,
      "Manufacturer": "SIEMENS",
      "ManufacturerModelName": "Prisma_fit",
      "Modality": "MR",
      "NumberOfAverages": 1.0,
      "NumberOfPhaseEncodingSteps": 104,
      "PercentPhaseFieldOfView": 100.0,
      "PercentSampling": 100.0,
      "PerformedProcedureStepStartTime": "170640.569000",
      "PhotometricInterpretation": "MONOCHROME2",
      "PixelBandwidth": 2290.0,
      "PixelRepresentation": 0,
      "PixelSpacing": [2.0, 2.0],
      "ProtocolName": "func_task-mariostars_run-04",
      "RepetitionTime": 1490.0,
      "RescaleIntercept": -4096.0,
      "RescaleSlope": 2.0,
      "RescaleType": "US",
      "Rows": 832,
      "SAR": 0.05585841049676,
      "SamplesPerPixel": 1,
      "ScanOptions": "FS",
      "ScanningSequence": "EP",
      "SequenceName": "epfid2d1_104",
      "SequenceVariant": [
        "SK",
        "SS"
],
      "SeriesDescription": "func_task-mariostars_run-04",
      "SeriesNumber": 21,
      "SeriesTime": "181249.494000",
      "SliceLocation": -30.248607680883,
      "SliceThickness": 2.0,
      "SmallestImagePixelValue": 0,
      "SoftwareVersions": "syngo MR E11",
      "SpacingBetweenSlices": 2.0000000346351,
      "SpecificCharacterSet": "ISO_IR 100",
      "StudyID": "1",
      "StudyTime": "170640.493000",
      "TransmitCoilName": "Body",
      "VariableFlipAngleFlag": "N",
      "WindowCenterWidthExplanation": "Algo1",
      "dBdt": 0.0},
    "slices": {}
  },
  "time": {
    "samples": {
      "AcquisitionNumber": [1, 2, 3, 4, 5, 6, 7, 8, 9, 10, 11, 12, 13, 14, 15, 16, 17, 18, 19, 20, 21, 22, 23, 24, 25, 26, 27, 28, 29, 30, 31, 32, 33, 34, 35, 36, 37, 38, 39, 40, 41, 42, 43, 44, 45, 46, 47, 48, 49, 50, 51, 52, 53, 54, 55, 56, 57, 58, 59, 60, 61, 62, 63, 64, 65, 66, 67, 68, 69, 70, 71, 72, 73, 74, 75, 76, 77, 78, 79, 80, 81, 82, 83, 84, 85, 86, 87, 88, 89, 90, 91, 92, 93, 94, 95, 96, 97, 98, 99, 100, 101, 102, 103, 104, 105, 106, 107, 108, 109, 110, 111, 112, 113, 114, 115, 116, 117, 118, 119, 120, 121, 122, 123, 124, 125, 126, 127, 128, 129, 130, 131, 132, 133, 134, 135, 136, 137, 138, 139, 140, 141, 142, 143, 144, 145, 146, 147, 148, 149, 150, 151, 152, 153, 154, 155, 156, 157, 158, 159, 160, 161, 162, 163, 164, 165, 166, 167, 168, 169, 170, 171, 172, 173, 174, 175, 176, 177, 178, 179, 180, 181, 182, 183, 184, 185, 186, 187, 188, 189, 190, 191, 192, 193, 194, 195, 196, 197, 198, 199, 200, 201, 202, 203, 204, 205, 206, 207, 208, 209, 210, 211, 212, 213, 214, 215, 216, 217, 218, 219, 220, 221, 222, 223, 224, 225, 226, 227, 228, 229, 230, 231, 232, 233, 234, 235, 236, 237, 238, 239, 240, 241, 242, 243, 244, 245, 246, 247, 248, 249, 250, 251, 252, 253, 254, 255, 256, 257, 258, 259, 260, 261, 262, 263, 264, 265, 266, 267, 268, 269, 270, 271, 272, 273, 274, 275, 276, 277, 278, 279, 280, 281, 282, 283, 284, 285, 286, 287, 288, 289, 290, 291, 292, 293, 294, 295, 296, 297, 298, 299, 300, 301, 302, 303, 304, 305, 306, 307, 308, 309, 310, 311, 312, 313, 314, 315, 316, 317, 318, 319, 320, 321, 322, 323, 324, 325, 326, 327, 328, 329, 330, 331, 332, 333, 334, 335, 336, 337, 338, 339, 340, 341, 342, 343, 344, 345, 346, 347, 348, 349, 350, 351, 352, 353, 354, 355, 356, 357, 358, 359, 360, 361, 362, 363, 364, 365, 366, 367, 368, 369, 370, 371, 372, 373, 374, 375, 376, 377, 378, 379, 380, 381, 382, 383, 384, 385, 386, 387, 388, 389, 390, 391, 392, 393, 394, 395, 396, 397, 398, 399, 400, 401, 402, 403, 404, 405, 406, 407, 408, 409, 410, 411, 412, 413, 414, 415, 416, 417, 418, 419, 420, 421, 422, 423, 424, 425, 426, 427, 428, 429, 430, 431, 432, 433, 434],
      "AcquisitionTime": ["181127.185000", "181128.675000", "181130.165000", "181131.655000", "181133.145000", "181134.635000", "181136.125000", "181137.615000", "181139.105000", "181140.595000", "181142.085000", "181143.575000", "181145.065000", "181146.555000", "181148.045000", "181149.535000", "181151.025000", "181152.515000", "181154.005000", "181155.495000", "181156.985000", "181158.475000", "181159.965000", "181201.455000", "181202.945000", "181204.435000", "181205.925000", "181207.415000", "181208.905000", "181210.395000", "181211.885000", "181213.375000", "181214.865000", "181216.355000", "181217.845000", "181219.335000", "181220.825000", "181222.315000", "181223.805000", "181225.295000", "181226.785000", "181228.275000", "181229.765000", "181231.255000", "181232.745000", "181234.235000", "181235.725000", "181237.215000", "181238.705000", "181240.195000", "181241.685000", "181243.175000", "181244.665000", "181246.155000", "181247.645000", "181249.135000", "181250.625000", "181252.115000", "181253.605000", "181255.095000", "181256.585000", "181258.075000", "181259.565000", "181301.055000", "181302.545000", "181304.035000", "181305.525000", "181307.015000", "181308.505000", "181309.995000", "181311.485000", "181312.975000", "181314.465000", "181315.955000", "181317.445000", "181318.935000", "181320.425000", "181321.915000", "181323.405000", "181324.895000", "181326.385000", "181327.875000", "181329.365000", "181330.855000", "181332.345000", "181333.835000", "181335.325000", "181336.815000", "181338.305000", "181339.795000", "181341.285000", "181342.775000", "181344.265000", "181345.755000", "181347.245000", "181348.735000", "181350.225000", "181351.715000", "181353.205000", "181354.695000", "181356.185000", "181357.675000", "181359.165000", "181400.655000", "181402.145000", "181403.635000", "181405.125000", "181406.615000", "181408.105000", "181409.595000", "181411.085000", "181412.575000", "181414.065000", "181415.555000", "181417.045000", "181418.535000", "181420.025000", "181421.515000", "181423.005000", "181424.495000", "181425.985000", "181427.475000", "181428.965000", "181430.455000", "181431.945000", "181433.435000", "181434.925000", "181436.415000", "181437.905000", "181439.395000", "181440.885000", "181442.375000", "181443.865000", "181445.355000", "181446.845000", "181448.335000", "181449.825000", "181451.315000", "181452.805000", "181454.295000", "181455.785000", "181457.275000", "181458.765000", "181500.255000", "181501.745000", "181503.235000", "181504.725000", "181506.215000", "181507.705000", "181509.195000", "181510.685000", "181512.175000", "181513.665000", "181515.155000", "181516.645000", "181518.135000", "181519.625000", "181521.115000", "181522.605000", "181524.095000", "181525.585000", "181527.075000", "181528.565000", "181530.055000", "181531.545000", "181533.035000", "181534.525000", "181536.015000", "181537.505000", "181538.995000", "181540.485000", "181541.975000", "181543.465000", "181544.955000", "181546.445000", "181547.935000", "181549.425000", "181550.915000", "181552.405000", "181553.895000", "181555.385000", "181556.875000", "181558.365000", "181559.855000", "181601.345000", "181602.835000", "181604.325000", "181605.815000", "181607.305000", "181608.795000", "181610.285000", "181611.775000", "181613.265000", "181614.755000", "181616.245000", "181617.735000", "181619.225000", "181620.715000", "181622.205000", "181623.695000", "181625.185000", "181626.675000", "181628.165000", "181629.655000", "181631.145000", "181632.635000", "181634.125000", "181635.615000", "181637.105000", "181638.595000", "181640.085000", "181641.575000", "181643.065000", "181644.555000", "181646.045000", "181647.535000", "181649.025000", "181650.515000", "181652.005000", "181653.495000", "181654.985000", "181656.475000", "181657.965000", "181659.455000", "181700.945000", "181702.435000", "181703.925000", "181705.415000", "181706.905000", "181708.395000", "181709.885000", "181711.375000", "181712.865000", "181714.355000", "181715.845000", "181717.335000", "181718.825000", "181720.315000", "181721.805000", "181723.295000", "181724.785000", "181726.275000", "181727.765000", "181729.255000", "181730.745000", "181732.235000", "181733.725000", "181735.215000", "181736.705000", "181738.195000", "181739.685000", "181741.175000", "181742.665000", "181744.155000", "181745.645000", "181747.135000", "181748.625000", "181750.115000", "181751.605000", "181753.095000", "181754.585000", "181756.075000", "181757.565000", "181759.055000", "181800.545000", "181802.035000", "181803.525000", "181805.015000", "181806.505000", "181807.995000", "181809.485000", "181810.975000", "181812.465000", "181813.955000", "181815.445000", "181816.935000", "181818.425000", "181819.915000", "181821.405000", "181822.895000", "181824.385000", "181825.875000", "181827.365000", "181828.855000", "181830.345000", "181831.835000", "181833.325000", "181834.815000", "181836.305000", "181837.795000", "181839.285000", "181840.775000", "181842.265000", "181843.755000", "181845.245000", "181846.735000", "181848.225000", "181849.715000", "181851.205000", "181852.695000", "181854.185000", "181855.675000", "181857.165000", "181858.655000", "181900.145000", "181901.635000", "181903.125000", "181904.615000", "181906.105000", "181907.595000", "181909.085000", "181910.575000", "181912.065000", "181913.555000", "181915.045000", "181916.535000", "181918.025000", "181919.515000", "181921.005000", "181922.495000", "181923.985000", "181925.475000", "181926.965000", "181928.455000", "181929.945000", "181931.435000", "181932.925000", "181934.415000", "181935.905000", "181937.395000", "181938.885000", "181940.375000", "181941.865000", "181943.355000", "181944.845000", "181946.335000", "181947.825000", "181949.315000", "181950.805000", "181952.295000", "181953.785000", "181955.275000", "181956.765000", "181958.255000", "181959.745000", "182001.235000", "182002.725000", "182004.215000", "182005.705000", "182007.195000", "182008.685000", "182010.175000", "182011.665000", "182013.155000", "182014.645000", "182016.135000", "182017.625000", "182019.115000", "182020.605000", "182022.095000", "182023.585000", "182025.075000", "182026.565000", "182028.055000", "182029.545000", "182031.035000", "182032.525000", "182034.015000", "182035.505000", "182036.995000", "182038.485000", "182039.975000", "182041.465000", "182042.955000", "182044.445000", "182045.935000", "182047.425000", "182048.915000", "182050.405000", "182051.895000", "182053.385000", "182054.875000", "182056.365000", "182057.855000", "182059.345000", "182100.835000", "182102.325000", "182103.815000", "182105.305000", "182106.795000", "182108.285000", "182109.775000", "182111.265000", "182112.755000", "182114.245000", "182115.735000", "182117.225000", "182118.715000", "182120.205000", "182121.695000", "182123.185000", "182124.675000", "182126.165000", "182127.655000", "182129.145000", "182130.635000", "182132.125000", "182133.615000", "182135.105000", "182136.595000", "182138.085000", "182139.575000", "182141.065000", "182142.555000", "182144.045000", "182145.535000", "182147.025000", "182148.515000", "182150.005000", "182151.495000", "182152.985000", "182154.475000", "182155.965000", "182157.455000", "182158.945000", "182200.435000", "182201.925000", "182203.415000", "182204.905000", "182206.395000", "182207.885000", "182209.375000", "182210.865000", "182212.355000"],
      "ContentTime": ["181249.496000", "181249.499000", "181249.502000", "181249.504000", "181249.506000", "181249.509000", "181249.511000", "181249.514000", "181249.516000", "181249.519000", "181249.521000", "181249.524000", "181249.526000", "181249.529000", "181249.531000", "181249.534000", "181249.536000", "181249.539000", "181249.541000", "181249.544000", "181249.546000", "181249.549000", "181249.551000", "181249.554000", "181249.556000", "181249.559000", "181249.561000", "181249.563000", "181249.566000", "181249.568000", "181249.571000", "181249.573000", "181249.576000", "181249.578000", "181309.396000", "181309.399000", "181309.401000", "181309.404000", "181309.406000", "181309.409000", "181309.411000", "181309.414000", "181309.416000", "181309.419000", "181309.421000", "181309.424000", "181309.426000", "181309.429000", "181309.431000", "181309.434000", "181309.437000", "181309.439000", "181309.442000", "181309.444000", "181329.407000", "181329.409000", "181329.412000", "181329.414000", "181329.417000", "181329.419000", "181329.422000", "181329.424000", "181329.427000", "181329.429000", "181329.432000", "181329.434000", "181329.437000", "181329.439000", "181329.442000", "181329.444000", "181329.447000", "181329.449000", "181329.451000", "181329.454000", "181349.400000", "181349.403000", "181349.405000", "181349.408000", "181349.410000", "181349.413000", "181349.415000", "181349.418000", "181349.420000", "181349.423000", "181349.425000", "181349.427000", "181349.430000", "181349.432000", "181349.435000", "181349.437000", "181349.440000", "181349.442000", "181349.445000", "181349.447000", "181429.864000", "181429.867000", "181429.869000", "181429.872000", "181429.874000", "181429.885000", "181429.893000", "181429.895000", "181429.898000", "181429.900000", "181429.903000", "181429.906000", "181429.908000", "181429.910000", "181429.913000", "181429.921000", "181429.923000", "181429.926000", "181429.928000", "181429.931000", "181429.933000", "181429.936000", "181429.939000", "181429.941000", "181429.943000", "181429.946000", "181429.949000", "181509.439000", "181509.441000", "181509.444000", "181509.446000", "181509.449000", "181509.451000", "181509.454000", "181509.456000", "181509.459000", "181509.462000", "181509.464000", "181509.466000", "181509.469000", "181509.472000", "181509.474000", "181509.476000", "181509.479000", "181509.481000", "181509.484000", "181509.486000", "181509.489000", "181509.491000", "181509.494000", "181509.496000", "181509.499000", "181509.501000", "181509.504000", "181549.435000", "181549.438000", "181549.440000", "181549.443000", "181549.445000", "181549.448000", "181549.450000", "181549.453000", "181549.455000", "181549.458000", "181549.460000", "181549.470000", "181549.473000", "181549.475000", "181549.477000", "181549.480000", "181549.482000", "181549.485000", "181549.487000", "181549.490000", "181549.492000", "181549.495000", "181549.497000", "181549.500000", "181549.516000", "181549.518000", "181549.521000", "181629.408000", "181629.411000", "181629.413000", "181629.416000", "181629.418000", "181629.421000", "181629.423000", "181629.426000", "181629.428000", "181629.431000", "181629.433000", "181629.436000", "181629.438000", "181629.441000", "181629.443000", "181629.446000", "181629.448000", "181629.451000", "181629.453000", "181629.456000", "181629.458000", "181629.461000", "181629.463000", "181629.466000", "181629.468000", "181629.471000", "181629.473000", "181709.427000", "181709.430000", "181709.432000", "181709.435000", "181709.437000", "181709.440000", "181709.442000", "181709.445000", "181709.447000", "181709.450000", "181709.452000", "181709.455000", "181709.457000", "181709.460000", "181709.463000", "181709.465000", "181709.467000", "181709.470000", "181709.472000", "181709.475000", "181709.477000", "181709.480000", "181709.482000", "181709.485000", "181709.487000", "181709.490000", "181709.493000", "181749.448000", "181749.450000", "181749.453000", "181749.455000", "181749.458000", "181749.460000", "181749.463000", "181749.465000", "181749.468000", "181749.470000", "181749.473000", "181749.475000", "181749.478000", "181749.480000", "181749.483000", "181749.485000", "181749.488000", "181749.490000", "181749.493000", "181749.495000", "181749.498000", "181749.500000", "181749.503000", "181749.505000", "181749.507000", "181749.510000", "181829.456000", "181829.458000", "181829.461000", "181829.463000", "181829.466000", "181829.468000", "181829.471000", "181829.473000", "181829.476000", "181829.478000", "181829.481000", "181829.483000", "181829.486000", "181829.488000", "181829.491000", "181829.493000", "181829.496000", "181829.498000", "181829.501000", "181829.503000", "181829.506000", "181829.508000", "181829.511000", "181829.513000", "181829.516000", "181829.518000", "181829.521000", "181909.429000", "181909.432000", "181909.434000", "181909.437000", "181909.439000", "181909.442000", "181909.444000", "181909.447000", "181909.449000", "181909.452000", "181909.454000", "181909.457000", "181909.467000", "181909.469000", "181909.472000", "181909.474000", "181909.477000", "181909.479000", "181909.482000", "181909.484000", "181909.487000", "181909.489000", "181909.492000", "181909.494000", "181909.497000", "181909.499000", "181909.502000", "181949.421000", "181949.424000", "181949.426000", "181949.429000", "181949.431000", "181949.434000", "181949.436000", "181949.439000", "181949.441000", "181949.443000", "181949.446000", "181949.448000", "181949.451000", "181949.453000", "181949.456000", "181949.459000", "181949.461000", "181949.463000", "181949.466000", "181949.468000", "181949.471000", "181949.474000", "181949.476000", "181949.479000", "181949.481000", "181949.484000", "181949.486000", "182029.423000", "182029.426000", "182029.428000", "182029.431000", "182029.434000", "182029.436000", "182029.439000", "182029.441000", "182029.444000", "182029.446000", "182029.449000", "182029.451000", "182029.454000", "182029.456000", "182029.458000", "182029.461000", "182029.464000", "182029.466000", "182029.469000", "182029.471000", "182029.474000", "182029.476000", "182029.479000", "182029.481000", "182029.484000", "182029.486000", "182029.489000", "182109.420000", "182109.423000", "182109.425000", "182109.428000", "182109.430000", "182109.433000", "182109.435000", "182109.438000", "182109.440000", "182109.443000", "182109.445000", "182109.448000", "182109.450000", "182109.453000", "182109.456000", "182109.458000", "182109.461000", "182109.463000", "182109.466000", "182109.468000", "182109.471000", "182109.473000", "182109.476000", "182109.478000", "182109.481000", "182109.483000", "182109.486000", "182149.423000", "182149.425000", "182149.428000", "182149.433000", "182149.436000", "182149.438000", "182149.441000", "182149.443000", "182149.446000", "182149.448000", "182149.451000", "182149.453000", "182149.456000", "182149.458000", "182149.461000", "182149.464000", "182149.466000", "182149.469000", "182149.471000", "182149.474000", "182149.476000", "182149.479000", "182149.481000", "182149.484000", "182149.486000", "182149.489000", "182149.491000", "182214.909000", "182214.912000", "182214.915000", "182214.917000", "182214.920000", "182214.922000", "182214.925000", "182214.927000", "182214.930000", "182214.932000", "182214.935000", "182214.937000", "182214.948000", "182214.950000", "182214.953000", "182214.955000", "182214.958000"],
