{
  "AcquisitionMatrixPE": 104,
  "AcquisitionNumber": 1,
  "AcquisitionTime": "17:44:35.170000",
  "BandwidthPerPixelPhaseEncode": 17.17,
  "BaseResolution": 104,
  "BodyPartExamined": "BRAIN",
  "CoilCombinationMethod": "Sum of Squares",
  "ConsistencyInfo": "N4_VE11C_LATEST_20160120",
  "ConversionSoftware": "dcm2niix",
  "ConversionSoftwareVersion": "v1.0.20220505",
  "DerivedVendorReportedEchoSpacing": 0.000560011,
  "DeviceSerialNumber": "167006",
  "DwellTime": 2.1e-06,
  "EchoTime": 0.037,
  "EchoTrainLength": 104,
  "EffectiveEchoSpacing": 0.000560011,
  "FlipAngle": 52,
  "HeudiconvVersion": "0.5.3.post811+g6206e14",
  "ImageComments": "Unaliased MB4/PE3/LB",
  "ImageOrientationPatientDICOM": [0.999494, -0.0310227, 0.00704329, 0.0314103, 0.927296, -0.373009],
  "ImageOrientationText": "Tra>Cor(-21.9)>Sag(-0.3)",
  "ImageType": [
    "ORIGINAL",
    "PRIMARY",
    "M",
    "MB",
    "ND",
    "MOSAIC"
],
  "ImagingFrequency": 123.26,
  "InPlanePhaseEncodingDirectionDICOM": "COL",
  "InstitutionAddress": "Chemin Queen-Mary 4565,Montreal,District,CA,H3W 1W5",
  "InstitutionName": "IUGM",
  "InstitutionalDepartmentName": "Department",
  "MRAcquisitionType": "2D",
  "MagneticFieldStrength": 3,
  "Manufacturer": "Siemens",
  "ManufacturersModelName": "Prisma_fit",
  "MatrixCoilMode": "SENSE",
  "Modality": "MR",
  "MultibandAccelerationFactor": 4,
  "PartialFourier": 1,
  "PatientPosition": "HFS",
  "PercentPhaseFOV": 100,
  "PercentSampling": 100,
  "PhaseEncodingDirection": "j",
  "PhaseEncodingSteps": 104,
  "PhaseResolution": 1,
  "PixelBandwidth": 2290,
  "ProcedureStepDescription": "games^mariostars",
  "ProtocolName": "func_task-mariostars_run-02",
  "PulseSequenceDetails": "%CustomerSeq%\\cmrr_mbep2d_bold",
  "ReceiveCoilActiveElements": "HC1-7;NC1,2",
  "ReceiveCoilName": "HeadNeck_64",
  "ReconMatrixPE": 104,
  "RepetitionTime": 1.49,
  "SAR": 0.0558584,
  "ScanOptions": "FS",
  "ScanningSequence": "EP",
  "SequenceName": "epfid2d1_104",
  "SequenceVariant": "SK\\SS",
  "SeriesDescription": "func_task-mariostars_run-02",
  "SeriesNumber": 14,
  "ShimSetting": [601, -7251, -8798, 458, 24, -310, 15, 44],
  "SliceThickness": 2,
  "SliceTiming": [0, 0.7825, 0.0975, 0.88, 0.195, 0.98, 0.2925, 1.0775, 0.39, 1.175, 0.49, 1.2725, 0.5875, 1.37, 0.685, 0, 0.7825, 0.0975, 0.88, 0.195, 0.98, 0.2925, 1.0775, 0.39, 1.175, 0.49, 1.2725, 0.5875, 1.37, 0.685, 0, 0.7825, 0.0975, 0.88, 0.195, 0.98, 0.2925, 1.0775, 0.39, 1.175, 0.49, 1.2725, 0.5875, 1.37, 0.685, 0, 0.7825, 0.0975, 0.88, 0.195, 0.98, 0.2925, 1.0775, 0.39, 1.175, 0.49, 1.2725, 0.5875, 1.37, 0.685],
  "SoftwareVersions": "syngo MR E11",
  "SpacingBetweenSlices": 2,
  "StationName": "MRC35049",
  "TaskName": "mariostars",
  "TotalReadoutTime": 0.0576811,
  "TxRefAmp": 265.677,
  "WipMemBlock": "44ecab26-a7ce-4f71-8e5d-17a9e276cbf0||Sequence: R017 ve11c/master r/75a17815+; Jun 28 2022 16:32:11 by eja",
  "dcmmeta_affine": [
    [-1.9989876747131348, 0.0628206878900528, -0.010081109590828419, 101.20454406738281],
    [0.06204543262720108, 1.8545914888381958, -0.7460837960243225, -70.80105590820312],
    [0.014086578041315079, 0.7460188865661621, 1.8556016683578491, -60.51971435546875],
    [0.0, 0.0, 0.0, 1.0]
],
  "dcmmeta_reorient_transform": [
    [0.0, -1.0, 0.0, 103.0],
    [1.0, 0.0, 0.0, 0.0],
    [0.0, 0.0, 1.0, 0.0],
    [0.0, 0.0, 0.0, 1.0]
],
  "dcmmeta_shape": [104, 104, 60, 483],
  "dcmmeta_slice_dim": 2,
  "dcmmeta_version": 0.6,
  "global": {
    "const": {
      "AcquisitionMatrix": [104, 0, 0, 104],
      "AngioFlag": "N",
      "BitsAllocated": 16,
      "BitsStored": 16,
      "BodyPartExamined": "BRAIN",
      "Columns": 832,
      "EchoNumbers": 1,
      "EchoTime": 37.0,
      "EchoTrainLength": 104,
      "FlipAngle": 52.0,
      "HighBit": 15,
      "ImageOrientationPatient": [0.99949386347216, -0.0310227168068, 0.00704328924709, 0.03141034370572, 0.92729571474294, -0.3730094472365],
      "ImagePositionPatient": [-858.17333881246, -772.70860617617, 282.74359572075],
      "ImageType": [
        "ORIGINAL",
        "PRIMARY",
        "M",
        "MB",
        "ND",
        "MOSAIC"
],
      "ImagedNucleus": "1H",
      "ImagingFrequency": 123.260211,
      "InPlanePhaseEncodingDirection": "COL",
      "MRAcquisitionType": "2D",
      "MagneticFieldStrength": 3.0,
      "Manufacturer": "SIEMENS",
      "ManufacturerModelName": "Prisma_fit",
      "Modality": "MR",
      "NumberOfAverages": 1.0,
      "NumberOfPhaseEncodingSteps": 104,
      "PercentPhaseFieldOfView": 100.0,
      "PercentSampling": 100.0,
      "PerformedProcedureStepStartTime": "170640.569000",
      "PhotometricInterpretation": "MONOCHROME2",
      "PixelBandwidth": 2290.0,
      "PixelRepresentation": 0,
      "PixelSpacing": [2.0, 2.0],
      "ProtocolName": "func_task-mariostars_run-02",
      "RepetitionTime": 1490.0,
      "Rows": 832,
      "SAR": 0.05585841049676,
      "SamplesPerPixel": 1,
      "ScanOptions": "FS",
      "ScanningSequence": "EP",
      "SequenceName": "epfid2d1_104",
      "SequenceVariant": [
        "SK",
        "SS"
],
      "SeriesDescription": "func_task-mariostars_run-02",
      "SeriesNumber": 14,
      "SeriesTime": "174532.505000",
      "SliceLocation": -30.248607680883,
      "SliceThickness": 2.0,
      "SmallestImagePixelValue": 0,
      "SoftwareVersions": "syngo MR E11",
      "SpacingBetweenSlices": 2.0000000346351,
      "SpecificCharacterSet": "ISO_IR 100",
      "StudyID": "1",
      "StudyTime": "170640.493000",
      "TransmitCoilName": "Body",
      "VariableFlipAngleFlag": "N",
      "WindowCenterWidthExplanation": "Algo1",
      "dBdt": 0.0},
    "slices": {}
  },
  "time": {
    "samples": {
      "AcquisitionNumber": [1, 2, 3, 4, 5, 6, 7, 8, 9, 10, 11, 12, 13, 14, 15, 16, 17, 18, 19, 20, 21, 22, 23, 24, 25, 26, 27, 28, 29, 30, 31, 32, 33, 34, 35, 36, 37, 38, 39, 40, 41, 42, 43, 44, 45, 46, 47, 48, 49, 50, 51, 52, 53, 54, 55, 56, 57, 58, 59, 60, 61, 62, 63, 64, 65, 66, 67, 68, 69, 70, 71, 72, 73, 74, 75, 76, 77, 78, 79, 80, 81, 82, 83, 84, 85, 86, 87, 88, 89, 90, 91, 92, 93, 94, 95, 96, 97, 98, 99, 100, 101, 102, 103, 104, 105, 106, 107, 108, 109, 110, 111, 112, 113, 114, 115, 116, 117, 118, 119, 120, 121, 122, 123, 124, 125, 126, 127, 128, 129, 130, 131, 132, 133, 134, 135, 136, 137, 138, 139, 140, 141, 142, 143, 144, 145, 146, 147, 148, 149, 150, 151, 152, 153, 154, 155, 156, 157, 158, 159, 160, 161, 162, 163, 164, 165, 166, 167, 168, 169, 170, 171, 172, 173, 174, 175, 176, 177, 178, 179, 180, 181, 182, 183, 184, 185, 186, 187, 188, 189, 190, 191, 192, 193, 194, 195, 196, 197, 198, 199, 200, 201, 202, 203, 204, 205, 206, 207, 208, 209, 210, 211, 212, 213, 214, 215, 216, 217, 218, 219, 220, 221, 222, 223, 224, 225, 226, 227, 228, 229, 230, 231, 232, 233, 234, 235, 236, 237, 238, 239, 240, 241, 242, 243, 244, 245, 246, 247, 248, 249, 250, 251, 252, 253, 254, 255, 256, 257, 258, 259, 260, 261, 262, 263, 264, 265, 266, 267, 268, 269, 270, 271, 272, 273, 274, 275, 276, 277, 278, 279, 280, 281, 282, 283, 284, 285, 286, 287, 288, 289, 290, 291, 292, 293, 294, 295, 296, 297, 298, 299, 300, 301, 302, 303, 304, 305, 306, 307, 308, 309, 310, 311, 312, 313, 314, 315, 316, 317, 318, 319, 320, 321, 322, 323, 324, 325, 326, 327, 328, 329, 330, 331, 332, 333, 334, 335, 336, 337, 338, 339, 340, 341, 342, 343, 344, 345, 346, 347, 348, 349, 350, 351, 352, 353, 354, 355, 356, 357, 358, 359, 360, 361, 362, 363, 364, 365, 366, 367, 368, 369, 370, 371, 372, 373, 374, 375, 376, 377, 378, 379, 380, 381, 382, 383, 384, 385, 386, 387, 388, 389, 390, 391, 392, 393, 394, 395, 396, 397, 398, 399, 400, 401, 402, 403, 404, 405, 406, 407, 408, 409, 410, 411, 412, 413, 414, 415, 416, 417, 418, 419, 420, 421, 422, 423, 424, 425, 426, 427, 428, 429, 430, 431, 432, 433, 434, 435, 436, 437, 438, 439, 440, 441, 442, 443, 444, 445, 446, 447, 448, 449, 450, 451, 452, 453, 454, 455, 456, 457, 458, 459, 460, 461, 462, 463, 464, 465, 466, 467, 468, 469, 470, 471, 472, 473, 474, 475, 476, 477, 478, 479, 480, 481, 482, 483],
      "AcquisitionTime": ["174435.170000", "174436.660000", "174438.150000", "174439.640000", "174441.130000", "174442.620000", "174444.110000", "174445.600000", "174447.090000", "174448.580000", "174450.070000", "174451.560000", "174453.050000", "174454.540000", "174456.030000", "174457.520000", "174459.010000", "174500.500000", "174501.990000", "174503.480000", "174504.970000", "174506.460000", "174507.950000", "174509.440000", "174510.930000", "174512.420000", "174513.910000", "174515.400000", "174516.890000", "174518.380000", "174519.870000", "174521.360000", "174522.850000", "174524.340000", "174525.830000", "174527.320000", "174528.810000", "174530.300000", "174531.790000", "174533.280000", "174534.770000", "174536.260000", "174537.750000", "174539.240000", "174540.730000", "174542.220000", "174543.710000", "174545.200000", "174546.690000", "174548.180000", "174549.670000", "174551.160000", "174552.650000", "174554.140000", "174555.630000", "174557.120000", "174558.610000", "174600.100000", "174601.590000", "174603.080000", "174604.570000", "174606.060000", "174607.550000", "174609.040000", "174610.530000", "174612.020000", "174613.510000", "174615.000000", "174616.490000", "174617.980000", "174619.470000", "174620.960000", "174622.450000", "174623.940000", "174625.430000", "174626.920000", "174628.410000", "174629.900000", "174631.390000", "174632.880000", "174634.370000", "174635.860000", "174637.350000", "174638.840000", "174640.330000", "174641.820000", "174643.310000", "174644.800000", "174646.290000", "174647.780000", "174649.270000", "174650.760000", "174652.250000", "174653.740000", "174655.230000", "174656.720000", "174658.210000", "174659.700000", "174701.190000", "174702.680000", "174704.170000", "174705.660000", "174707.150000", "174708.640000", "174710.130000", "174711.620000", "174713.110000", "174714.600000", "174716.090000", "174717.580000", "174719.070000", "174720.560000", "174722.050000", "174723.540000", "174725.030000", "174726.520000", "174728.010000", "174729.500000", "174730.990000", "174732.480000", "174733.970000", "174735.460000", "174736.950000", "174738.440000", "174739.930000", "174741.420000", "174742.910000", "174744.400000", "174745.890000", "174747.380000", "174748.870000", "174750.360000", "174751.850000", "174753.340000", "174754.830000", "174756.320000", "174757.810000", "174759.300000", "174800.790000", "174802.280000", "174803.770000", "174805.260000", "174806.750000", "174808.240000", "174809.730000", "174811.220000", "174812.710000", "174814.200000", "174815.690000", "174817.180000", "174818.670000", "174820.160000", "174821.650000", "174823.140000", "174824.630000", "174826.120000", "174827.610000", "174829.100000", "174830.590000", "174832.080000", "174833.570000", "174835.060000", "174836.550000", "174838.040000", "174839.530000", "174841.020000", "174842.510000", "174844.000000", "174845.490000", "174846.980000", "174848.470000", "174849.960000", "174851.450000", "174852.940000", "174854.430000", "174855.920000", "174857.410000", "174858.900000", "174900.390000", "174901.880000", "174903.370000", "174904.860000", "174906.350000", "174907.840000", "174909.330000", "174910.820000", "174912.310000", "174913.800000", "174915.290000", "174916.780000", "174918.270000", "174919.760000", "174921.250000", "174922.740000", "174924.230000", "174925.720000", "174927.210000", "174928.700000", "174930.190000", "174931.680000", "174933.170000", "174934.660000", "174936.150000", "174937.640000", "174939.130000", "174940.620000", "174942.110000", "174943.600000", "174945.090000", "174946.580000", "174948.070000", "174949.560000", "174951.050000", "174952.540000", "174954.030000", "174955.520000", "174957.010000", "174958.500000", "174959.990000", "175001.480000", "175002.970000", "175004.460000", "175005.950000", "175007.440000", "175008.930000", "175010.420000", "175011.910000", "175013.400000", "175014.890000", "175016.380000", "175017.870000", "175019.360000", "175020.850000", "175022.340000", "175023.830000", "175025.320000", "175026.810000", "175028.300000", "175029.790000", "175031.280000", "175032.770000", "175034.260000", "175035.750000", "175037.240000", "175038.730000", "175040.220000", "175041.710000", "175043.200000", "175044.690000", "175046.180000", "175047.670000", "175049.160000", "175050.650000", "175052.140000", "175053.630000", "175055.120000", "175056.610000", "175058.100000", "175059.590000", "175101.080000", "175102.570000", "175104.060000", "175105.550000", "175107.040000", "175108.530000", "175110.020000", "175111.510000", "175113.000000", "175114.490000", "175115.980000", "175117.470000", "175118.960000", "175120.450000", "175121.940000", "175123.430000", "175124.920000", "175126.410000", "175127.900000", "175129.390000", "175130.880000", "175132.370000", "175133.860000", "175135.350000", "175136.840000", "175138.330000", "175139.820000", "175141.310000", "175142.800000", "175144.290000", "175145.780000", "175147.270000", "175148.760000", "175150.250000", "175151.740000", "175153.230000", "175154.720000", "175156.210000", "175157.700000", "175159.190000", "175200.680000", "175202.170000", "175203.660000", "175205.150000", "175206.640000", "175208.130000", "175209.620000", "175211.110000", "175212.600000", "175214.090000", "175215.580000", "175217.070000", "175218.560000", "175220.050000", "175221.540000", "175223.030000", "175224.520000", "175226.010000", "175227.500000", "175228.990000", "175230.480000", "175231.970000", "175233.460000", "175234.950000", "175236.440000", "175237.930000", "175239.420000", "175240.910000", "175242.400000", "175243.890000", "175245.380000", "175246.870000", "175248.360000", "175249.850000", "175251.340000", "175252.830000", "175254.320000", "175255.810000", "175257.300000", "175258.790000", "175300.280000", "175301.770000", "175303.260000", "175304.750000", "175306.240000", "175307.730000", "175309.220000", "175310.710000", "175312.200000", "175313.690000", "175315.180000", "175316.670000", "175318.160000", "175319.650000", "175321.140000", "175322.630000", "175324.120000", "175325.610000", "175327.100000", "175328.590000", "175330.080000", "175331.570000", "175333.060000", "175334.550000", "175336.040000", "175337.530000", "175339.020000", "175340.510000", "175342.000000", "175343.490000", "175344.980000", "175346.470000", "175347.960000", "175349.450000", "175350.940000", "175352.430000", "175353.920000", "175355.410000", "175356.900000", "175358.390000", "175359.880000", "175401.370000", "175402.860000", "175404.350000", "175405.840000", "175407.330000", "175408.820000", "175410.310000", "175411.800000", "175413.290000", "175414.780000", "175416.270000", "175417.760000", "175419.250000", "175420.740000", "175422.230000", "175423.720000", "175425.210000", "175426.700000", "175428.190000", "175429.680000", "175431.170000", "175432.660000", "175434.150000", "175435.640000", "175437.130000", "175438.620000", "175440.110000", "175441.600000", "175443.090000", "175444.580000", "175446.070000", "175447.560000", "175449.050000", "175450.540000", "175452.030000", "175453.520000", "175455.010000", "175456.500000", "175457.990000", "175459.480000", "175500.970000", "175502.460000", "175503.950000", "175505.440000", "175506.930000", "175508.420000", "175509.910000", "175511.400000", "175512.890000", "175514.380000", "175515.870000", "175517.360000", "175518.850000", "175520.340000", "175521.830000", "175523.320000", "175524.810000", "175526.300000", "175527.790000", "175529.280000", "175530.770000", "175532.260000", "175533.750000", "175535.240000", "175536.730000", "175538.220000", "175539.710000", "175541.200000", "175542.690000", "175544.180000", "175545.670000", "175547.160000", "175548.650000", "175550.140000", "175551.630000", "175553.120000", "175554.610000", "175556.100000", "175557.590000", "175559.080000", "175600.570000", "175602.060000", "175603.550000", "175605.040000", "175606.530000", "175608.020000", "175609.510000", "175611.000000", "175612.490000", "175613.980000", "175615.470000", "175616.960000", "175618.450000", "175619.940000", "175621.430000", "175622.920000", "175624.410000", "175625.900000", "175627.390000", "175628.880000", "175630.370000", "175631.860000", "175633.350000"],
      "ContentTime": ["174532.508000", "174532.512000", "174532.515000", "174532.519000", "174532.522000", "174532.525000", "174532.528000", "174532.532000", "174532.542000", "174532.545000", "174552.469000", "174552.473000", "174552.476000", "174552.479000", "174552.483000", "174552.486000", "174552.489000", "174552.492000", "174552.496000", "174552.499000", "174552.502000", "174552.505000", "174552.509000", "174552.512000", "174552.515000", "174552.519000", "174552.522000", "174552.525000", "174552.528000", "174552.532000", "174612.469000", "174612.473000", "174612.476000", "174612.479000", "174612.483000", "174612.486000", "174612.489000", "174612.492000", "174612.496000", "174612.499000", "174612.507000", "174612.510000", "174612.514000", "174612.517000", "174612.521000", "174612.526000", "174612.529000", "174612.532000", "174612.536000", "174612.539000", "174632.469000", "174632.474000", "174632.477000", "174632.481000", "174632.484000", "174632.487000", "174632.490000", "174632.494000", "174632.497000", "174632.500000", "174632.504000", "174632.507000", "174632.510000", "174632.513000", "174632.517000", "174632.520000", "174632.523000", "174632.527000", "174632.530000", "174632.533000", "174632.536000", "174652.468000", "174652.472000", "174652.475000", "174652.478000", "174652.481000", "174652.485000", "174652.488000", "174652.491000", "174652.495000", "174652.498000", "174652.501000", "174652.504000", "174652.508000", "174652.511000", "174652.514000", "174652.517000", "174652.521000", "174652.524000", "174652.527000", "174652.530000", "174732.469000", "174732.473000", "174732.476000", "174732.479000", "174732.483000", "174732.486000", "174732.489000", "174732.492000", "174732.496000", "174732.499000", "174732.502000", "174732.506000", "174732.510000", "174732.513000", "174732.517000", "174732.520000", "174732.523000", "174732.526000", "174732.530000", "174732.533000", "174732.536000", "174732.539000", "174732.543000", "174732.546000", "174732.549000", "174732.552000", "174732.556000", "174812.469000", "174812.473000", "174812.476000", "174812.479000", "174812.483000", "174812.486000", "174812.489000", "174812.493000", "174812.496000", "174812.499000", "174812.502000", "174812.506000", "174812.509000", "174812.512000", "174812.515000", "174812.519000", "174812.522000", "174812.525000", "174812.529000", "174812.532000", "174812.535000", "174812.538000", "174812.542000", "174812.545000", "174812.548000", "174812.551000", "174812.555000", "174852.469000", "174852.473000", "174852.476000", "174852.479000", "174852.483000", "174852.486000", "174852.489000", "174852.493000", "174852.496000", "174852.499000", "174852.502000", "174852.506000", "174852.509000", "174852.512000", "174852.516000", "174852.519000", "174852.522000", "174852.525000", "174852.529000", "174852.533000", "174852.536000", "174852.539000", "174852.543000", "174852.546000", "174852.549000", "174852.552000", "174852.556000", "174932.469000", "174932.473000", "174932.476000", "174932.479000", "174932.483000", "174932.486000", "174932.489000", "174932.493000", "174932.496000", "174932.499000", "174932.502000", "174932.506000", "174932.509000", "174932.512000", "174932.515000", "174932.519000", "174932.522000", "174932.538000", "174932.541000", "174932.544000", "174932.548000", "174932.551000", "174932.555000", "174932.558000", "174932.561000", "174932.564000", "174932.568000", "175012.469000", "175012.473000", "175012.476000", "175012.480000", "175012.483000", "175012.486000", "175012.489000", "175012.493000", "175012.496000", "175012.499000", "175012.503000", "175012.506000", "175012.509000", "175012.512000", "175012.516000", "175012.519000", "175012.522000", "175012.525000", "175012.529000", "175012.532000", "175012.535000", "175012.538000", "175012.542000", "175012.545000", "175012.548000", "175012.552000", "175012.555000", "175052.469000", "175052.473000", "175052.476000", "175052.480000", "175052.483000", "175052.486000", "175052.489000", "175052.493000", "175052.496000", "175052.499000", "175052.503000", "175052.506000", "175052.509000", "175052.513000", "175052.516000", "175052.519000", "175052.522000", "175052.526000", "175052.529000", "175052.532000", "175052.536000", "175052.539000", "175052.542000", "175052.545000", "175052.549000", "175052.552000", "175052.555000", "175132.468000", "175132.472000", "175132.475000", "175132.478000", "175132.482000", "175132.485000", "175132.488000", "175132.492000", "175132.495000", "175132.498000", "175132.501000", "175132.505000", "175132.508000", "175132.511000", "175132.515000", "175132.519000", "175132.522000", "175132.525000", "175132.529000", "175132.532000", "175132.535000", "175132.539000", "175132.543000", "175132.547000", "175132.550000", "175132.553000", "175212.469000", "175212.473000", "175212.476000", "175212.480000", "175212.483000", "175212.486000", "175212.490000", "175212.507000", "175212.511000", "175212.514000", "175212.517000", "175212.521000", "175212.524000", "175212.527000", "175212.531000", "175212.534000", "175212.537000", "175212.540000", "175212.544000", "175212.547000", "175212.550000", "175212.554000", "175212.557000", "175212.560000", "175212.563000", "175212.567000", "175212.570000", "175252.469000", "175252.473000", "175252.476000", "175252.480000", "175252.483000", "175252.486000", "175252.490000", "175252.493000", "175252.497000", "175252.500000", "175252.503000", "175252.506000", "175252.510000", "175252.513000", "175252.516000", "175252.520000", "175252.523000", "175252.526000", "175252.530000", "175252.533000", "175252.536000", "175252.540000", "175252.543000", "175252.546000", "175252.550000", "175252.553000", "175252.556000", "175332.469000", "175332.473000", "175332.476000", "175332.480000", "175332.483000", "175332.486000", "175332.490000", "175332.493000", "175332.496000", "175332.500000", "175332.503000", "175332.507000", "175332.510000", "175332.513000", "175332.517000", "175332.520000", "175332.523000", "175332.526000", "175332.530000", "175332.533000", "175332.536000", "175332.540000", "175332.543000", "175332.546000", "175332.550000", "175332.553000", "175332.556000", "175412.469000", "175412.473000", "175412.476000", "175412.480000", "175412.483000", "175412.486000", "175412.490000", "175412.493000", "175412.497000", "175412.501000", "175412.504000", "175412.508000", "175412.511000", "175412.514000", "175412.517000", "175412.521000", "175412.524000", "175412.527000", "175412.544000", "175412.547000", "175412.550000", "175412.554000", "175412.557000", "175412.560000", "175412.563000", "175412.567000", "175412.570000", "175452.469000", "175452.473000", "175452.476000", "175452.480000", "175452.483000", "175452.486000", "175452.489000", "175452.493000", "175452.496000", "175452.499000", "175452.503000", "175452.506000", "175452.509000", "175452.513000", "175452.516000", "175452.519000", "175452.522000", "175452.526000", "175452.529000", "175452.532000", "175452.536000", "175452.539000", "175452.542000", "175452.546000", "175452.549000", "175452.552000", "175452.556000", "175532.469000", "175532.473000", "175532.476000", "175532.479000", "175532.483000", "175532.486000", "175532.489000", "175532.493000", "175532.496000", "175532.499000", "175532.503000", "175532.506000", "175532.509000", "175532.513000", "175532.516000", "175532.519000", "175532.522000", "175532.526000", "175532.529000", "175532.532000", "175532.536000", "175532.539000", "175532.542000", "175532.545000", "175532.549000", "175532.552000", "175532.555000", "175612.469000", "175612.473000", "175612.476000", "175612.480000", "175612.483000", "175612.486000", "175612.489000", "175612.493000", "175612.496000", "175612.499000", "175612.503000", "175612.506000", "175612.510000", "175612.514000", "175612.517000", "175612.520000", "175612.524000", "175612.527000", "175612.530000", "175612.534000", "175612.537000", "175612.540000", "175612.544000", "175612.564000", "175612.568000", "175612.571000", "175635.831000", "175635.834000", "175635.838000", "175635.841000", "175635.844000", "175635.848000", "175635.851000", "175635.854000", "175635.858000", "175635.861000", "175635.864000", "175635.868000", "175635.871000", "175635.874000", "175635.877000", "175635.881000"],
