{
  "AcquisitionMatrixPE": 104,
  "AcquisitionNumber": 1,
  "AcquisitionTime": "18:52:51.210000",
  "BandwidthPerPixelPhaseEncode": 17.17,
  "BaseResolution": 104,
  "BodyPartExamined": "BRAIN",
  "CoilCombinationMethod": "Sum of Squares",
  "ConsistencyInfo": "N4_VE11C_LATEST_20160120",
  "ConversionSoftware": "dcm2niix",
  "ConversionSoftwareVersion": "v1.0.20220505",
  "DerivedVendorReportedEchoSpacing": 0.000560011,
  "DeviceSerialNumber": "167006",
  "DwellTime": 2.1e-06,
  "EchoTime": 0.037,
  "EchoTime1": 0.037,
  "EchoTime2": 0.001,
  "EchoTrainLength": 104,
  "EffectiveEchoSpacing": 0.000560011,
  "FlipAngle": 52,
  "HeudiconvVersion": "0.5.3.post811+g6206e14",
  "ImageComments": "Unaliased MB4/PE3/LB",
  "ImageOrientationPatientDICOM": [0.999494, -0.0310227, 0.00704329, 0.0314103, 0.927296, -0.373009],
  "ImageOrientationText": "Tra>Cor(-21.9)>Sag(-0.3)",
  "ImageType": [
    "ORIGINAL",
    "PRIMARY",
    "P",
    "MB",
    "ND",
    "MOSAIC",
    "PHASE"
],
  "ImagingFrequency": 123.26,
  "InPlanePhaseEncodingDirectionDICOM": "COL",
  "InstitutionAddress": "Chemin Queen-Mary 4565,Montreal,District,CA,H3W 1W5",
  "InstitutionName": "IUGM",
  "InstitutionalDepartmentName": "Department",
  "MRAcquisitionType": "2D",
  "MagneticFieldStrength": 3,
  "Manufacturer": "Siemens",
  "ManufacturersModelName": "Prisma_fit",
  "MatrixCoilMode": "SENSE",
  "Modality": "MR",
  "MultibandAccelerationFactor": 4,
  "PartialFourier": 1,
  "PatientPosition": "HFS",
  "PercentPhaseFOV": 100,
  "PercentSampling": 100,
  "PhaseEncodingDirection": "j",
  "PhaseEncodingSteps": 104,
  "PhaseResolution": 1,
  "PixelBandwidth": 2290,
  "ProcedureStepDescription": "games^mariostars",
  "ProtocolName": "func_task-mariostars_run-07",
  "PulseSequenceDetails": "%CustomerSeq%\\cmrr_mbep2d_bold",
  "ReceiveCoilActiveElements": "HC1-7;NC1,2",
  "ReceiveCoilName": "HeadNeck_64",
  "ReconMatrixPE": 104,
  "RepetitionTime": 1.49,
  "SAR": 0.0558584,
  "ScanOptions": "FS",
  "ScanningSequence": "EP",
  "SequenceName": "epfid2d1_104",
  "SequenceVariant": "SK\\SS",
  "SeriesDescription": "func_task-mariostars_run-07",
  "SeriesNumber": 30,
  "ShimSetting": [601, -7251, -8798, 458, 24, -310, 15, 44],
  "SliceThickness": 2,
  "SliceTiming": [0, 0.7825, 0.0975, 0.8825, 0.195, 0.98, 0.2925, 1.0775, 0.3925, 1.175, 0.49, 1.2725, 0.5875, 1.3725, 0.685, 0, 0.7825, 0.0975, 0.8825, 0.195, 0.98, 0.2925, 1.0775, 0.3925, 1.175, 0.49, 1.2725, 0.5875, 1.3725, 0.685, 0, 0.7825, 0.0975, 0.8825, 0.195, 0.98, 0.2925, 1.0775, 0.3925, 1.175, 0.49, 1.2725, 0.5875, 1.3725, 0.685, 0, 0.7825, 0.0975, 0.8825, 0.195, 0.98, 0.2925, 1.0775, 0.3925, 1.175, 0.49, 1.2725, 0.5875, 1.3725, 0.685],
  "SoftwareVersions": "syngo MR E11",
  "SpacingBetweenSlices": 2,
  "StationName": "MRC35049",
  "TaskName": "mariostars",
  "TotalReadoutTime": 0.0576811,
  "TxRefAmp": 265.677,
  "WipMemBlock": "18497a0b-a1ee-4c19-a082-c4edf4979337||Sequence: R017 ve11c/master r/75a17815+; Jun 28 2022 16:32:11 by eja",
  "dcmmeta_affine": [
    [-1.9989876747131348, 0.0628206878900528, -0.010081109590828419, 101.20454406738281],
    [0.06204543262720108, 1.8545914888381958, -0.7460837960243225, -70.80105590820312],
    [0.014086578041315079, 0.7460188865661621, 1.8556016683578491, -60.51971435546875],
    [0.0, 0.0, 0.0, 1.0]
],
  "dcmmeta_reorient_transform": [
    [0.0, -1.0, 0.0, 103.0],
    [1.0, 0.0, 0.0, 0.0],
    [0.0, 0.0, 1.0, 0.0],
    [0.0, 0.0, 0.0, 1.0]
],
  "dcmmeta_shape": [104, 104, 60, 486],
  "dcmmeta_slice_dim": 2,
  "dcmmeta_version": 0.6,
  "global": {
    "const": {
      "AcquisitionMatrix": [104, 0, 0, 104],
      "AngioFlag": "N",
      "BitsAllocated": 16,
      "BitsStored": 16,
      "BodyPartExamined": "BRAIN",
      "Columns": 832,
      "EchoNumbers": 1,
      "EchoTime": 37.0,
      "EchoTrainLength": 104,
      "FlipAngle": 52.0,
      "HighBit": 15,
      "ImageOrientationPatient": [0.99949386347216, -0.0310227168068, 0.00704328924709, 0.03141034370572, 0.92729571474294, -0.3730094472365],
      "ImagePositionPatient": [-858.17333881246, -772.70860617617, 282.74359572075],
      "ImageType": [
        "ORIGINAL",
        "PRIMARY",
        "P",
        "MB",
        "ND",
        "MOSAIC"
],
      "ImagedNucleus": "1H",
      "ImagingFrequency": 123.260229,
      "InPlanePhaseEncodingDirection": "COL",
      "LargestImagePixelValue": 4095,
      "MRAcquisitionType": "2D",
      "MagneticFieldStrength": 3.0,
      "Manufacturer": "SIEMENS",
      "ManufacturerModelName": "Prisma_fit",
      "Modality": "MR",
      "NumberOfAverages": 1.0,
      "NumberOfPhaseEncodingSteps": 104,
      "PercentPhaseFieldOfView": 100.0,
      "PercentSampling": 100.0,
      "PerformedProcedureStepStartTime": "170640.569000",
      "PhotometricInterpretation": "MONOCHROME2",
      "PixelBandwidth": 2290.0,
      "PixelRepresentation": 0,
      "PixelSpacing": [2.0, 2.0],
      "ProtocolName": "func_task-mariostars_run-07",
      "RepetitionTime": 1490.0,
      "RescaleIntercept": -4096.0,
      "RescaleSlope": 2.0,
      "RescaleType": "US",
      "Rows": 832,
      "SAR": 0.05585841049676,
      "SamplesPerPixel": 1,
      "ScanOptions": "FS",
      "ScanningSequence": "EP",
      "SequenceName": "epfid2d1_104",
      "SequenceVariant": [
        "SK",
        "SS"
],
      "SeriesDescription": "func_task-mariostars_run-07",
      "SeriesNumber": 30,
      "SeriesTime": "185409.474000",
      "SliceLocation": -30.248607680883,
      "SliceThickness": 2.0,
      "SmallestImagePixelValue": 0,
      "SoftwareVersions": "syngo MR E11",
      "SpacingBetweenSlices": 2.0000000346351,
      "SpecificCharacterSet": "ISO_IR 100",
      "StudyID": "1",
      "StudyTime": "170640.493000",
      "TransmitCoilName": "Body",
      "VariableFlipAngleFlag": "N",
      "WindowCenterWidthExplanation": "Algo1",
      "dBdt": 0.0},
    "slices": {}
  },
  "time": {
    "samples": {
      "AcquisitionNumber": [1, 2, 3, 4, 5, 6, 7, 8, 9, 10, 11, 12, 13, 14, 15, 16, 17, 18, 19, 20, 21, 22, 23, 24, 25, 26, 27, 28, 29, 30, 31, 32, 33, 34, 35, 36, 37, 38, 39, 40, 41, 42, 43, 44, 45, 46, 47, 48, 49, 50, 51, 52, 53, 54, 55, 56, 57, 58, 59, 60, 61, 62, 63, 64, 65, 66, 67, 68, 69, 70, 71, 72, 73, 74, 75, 76, 77, 78, 79, 80, 81, 82, 83, 84, 85, 86, 87, 88, 89, 90, 91, 92, 93, 94, 95, 96, 97, 98, 99, 100, 101, 102, 103, 104, 105, 106, 107, 108, 109, 110, 111, 112, 113, 114, 115, 116, 117, 118, 119, 120, 121, 122, 123, 124, 125, 126, 127, 128, 129, 130, 131, 132, 133, 134, 135, 136, 137, 138, 139, 140, 141, 142, 143, 144, 145, 146, 147, 148, 149, 150, 151, 152, 153, 154, 155, 156, 157, 158, 159, 160, 161, 162, 163, 164, 165, 166, 167, 168, 169, 170, 171, 172, 173, 174, 175, 176, 177, 178, 179, 180, 181, 182, 183, 184, 185, 186, 187, 188, 189, 190, 191, 192, 193, 194, 195, 196, 197, 198, 199, 200, 201, 202, 203, 204, 205, 206, 207, 208, 209, 210, 211, 212, 213, 214, 215, 216, 217, 218, 219, 220, 221, 222, 223, 224, 225, 226, 227, 228, 229, 230, 231, 232, 233, 234, 235, 236, 237, 238, 239, 240, 241, 242, 243, 244, 245, 246, 247, 248, 249, 250, 251, 252, 253, 254, 255, 256, 257, 258, 259, 260, 261, 262, 263, 264, 265, 266, 267, 268, 269, 270, 271, 272, 273, 274, 275, 276, 277, 278, 279, 280, 281, 282, 283, 284, 285, 286, 287, 288, 289, 290, 291, 292, 293, 294, 295, 296, 297, 298, 299, 300, 301, 302, 303, 304, 305, 306, 307, 308, 309, 310, 311, 312, 313, 314, 315, 316, 317, 318, 319, 320, 321, 322, 323, 324, 325, 326, 327, 328, 329, 330, 331, 332, 333, 334, 335, 336, 337, 338, 339, 340, 341, 342, 343, 344, 345, 346, 347, 348, 349, 350, 351, 352, 353, 354, 355, 356, 357, 358, 359, 360, 361, 362, 363, 364, 365, 366, 367, 368, 369, 370, 371, 372, 373, 374, 375, 376, 377, 378, 379, 380, 381, 382, 383, 384, 385, 386, 387, 388, 389, 390, 391, 392, 393, 394, 395, 396, 397, 398, 399, 400, 401, 402, 403, 404, 405, 406, 407, 408, 409, 410, 411, 412, 413, 414, 415, 416, 417, 418, 419, 420, 421, 422, 423, 424, 425, 426, 427, 428, 429, 430, 431, 432, 433, 434, 435, 436, 437, 438, 439, 440, 441, 442, 443, 444, 445, 446, 447, 448, 449, 450, 451, 452, 453, 454, 455, 456, 457, 458, 459, 460, 461, 462, 463, 464, 465, 466, 467, 468, 469, 470, 471, 472, 473, 474, 475, 476, 477, 478, 479, 480, 481, 482, 483, 484, 485, 486],
      "AcquisitionTime": ["185251.210000", "185252.700000", "185254.190000", "185255.680000", "185257.170000", "185258.660000", "185300.150000", "185301.640000", "185303.130000", "185304.620000", "185306.110000", "185307.600000", "185309.090000", "185310.580000", "185312.070000", "185313.560000", "185315.050000", "185316.540000", "185318.030000", "185319.520000", "185321.010000", "185322.500000", "185323.990000", "185325.480000", "185326.970000", "185328.460000", "185329.950000", "185331.440000", "185332.930000", "185334.420000", "185335.910000", "185337.400000", "185338.890000", "185340.380000", "185341.870000", "185343.360000", "185344.850000", "185346.340000", "185347.830000", "185349.320000", "185350.810000", "185352.300000", "185353.790000", "185355.280000", "185356.770000", "185358.260000", "185359.750000", "185401.240000", "185402.730000", "185404.220000", "185405.710000", "185407.200000", "185408.690000", "185410.180000", "185411.670000", "185413.160000", "185414.650000", "185416.140000", "185417.630000", "185419.120000", "185420.610000", "185422.100000", "185423.590000", "185425.080000", "185426.570000", "185428.060000", "185429.550000", "185431.040000", "185432.530000", "185434.020000", "185435.510000", "185437.000000", "185438.490000", "185439.980000", "185441.470000", "185442.960000", "185444.450000", "185445.940000", "185447.430000", "185448.920000", "185450.410000", "185451.900000", "185453.390000", "185454.880000", "185456.370000", "185457.860000", "185459.350000", "185500.840000", "185502.330000", "185503.820000", "185505.310000", "185506.800000", "185508.290000", "185509.780000", "185511.270000", "185512.760000", "185514.250000", "185515.740000", "185517.230000", "185518.720000", "185520.210000", "185521.700000", "185523.190000", "185524.680000", "185526.170000", "185527.660000", "185529.150000", "185530.640000", "185532.130000", "185533.620000", "185535.110000", "185536.600000", "185538.090000", "185539.580000", "185541.070000", "185542.560000", "185544.050000", "185545.540000", "185547.030000", "185548.520000", "185550.010000", "185551.500000", "185552.990000", "185554.480000", "185555.970000", "185557.460000", "185558.950000", "185600.440000", "185601.930000", "185603.420000", "185604.910000", "185606.400000", "185607.890000", "185609.380000", "185610.870000", "185612.360000", "185613.850000", "185615.340000", "185616.830000", "185618.320000", "185619.810000", "185621.300000", "185622.790000", "185624.280000", "185625.770000", "185627.260000", "185628.750000", "185630.240000", "185631.730000", "185633.220000", "185634.710000", "185636.200000", "185637.690000", "185639.180000", "185640.670000", "185642.160000", "185643.650000", "185645.140000", "185646.630000", "185648.120000", "185649.610000", "185651.100000", "185652.590000", "185654.080000", "185655.570000", "185657.060000", "185658.550000", "185700.040000", "185701.530000", "185703.020000", "185704.510000", "185706.000000", "185707.490000", "185708.980000", "185710.470000", "185711.960000", "185713.450000", "185714.940000", "185716.430000", "185717.920000", "185719.410000", "185720.900000", "185722.390000", "185723.880000", "185725.370000", "185726.860000", "185728.350000", "185729.840000", "185731.330000", "185732.820000", "185734.310000", "185735.800000", "185737.290000", "185738.780000", "185740.270000", "185741.760000", "185743.250000", "185744.740000", "185746.230000", "185747.720000", "185749.210000", "185750.700000", "185752.190000", "185753.680000", "185755.170000", "185756.660000", "185758.150000", "185759.640000", "185801.130000", "185802.620000", "185804.110000", "185805.600000", "185807.090000", "185808.580000", "185810.070000", "185811.560000", "185813.050000", "185814.540000", "185816.030000", "185817.520000", "185819.010000", "185820.500000", "185821.990000", "185823.480000", "185824.970000", "185826.460000", "185827.950000", "185829.440000", "185830.930000", "185832.420000", "185833.910000", "185835.400000", "185836.890000", "185838.380000", "185839.870000", "185841.360000", "185842.850000", "185844.340000", "185845.830000", "185847.320000", "185848.810000", "185850.300000", "185851.790000", "185853.280000", "185854.770000", "185856.260000", "185857.750000", "185859.240000", "185900.730000", "185902.220000", "185903.710000", "185905.200000", "185906.690000", "185908.180000", "185909.670000", "185911.160000", "185912.650000", "185914.140000", "185915.630000", "185917.120000", "185918.610000", "185920.100000", "185921.590000", "185923.080000", "185924.570000", "185926.060000", "185927.550000", "185929.040000", "185930.530000", "185932.020000", "185933.510000", "185935.000000", "185936.490000", "185937.980000", "185939.470000", "185940.960000", "185942.450000", "185943.940000", "185945.430000", "185946.920000", "185948.410000", "185949.900000", "185951.390000", "185952.880000", "185954.370000", "185955.860000", "185957.350000", "185958.840000", "190000.330000", "190001.820000", "190003.310000", "190004.800000", "190006.290000", "190007.780000", "190009.270000", "190010.760000", "190012.250000", "190013.740000", "190015.230000", "190016.720000", "190018.210000", "190019.700000", "190021.190000", "190022.680000", "190024.170000", "190025.660000", "190027.150000", "190028.640000", "190030.130000", "190031.620000", "190033.110000", "190034.600000", "190036.090000", "190037.580000", "190039.070000", "190040.560000", "190042.050000", "190043.540000", "190045.030000", "190046.520000", "190048.010000", "190049.500000", "190050.990000", "190052.480000", "190053.970000", "190055.460000", "190056.950000", "190058.440000", "190059.930000", "190101.420000", "190102.910000", "190104.400000", "190105.890000", "190107.380000", "190108.870000", "190110.360000", "190111.850000", "190113.340000", "190114.830000", "190116.320000", "190117.810000", "190119.300000", "190120.790000", "190122.280000", "190123.770000", "190125.260000", "190126.750000", "190128.240000", "190129.730000", "190131.220000", "190132.710000", "190134.200000", "190135.690000", "190137.180000", "190138.670000", "190140.160000", "190141.650000", "190143.140000", "190144.630000", "190146.120000", "190147.610000", "190149.100000", "190150.590000", "190152.080000", "190153.570000", "190155.060000", "190156.550000", "190158.040000", "190159.530000", "190201.020000", "190202.510000", "190204.000000", "190205.490000", "190206.980000", "190208.470000", "190209.960000", "190211.450000", "190212.940000", "190214.430000", "190215.920000", "190217.410000", "190218.900000", "190220.390000", "190221.880000", "190223.370000", "190224.860000", "190226.350000", "190227.840000", "190229.330000", "190230.820000", "190232.310000", "190233.800000", "190235.290000", "190236.780000", "190238.270000", "190239.760000", "190241.250000", "190242.740000", "190244.230000", "190245.720000", "190247.210000", "190248.700000", "190250.190000", "190251.680000", "190253.170000", "190254.660000", "190256.150000", "190257.640000", "190259.130000", "190300.620000", "190302.110000", "190303.600000", "190305.090000", "190306.580000", "190308.070000", "190309.560000", "190311.050000", "190312.540000", "190314.030000", "190315.520000", "190317.010000", "190318.500000", "190319.990000", "190321.480000", "190322.970000", "190324.460000", "190325.950000", "190327.440000", "190328.930000", "190330.420000", "190331.910000", "190333.400000", "190334.890000", "190336.380000", "190337.870000", "190339.360000", "190340.850000", "190342.340000", "190343.830000", "190345.320000", "190346.810000", "190348.300000", "190349.790000", "190351.280000", "190352.770000", "190354.260000", "190355.750000", "190357.240000", "190358.730000", "190400.220000", "190401.710000", "190403.200000", "190404.690000", "190406.180000", "190407.670000", "190409.160000", "190410.650000", "190412.140000", "190413.630000", "190415.120000", "190416.610000", "190418.100000", "190419.590000", "190421.080000", "190422.570000", "190424.060000", "190425.550000", "190427.040000", "190428.530000", "190430.020000", "190431.510000", "190433.000000", "190434.490000", "190435.980000", "190437.470000", "190438.960000", "190440.450000", "190441.940000", "190443.430000", "190444.920000", "190446.410000", "190447.900000", "190449.390000", "190450.880000", "190452.370000", "190453.860000"],
      "ContentTime": ["185409.477000", "185409.479000", "185409.482000", "185409.484000", "185409.487000", "185409.496000", "185409.499000", "185409.501000", "185409.504000", "185409.506000", "185409.509000", "185409.511000", "185409.514000", "185409.516000", "185409.519000", "185409.521000", "185409.523000", "185409.526000", "185409.528000", "185409.531000", "185409.533000", "185409.536000", "185409.538000", "185409.548000", "185409.550000", "185409.553000", "185409.555000", "185409.558000", "185409.560000", "185429.389000", "185429.392000", "185429.395000", "185429.397000", "185429.400000", "185429.402000", "185429.405000", "185429.407000", "185429.410000", "185429.416000", "185429.418000", "185429.421000", "185429.423000", "185429.426000", "185429.428000", "185429.431000", "185429.433000", "185429.436000", "185429.438000", "185429.441000", "185449.394000", "185449.397000", "185449.400000", "185449.402000", "185449.405000", "185449.407000", "185449.415000", "185449.417000", "185449.420000", "185449.422000", "185449.425000", "185449.427000", "185449.430000", "185449.432000", "185449.435000", "185449.437000", "185449.440000", "185449.442000", "185449.445000", "185449.447000", "185509.393000", "185509.396000", "185509.398000", "185509.401000", "185509.403000", "185509.406000", "185509.408000", "185509.411000", "185509.413000", "185509.416000", "185509.418000", "185509.421000", "185509.423000", "185509.426000", "185509.428000", "185509.431000", "185509.433000", "185509.436000", "185509.439000", "185509.441000", "185549.448000", "185549.451000", "185549.453000", "185549.456000", "185549.458000", "185549.461000", "185549.472000", "185549.474000", "185549.477000", "185549.479000", "185549.482000", "185549.484000", "185549.487000", "185549.489000", "185549.492000", "185549.494000", "185549.497000", "185549.499000", "185549.502000", "185549.504000", "185549.507000", "185549.517000", "185549.519000", "185549.522000", "185549.524000", "185549.527000", "185549.529000", "185549.531000", "185549.534000", "185549.536000", "185629.483000", "185629.486000", "185629.488000", "185629.491000", "185629.493000", "185629.496000", "185629.498000", "185629.501000", "185629.503000", "185629.506000", "185629.513000", "185629.515000", "185629.517000", "185629.520000", "185629.523000", "185629.525000", "185629.528000", "185629.530000", "185629.533000", "185629.535000", "185629.538000", "185629.540000", "185629.543000", "185629.545000", "185629.548000", "185629.550000", "185709.440000", "185709.443000", "185709.445000", "185709.448000", "185709.450000", "185709.453000", "185709.456000", "185709.458000", "185709.460000", "185709.463000", "185709.466000", "185709.468000", "185709.470000", "185709.473000", "185709.476000", "185709.478000", "185709.481000", "185709.483000", "185709.486000", "185709.488000", "185709.491000", "185709.493000", "185709.496000", "185709.516000", "185709.518000", "185709.521000", "185709.523000", "185749.419000", "185749.421000", "185749.424000", "185749.427000", "185749.429000", "185749.432000", "185749.434000", "185749.437000", "185749.439000", "185749.442000", "185749.444000", "185749.447000", "185749.449000", "185749.452000", "185749.454000", "185749.457000", "185749.460000", "185749.462000", "185749.464000", "185749.467000", "185749.470000", "185749.472000", "185749.475000", "185749.477000", "185749.480000", "185749.482000", "185749.485000", "185829.433000", "185829.435000", "185829.438000", "185829.440000", "185829.443000", "185829.445000", "185829.448000", "185829.460000", "185829.463000", "185829.465000", "185829.468000", "185829.471000", "185829.473000", "185829.476000", "185829.478000", "185829.481000", "185829.483000", "185829.486000", "185829.488000", "185829.491000", "185829.493000", "185829.496000", "185829.498000", "185829.501000", "185829.503000", "185829.506000", "185829.508000", "185909.417000", "185909.420000", "185909.422000", "185909.425000", "185909.428000", "185909.430000", "185909.433000", "185909.435000", "185909.438000", "185909.440000", "185909.443000", "185909.445000", "185909.448000", "185909.450000", "185909.453000", "185909.455000", "185909.458000", "185909.460000", "185909.463000", "185909.465000", "185909.468000", "185909.471000", "185909.473000", "185909.476000", "185909.478000", "185909.481000", "185909.483000", "185949.916000", "185949.919000", "185949.922000", "185949.924000", "185949.927000", "185949.929000", "185949.932000", "185949.935000", "185949.938000", "185949.940000", "185949.943000", "185949.946000", "185949.949000", "185949.951000", "185949.954000", "185949.956000", "185949.959000", "185949.961000", "185949.964000", "185949.967000", "185949.969000", "185949.972000", "185949.975000", "185949.978000", "185949.980000", "185949.983000", "185949.986000", "190029.432000", "190029.435000", "190029.438000", "190029.440000", "190029.443000", "190029.445000", "190029.448000", "190029.450000", "190029.453000", "190029.455000", "190029.458000", "190029.461000", "190029.463000", "190029.466000", "190029.468000", "190029.471000", "190029.473000", "190029.476000", "190029.479000", "190029.481000", "190029.484000", "190029.487000", "190029.489000", "190029.492000", "190029.494000", "190029.497000", "190029.499000", "190109.423000", "190109.426000", "190109.428000", "190109.431000", "190109.434000", "190109.436000", "190109.439000", "190109.441000", "190109.444000", "190109.446000", "190109.449000", "190109.451000", "190109.454000", "190109.456000", "190109.459000", "190109.461000", "190109.464000", "190109.466000", "190109.469000", "190109.472000", "190109.474000", "190109.477000", "190109.479000", "190109.482000", "190109.484000", "190109.487000", "190149.444000", "190149.446000", "190149.449000", "190149.452000", "190149.454000", "190149.457000", "190149.459000", "190149.462000", "190149.464000", "190149.467000", "190149.469000", "190149.472000", "190149.474000", "190149.477000", "190149.479000", "190149.482000", "190149.484000", "190149.487000", "190149.489000", "190149.493000", "190149.496000", "190149.499000", "190149.501000", "190149.504000", "190149.506000", "190149.509000", "190149.511000", "190229.412000", "190229.415000", "190229.417000", "190229.420000", "190229.422000", "190229.425000", "190229.427000", "190229.430000", "190229.432000", "190229.435000", "190229.438000", "190229.440000", "190229.443000", "190229.445000", "190229.448000", "190229.450000", "190229.453000", "190229.455000", "190229.458000", "190229.461000", "190229.463000", "190229.465000", "190229.468000", "190229.471000", "190229.473000", "190229.476000", "190229.478000", "190309.426000", "190309.429000", "190309.431000", "190309.434000", "190309.436000", "190309.439000", "190309.441000", "190309.444000", "190309.446000", "190309.449000", "190309.451000", "190309.454000", "190309.456000", "190309.459000", "190309.461000", "190309.464000", "190309.467000", "190309.469000", "190309.472000", "190309.474000", "190309.477000", "190309.479000", "190309.482000", "190309.484000", "190309.487000", "190309.489000", "190309.492000", "190349.418000", "190349.421000", "190349.424000", "190349.426000", "190349.429000", "190349.431000", "190349.434000", "190349.436000", "190349.439000", "190349.441000", "190349.444000", "190349.447000", "190349.449000", "190349.452000", "190349.454000", "190349.457000", "190349.459000", "190349.462000", "190349.464000", "190349.467000", "190349.469000", "190349.472000", "190349.474000", "190349.477000", "190349.479000", "190349.482000", "190349.485000", "190429.427000", "190429.429000", "190429.432000", "190429.434000", "190429.437000", "190429.440000", "190429.442000", "190429.445000", "190429.447000", "190429.450000", "190429.452000", "190429.455000", "190429.457000", "190429.460000", "190429.462000", "190429.465000", "190429.467000", "190429.470000", "190429.472000", "190429.475000", "190429.485000", "190429.487000", "190429.490000", "190429.492000", "190429.495000", "190429.498000", "190429.500000", "190457.080000", "190457.082000", "190457.085000", "190457.087000", "190457.090000", "190457.093000", "190457.095000", "190457.097000", "190457.100000", "190457.103000", "190457.105000", "190457.108000", "190457.110000", "190457.113000", "190457.115000", "190457.118000", "190457.120000", "190457.123000"],
