{
  "AcquisitionMatrixPE": 104,
  "AcquisitionNumber": 1,
  "AcquisitionTime": "19:06:44.850000",
  "BandwidthPerPixelPhaseEncode": 17.17,
  "BaseResolution": 104,
  "BodyPartExamined": "BRAIN",
  "CoilCombinationMethod": "Sum of Squares",
  "ConsistencyInfo": "N4_VE11C_LATEST_20160120",
  "ConversionSoftware": "dcm2niix",
  "ConversionSoftwareVersion": "v1.0.20220505",
  "DerivedVendorReportedEchoSpacing": 0.000560011,
  "DeviceSerialNumber": "167006",
  "DwellTime": 2.1e-06,
  "EchoTime": 0.037,
  "EchoTime1": 0.037,
  "EchoTime2": 0.001,
  "EchoTrainLength": 104,
  "EffectiveEchoSpacing": 0.000560011,
  "FlipAngle": 52,
  "HeudiconvVersion": "0.5.3.post811+g6206e14",
  "ImageComments": "Unaliased MB4/PE3/LB",
  "ImageOrientationPatientDICOM": [0.999494, -0.0310227, 0.00704329, 0.0314103, 0.927296, -0.373009],
  "ImageOrientationText": "Tra>Cor(-21.9)>Sag(-0.3)",
  "ImageType": [
    "ORIGINAL",
    "PRIMARY",
    "P",
    "MB",
    "ND",
    "MOSAIC",
    "PHASE"
],
  "ImagingFrequency": 123.26,
  "InPlanePhaseEncodingDirectionDICOM": "COL",
  "InstitutionAddress": "Chemin Queen-Mary 4565,Montreal,District,CA,H3W 1W5",
  "InstitutionName": "IUGM",
  "InstitutionalDepartmentName": "Department",
  "MRAcquisitionType": "2D",
  "MagneticFieldStrength": 3,
  "Manufacturer": "Siemens",
  "ManufacturersModelName": "Prisma_fit",
  "MatrixCoilMode": "SENSE",
  "Modality": "MR",
  "MultibandAccelerationFactor": 4,
  "PartialFourier": 1,
  "PatientPosition": "HFS",
  "PercentPhaseFOV": 100,
  "PercentSampling": 100,
  "PhaseEncodingDirection": "j",
  "PhaseEncodingSteps": 104,
  "PhaseResolution": 1,
  "PixelBandwidth": 2290,
  "ProcedureStepDescription": "games^mariostars",
  "ProtocolName": "func_task-mariostars_run-08",
  "PulseSequenceDetails": "%CustomerSeq%\\cmrr_mbep2d_bold",
  "ReceiveCoilActiveElements": "HC1-7;NC1,2",
  "ReceiveCoilName": "HeadNeck_64",
  "ReconMatrixPE": 104,
  "RepetitionTime": 1.49,
  "SAR": 0.0558584,
  "ScanOptions": "FS",
  "ScanningSequence": "EP",
  "SequenceName": "epfid2d1_104",
  "SequenceVariant": "SK\\SS",
  "SeriesDescription": "func_task-mariostars_run-08",
  "SeriesNumber": 33,
  "ShimSetting": [601, -7251, -8798, 458, 24, -310, 15, 44],
  "SliceThickness": 2,
  "SliceTiming": [0, 0.7825, 0.0975, 0.8825, 0.195, 0.98, 0.295, 1.0775, 0.3925, 1.175, 0.49, 1.2725, 0.5875, 1.3725, 0.685, 0, 0.7825, 0.0975, 0.8825, 0.195, 0.98, 0.295, 1.0775, 0.3925, 1.175, 0.49, 1.2725, 0.5875, 1.3725, 0.685, 0, 0.7825, 0.0975, 0.8825, 0.195, 0.98, 0.295, 1.0775, 0.3925, 1.175, 0.49, 1.2725, 0.5875, 1.3725, 0.685, 0, 0.7825, 0.0975, 0.8825, 0.195, 0.98, 0.295, 1.0775, 0.3925, 1.175, 0.49, 1.2725, 0.5875, 1.3725, 0.685],
  "SoftwareVersions": "syngo MR E11",
  "SpacingBetweenSlices": 2,
  "StationName": "MRC35049",
  "TaskName": "mariostars",
  "TotalReadoutTime": 0.0576811,
  "TxRefAmp": 265.677,
  "WipMemBlock": "c97b6fc1-a368-43bd-bd23-87ab48647017||Sequence: R017 ve11c/master r/75a17815+; Jun 28 2022 16:32:11 by eja",
  "dcmmeta_affine": [
    [-1.9989876747131348, 0.0628206878900528, -0.010081109590828419, 101.20454406738281],
    [0.06204543262720108, 1.8545914888381958, -0.7460837960243225, -70.80105590820312],
    [0.014086578041315079, 0.7460188865661621, 1.8556016683578491, -60.51971435546875],
    [0.0, 0.0, 0.0, 1.0]
],
  "dcmmeta_reorient_transform": [
    [0.0, -1.0, 0.0, 103.0],
    [1.0, 0.0, 0.0, 0.0],
    [0.0, 0.0, 1.0, 0.0],
    [0.0, 0.0, 0.0, 1.0]
],
  "dcmmeta_shape": [104, 104, 60, 443],
  "dcmmeta_slice_dim": 2,
  "dcmmeta_version": 0.6,
  "global": {
    "const": {
      "AcquisitionMatrix": [104, 0, 0, 104],
      "AngioFlag": "N",
      "BitsAllocated": 16,
      "BitsStored": 16,
      "BodyPartExamined": "BRAIN",
      "Columns": 832,
      "EchoNumbers": 1,
      "EchoTime": 37.0,
      "EchoTrainLength": 104,
      "FlipAngle": 52.0,
      "HighBit": 15,
      "ImageOrientationPatient": [0.99949386347216, -0.0310227168068, 0.00704328924709, 0.03141034370572, 0.92729571474294, -0.3730094472365],
      "ImagePositionPatient": [-858.17333881246, -772.70860617617, 282.74359572075],
      "ImageType": [
        "ORIGINAL",
        "PRIMARY",
        "P",
        "MB",
        "ND",
        "MOSAIC"
],
      "ImagedNucleus": "1H",
      "ImagingFrequency": 123.260229,
      "InPlanePhaseEncodingDirection": "COL",
      "LargestImagePixelValue": 4095,
      "MRAcquisitionType": "2D",
      "MagneticFieldStrength": 3.0,
      "Manufacturer": "SIEMENS",
      "ManufacturerModelName": "Prisma_fit",
      "Modality": "MR",
      "NumberOfAverages": 1.0,
      "NumberOfPhaseEncodingSteps": 104,
      "PercentPhaseFieldOfView": 100.0,
      "PercentSampling": 100.0,
      "PerformedProcedureStepStartTime": "170640.569000",
      "PhotometricInterpretation": "MONOCHROME2",
      "PixelBandwidth": 2290.0,
      "PixelRepresentation": 0,
      "PixelSpacing": [2.0, 2.0],
      "ProtocolName": "func_task-mariostars_run-08",
      "RepetitionTime": 1490.0,
      "RescaleIntercept": -4096.0,
      "RescaleSlope": 2.0,
      "RescaleType": "US",
      "Rows": 832,
      "SAR": 0.05585841049676,
      "SamplesPerPixel": 1,
      "ScanOptions": "FS",
      "ScanningSequence": "EP",
      "SequenceName": "epfid2d1_104",
      "SequenceVariant": [
        "SK",
        "SS"
],
      "SeriesDescription": "func_task-mariostars_run-08",
      "SeriesNumber": 33,
      "SeriesTime": "190812.690000",
      "SliceLocation": -30.248607680883,
      "SliceThickness": 2.0,
      "SmallestImagePixelValue": 0,
      "SoftwareVersions": "syngo MR E11",
      "SpacingBetweenSlices": 2.0000000346351,
      "SpecificCharacterSet": "ISO_IR 100",
      "StudyID": "1",
      "StudyTime": "170640.493000",
      "TransmitCoilName": "Body",
      "VariableFlipAngleFlag": "N",
      "WindowCenterWidthExplanation": "Algo1",
      "dBdt": 0.0},
    "slices": {}
  },
  "time": {
    "samples": {
      "AcquisitionNumber": [1, 2, 3, 4, 5, 6, 7, 8, 9, 10, 11, 12, 13, 14, 15, 16, 17, 18, 19, 20, 21, 22, 23, 24, 25, 26, 27, 28, 29, 30, 31, 32, 33, 34, 35, 36, 37, 38, 39, 40, 41, 42, 43, 44, 45, 46, 47, 48, 49, 50, 51, 52, 53, 54, 55, 56, 57, 58, 59, 60, 61, 62, 63, 64, 65, 66, 67, 68, 69, 70, 71, 72, 73, 74, 75, 76, 77, 78, 79, 80, 81, 82, 83, 84, 85, 86, 87, 88, 89, 90, 91, 92, 93, 94, 95, 96, 97, 98, 99, 100, 101, 102, 103, 104, 105, 106, 107, 108, 109, 110, 111, 112, 113, 114, 115, 116, 117, 118, 119, 120, 121, 122, 123, 124, 125, 126, 127, 128, 129, 130, 131, 132, 133, 134, 135, 136, 137, 138, 139, 140, 141, 142, 143, 144, 145, 146, 147, 148, 149, 150, 151, 152, 153, 154, 155, 156, 157, 158, 159, 160, 161, 162, 163, 164, 165, 166, 167, 168, 169, 170, 171, 172, 173, 174, 175, 176, 177, 178, 179, 180, 181, 182, 183, 184, 185, 186, 187, 188, 189, 190, 191, 192, 193, 194, 195, 196, 197, 198, 199, 200, 201, 202, 203, 204, 205, 206, 207, 208, 209, 210, 211, 212, 213, 214, 215, 216, 217, 218, 219, 220, 221, 222, 223, 224, 225, 226, 227, 228, 229, 230, 231, 232, 233, 234, 235, 236, 237, 238, 239, 240, 241, 242, 243, 244, 245, 246, 247, 248, 249, 250, 251, 252, 253, 254, 255, 256, 257, 258, 259, 260, 261, 262, 263, 264, 265, 266, 267, 268, 269, 270, 271, 272, 273, 274, 275, 276, 277, 278, 279, 280, 281, 282, 283, 284, 285, 286, 287, 288, 289, 290, 291, 292, 293, 294, 295, 296, 297, 298, 299, 300, 301, 302, 303, 304, 305, 306, 307, 308, 309, 310, 311, 312, 313, 314, 315, 316, 317, 318, 319, 320, 321, 322, 323, 324, 325, 326, 327, 328, 329, 330, 331, 332, 333, 334, 335, 336, 337, 338, 339, 340, 341, 342, 343, 344, 345, 346, 347, 348, 349, 350, 351, 352, 353, 354, 355, 356, 357, 358, 359, 360, 361, 362, 363, 364, 365, 366, 367, 368, 369, 370, 371, 372, 373, 374, 375, 376, 377, 378, 379, 380, 381, 382, 383, 384, 385, 386, 387, 388, 389, 390, 391, 392, 393, 394, 395, 396, 397, 398, 399, 400, 401, 402, 403, 404, 405, 406, 407, 408, 409, 410, 411, 412, 413, 414, 415, 416, 417, 418, 419, 420, 421, 422, 423, 424, 425, 426, 427, 428, 429, 430, 431, 432, 433, 434, 435, 436, 437, 438, 439, 440, 441, 442, 443],
      "AcquisitionTime": ["190644.850000", "190646.340000", "190647.830000", "190649.320000", "190650.810000", "190652.300000", "190653.790000", "190655.280000", "190656.770000", "190658.260000", "190659.750000", "190701.240000", "190702.730000", "190704.220000", "190705.710000", "190707.200000", "190708.690000", "190710.180000", "190711.670000", "190713.160000", "190714.650000", "190716.140000", "190717.630000", "190719.120000", "190720.610000", "190722.100000", "190723.590000", "190725.080000", "190726.570000", "190728.060000", "190729.550000", "190731.040000", "190732.530000", "190734.020000", "190735.510000", "190737.000000", "190738.490000", "190739.980000", "190741.470000", "190742.960000", "190744.450000", "190745.940000", "190747.430000", "190748.920000", "190750.410000", "190751.900000", "190753.390000", "190754.880000", "190756.370000", "190757.860000", "190759.350000", "190800.840000", "190802.330000", "190803.820000", "190805.310000", "190806.800000", "190808.290000", "190809.780000", "190811.270000", "190812.760000", "190814.250000", "190815.740000", "190817.230000", "190818.720000", "190820.210000", "190821.700000", "190823.190000", "190824.680000", "190826.170000", "190827.660000", "190829.150000", "190830.640000", "190832.130000", "190833.620000", "190835.110000", "190836.600000", "190838.090000", "190839.580000", "190841.070000", "190842.560000", "190844.050000", "190845.540000", "190847.030000", "190848.520000", "190850.010000", "190851.500000", "190852.990000", "190854.480000", "190855.970000", "190857.460000", "190858.950000", "190900.440000", "190901.930000", "190903.420000", "190904.910000", "190906.400000", "190907.890000", "190909.380000", "190910.870000", "190912.360000", "190913.850000", "190915.340000", "190916.830000", "190918.320000", "190919.810000", "190921.300000", "190922.790000", "190924.280000", "190925.770000", "190927.260000", "190928.750000", "190930.240000", "190931.730000", "190933.220000", "190934.710000", "190936.200000", "190937.690000", "190939.180000", "190940.670000", "190942.160000", "190943.650000", "190945.140000", "190946.630000", "190948.120000", "190949.610000", "190951.100000", "190952.590000", "190954.080000", "190955.570000", "190957.060000", "190958.550000", "191000.040000", "191001.530000", "191003.020000", "191004.510000", "191006.000000", "191007.490000", "191008.980000", "191010.470000", "191011.960000", "191013.450000", "191014.940000", "191016.430000", "191017.920000", "191019.410000", "191020.900000", "191022.390000", "191023.880000", "191025.370000", "191026.860000", "191028.350000", "191029.840000", "191031.330000", "191032.820000", "191034.310000", "191035.800000", "191037.290000", "191038.780000", "191040.270000", "191041.760000", "191043.250000", "191044.740000", "191046.230000", "191047.720000", "191049.210000", "191050.700000", "191052.190000", "191053.680000", "191055.170000", "191056.660000", "191058.150000", "191059.640000", "191101.130000", "191102.620000", "191104.110000", "191105.600000", "191107.090000", "191108.580000", "191110.070000", "191111.560000", "191113.050000", "191114.540000", "191116.030000", "191117.520000", "191119.010000", "191120.500000", "191121.990000", "191123.480000", "191124.970000", "191126.460000", "191127.950000", "191129.440000", "191130.930000", "191132.420000", "191133.910000", "191135.400000", "191136.890000", "191138.380000", "191139.870000", "191141.360000", "191142.850000", "191144.340000", "191145.830000", "191147.320000", "191148.810000", "191150.300000", "191151.790000", "191153.280000", "191154.770000", "191156.260000", "191157.750000", "191159.240000", "191200.730000", "191202.220000", "191203.710000", "191205.200000", "191206.690000", "191208.180000", "191209.670000", "191211.160000", "191212.650000", "191214.140000", "191215.630000", "191217.120000", "191218.610000", "191220.100000", "191221.590000", "191223.080000", "191224.570000", "191226.060000", "191227.550000", "191229.040000", "191230.530000", "191232.020000", "191233.510000", "191235.000000", "191236.490000", "191237.980000", "191239.470000", "191240.960000", "191242.450000", "191243.940000", "191245.430000", "191246.920000", "191248.410000", "191249.900000", "191251.390000", "191252.880000", "191254.370000", "191255.860000", "191257.350000", "191258.840000", "191300.330000", "191301.820000", "191303.310000", "191304.800000", "191306.290000", "191307.780000", "191309.270000", "191310.760000", "191312.250000", "191313.740000", "191315.230000", "191316.720000", "191318.210000", "191319.700000", "191321.190000", "191322.680000", "191324.170000", "191325.660000", "191327.150000", "191328.640000", "191330.130000", "191331.620000", "191333.110000", "191334.600000", "191336.090000", "191337.580000", "191339.070000", "191340.560000", "191342.050000", "191343.540000", "191345.030000", "191346.520000", "191348.010000", "191349.500000", "191350.990000", "191352.480000", "191353.970000", "191355.460000", "191356.950000", "191358.440000", "191359.930000", "191401.420000", "191402.910000", "191404.400000", "191405.890000", "191407.380000", "191408.870000", "191410.360000", "191411.850000", "191413.340000", "191414.830000", "191416.320000", "191417.810000", "191419.300000", "191420.790000", "191422.280000", "191423.770000", "191425.260000", "191426.750000", "191428.240000", "191429.730000", "191431.220000", "191432.710000", "191434.200000", "191435.690000", "191437.180000", "191438.670000", "191440.160000", "191441.650000", "191443.140000", "191444.630000", "191446.120000", "191447.610000", "191449.100000", "191450.590000", "191452.080000", "191453.570000", "191455.060000", "191456.550000", "191458.040000", "191459.530000", "191501.020000", "191502.510000", "191504.000000", "191505.490000", "191506.980000", "191508.470000", "191509.960000", "191511.450000", "191512.940000", "191514.430000", "191515.920000", "191517.410000", "191518.900000", "191520.390000", "191521.880000", "191523.370000", "191524.860000", "191526.350000", "191527.840000", "191529.330000", "191530.820000", "191532.310000", "191533.800000", "191535.290000", "191536.780000", "191538.270000", "191539.760000", "191541.250000", "191542.740000", "191544.230000", "191545.720000", "191547.210000", "191548.700000", "191550.190000", "191551.680000", "191553.170000", "191554.660000", "191556.150000", "191557.640000", "191559.130000", "191600.620000", "191602.110000", "191603.600000", "191605.090000", "191606.580000", "191608.070000", "191609.560000", "191611.050000", "191612.540000", "191614.030000", "191615.520000", "191617.010000", "191618.500000", "191619.990000", "191621.480000", "191622.970000", "191624.460000", "191625.950000", "191627.440000", "191628.930000", "191630.420000", "191631.910000", "191633.400000", "191634.890000", "191636.380000", "191637.870000", "191639.360000", "191640.850000", "191642.340000", "191643.830000", "191645.320000", "191646.810000", "191648.300000", "191649.790000", "191651.280000", "191652.770000", "191654.260000", "191655.750000", "191657.240000", "191658.730000", "191700.220000", "191701.710000", "191703.200000", "191704.690000", "191706.180000", "191707.670000", "191709.160000", "191710.650000", "191712.140000", "191713.630000", "191715.120000", "191716.610000", "191718.100000", "191719.590000", "191721.080000", "191722.570000", "191724.060000", "191725.550000", "191727.040000", "191728.530000", "191730.020000", "191731.510000", "191733.000000", "191734.490000", "191735.980000", "191737.470000", "191738.960000", "191740.450000", "191741.940000", "191743.430000"],
      "ContentTime": ["190812.692000", "190812.695000", "190812.697000", "190812.700000", "190812.703000", "190812.713000", "190812.716000", "190812.718000", "190812.721000", "190812.724000", "190812.726000", "190812.729000", "190812.731000", "190812.734000", "190812.736000", "190812.739000", "190812.742000", "190812.744000", "190812.747000", "190812.749000", "190812.752000", "190812.754000", "190812.757000", "190812.759000", "190812.762000", "190812.764000", "190812.767000", "190812.769000", "190812.772000", "190812.774000", "190812.781000", "190812.784000", "190812.786000", "190812.789000", "190812.791000", "190812.816000", "190812.819000", "190832.592000", "190832.595000", "190832.598000", "190832.600000", "190832.603000", "190832.605000", "190832.608000", "190832.610000", "190832.613000", "190832.615000", "190832.618000", "190832.620000", "190832.623000", "190832.625000", "190832.628000", "190832.630000", "190832.633000", "190832.636000", "190832.638000", "190832.641000", "190852.585000", "190852.588000", "190852.591000", "190852.593000", "190852.596000", "190852.598000", "190852.601000", "190852.603000", "190852.606000", "190852.608000", "190852.611000", "190852.613000", "190852.616000", "190852.618000", "190852.621000", "190852.623000", "190852.626000", "190852.629000", "190852.631000", "190852.634000", "190912.596000", "190912.599000", "190912.601000", "190912.604000", "190912.606000", "190912.609000", "190912.611000", "190912.614000", "190912.617000", "190912.619000", "190912.622000", "190912.624000", "190912.627000", "190912.629000", "190912.632000", "190912.634000", "190912.637000", "190912.640000", "190912.642000", "190912.645000", "190952.626000", "190952.629000", "190952.632000", "190952.634000", "190952.637000", "190952.639000", "190952.642000", "190952.644000", "190952.647000", "190952.650000", "190952.652000", "190952.655000", "190952.657000", "190952.660000", "190952.662000", "190952.665000", "190952.667000", "190952.670000", "190952.672000", "190952.675000", "190952.677000", "190952.680000", "190952.682000", "190952.685000", "190952.688000", "190952.690000", "190952.693000", "190952.695000", "191032.612000", "191032.615000", "191032.617000", "191032.620000", "191032.622000", "191032.625000", "191032.627000", "191032.630000", "191032.632000", "191032.635000", "191032.637000", "191032.640000", "191032.643000", "191032.645000", "191032.647000", "191032.650000", "191032.653000", "191032.655000", "191032.658000", "191032.660000", "191032.663000", "191032.665000", "191032.668000", "191032.671000", "191032.673000", "191032.676000", "191032.678000", "191112.602000", "191112.605000", "191112.615000", "191112.617000", "191112.620000", "191112.622000", "191112.625000", "191112.627000", "191112.630000", "191112.632000", "191112.635000", "191112.638000", "191112.640000", "191112.643000", "191112.645000", "191112.648000", "191112.650000", "191112.653000", "191112.655000", "191112.658000", "191112.661000", "191112.663000", "191112.666000", "191112.668000", "191112.671000", "191112.673000", "191153.105000", "191153.108000", "191153.110000", "191153.113000", "191153.115000", "191153.118000", "191153.120000", "191153.123000", "191153.126000", "191153.128000", "191153.131000", "191153.133000", "191153.136000", "191153.138000", "191153.141000", "191153.143000", "191153.146000", "191153.148000", "191153.151000", "191153.153000", "191153.156000", "191153.158000", "191153.161000", "191153.163000", "191153.166000", "191153.169000", "191153.171000", "191232.622000", "191232.625000", "191232.627000", "191232.630000", "191232.632000", "191232.635000", "191232.638000", "191232.640000", "191232.643000", "191232.645000", "191232.648000", "191232.650000", "191232.653000", "191232.655000", "191232.658000", "191232.661000", "191232.663000", "191232.665000", "191232.668000", "191232.671000", "191232.673000", "191232.676000", "191232.678000", "191232.681000", "191232.683000", "191232.686000", "191232.689000", "191312.625000", "191312.628000", "191312.631000", "191312.633000", "191312.636000", "191312.648000", "191312.650000", "191312.652000", "191312.655000", "191312.658000", "191312.660000", "191312.663000", "191312.665000", "191312.668000", "191312.670000", "191312.673000", "191312.675000", "191312.678000", "191312.680000", "191312.683000", "191312.686000", "191312.688000", "191312.691000", "191312.693000", "191312.696000", "191312.698000", "191312.701000", "191352.633000", "191352.636000", "191352.639000", "191352.641000", "191352.644000", "191352.646000", "191352.649000", "191352.651000", "191352.654000", "191352.656000", "191352.659000", "191352.662000", "191352.664000", "191352.667000", "191352.669000", "191352.672000", "191352.674000", "191352.677000", "191352.679000", "191352.682000", "191352.684000", "191352.687000", "191352.690000", "191352.692000", "191352.695000", "191352.697000", "191352.700000", "191432.606000", "191432.609000", "191432.612000", "191432.614000", "191432.617000", "191432.619000", "191432.622000", "191432.624000", "191432.627000", "191432.630000", "191432.632000", "191432.635000", "191432.637000", "191432.640000", "191432.642000", "191432.645000", "191432.647000", "191432.650000", "191432.652000", "191432.655000", "191432.658000", "191432.660000", "191432.663000", "191432.665000", "191432.668000", "191432.670000", "191432.673000", "191512.633000", "191512.635000", "191512.645000", "191512.648000", "191512.650000", "191512.653000", "191512.655000", "191512.658000", "191512.660000", "191512.663000", "191512.665000", "191512.668000", "191512.670000", "191512.673000", "191512.676000", "191512.678000", "191512.681000", "191512.683000", "191512.686000", "191512.688000", "191512.691000", "191512.693000", "191512.696000", "191512.698000", "191512.701000", "191512.703000", "191512.706000", "191532.540000", "191532.543000", "191532.545000", "191532.548000", "191532.550000", "191532.553000", "191532.555000", "191532.558000", "191532.560000", "191532.563000", "191532.565000", "191532.568000", "191532.570000", "191612.628000", "191612.631000", "191612.634000", "191612.636000", "191612.639000", "191612.641000", "191612.644000", "191612.647000", "191612.649000", "191612.652000", "191612.655000", "191612.657000", "191612.660000", "191612.663000", "191612.665000", "191612.668000", "191612.670000", "191612.673000", "191612.675000", "191612.678000", "191612.680000", "191612.683000", "191612.686000", "191612.688000", "191612.691000", "191612.702000", "191612.704000", "191652.614000", "191652.616000", "191652.619000", "191652.622000", "191652.624000", "191652.627000", "191652.629000", "191652.632000", "191652.635000", "191652.637000", "191652.640000", "191652.643000", "191652.645000", "191652.648000", "191652.650000", "191652.653000", "191652.655000", "191652.658000", "191652.660000", "191652.663000", "191652.665000", "191652.668000", "191652.671000", "191652.673000", "191652.676000", "191652.678000", "191652.681000", "191732.611000", "191732.614000", "191732.617000", "191732.619000", "191732.625000", "191732.628000", "191732.630000", "191732.633000", "191732.635000", "191732.638000", "191732.640000", "191732.643000", "191732.645000", "191732.648000", "191732.650000", "191732.653000", "191732.656000", "191732.658000", "191732.661000", "191732.664000", "191732.666000", "191732.669000", "191732.671000", "191732.674000", "191732.676000", "191732.679000", "191746.643000", "191746.645000", "191746.648000", "191746.650000", "191746.653000", "191746.655000", "191746.658000", "191746.660000", "191746.663000", "191746.665000"],
