{
  "AcquisitionMatrixPE": 104,
  "AcquisitionNumber": 1,
  "AcquisitionTime": "17:32:16.815000",
  "BandwidthPerPixelPhaseEncode": 17.17,
  "BaseResolution": 104,
  "BodyPartExamined": "BRAIN",
  "CoilCombinationMethod": "Sum of Squares",
  "ConsistencyInfo": "N4_VE11C_LATEST_20160120",
  "ConversionSoftware": "dcm2niix",
  "ConversionSoftwareVersion": "v1.0.20220505",
  "DerivedVendorReportedEchoSpacing": 0.000560011,
  "DeviceSerialNumber": "167006",
  "DwellTime": 2.1e-06,
  "EchoTime": 0.037,
  "EchoTrainLength": 104,
  "EffectiveEchoSpacing": 0.000560011,
  "FlipAngle": 52,
  "HeudiconvVersion": "0.5.3.post811+g6206e14",
  "ImageComments": "Unaliased MB4/PE3/LB",
  "ImageOrientationPatientDICOM": [0.999494, -0.0310227, 0.00704329, 0.0314103, 0.927296, -0.373009],
  "ImageOrientationText": "Tra>Cor(-21.9)>Sag(-0.3)",
  "ImageType": [
    "ORIGINAL",
    "PRIMARY",
    "M",
    "MB",
    "ND",
    "MOSAIC"
],
  "ImagingFrequency": 123.26,
  "InPlanePhaseEncodingDirectionDICOM": "COL",
  "InstitutionAddress": "Chemin Queen-Mary 4565,Montreal,District,CA,H3W 1W5",
  "InstitutionName": "IUGM",
  "InstitutionalDepartmentName": "Department",
  "MRAcquisitionType": "2D",
  "MagneticFieldStrength": 3,
  "Manufacturer": "Siemens",
  "ManufacturersModelName": "Prisma_fit",
  "MatrixCoilMode": "SENSE",
  "Modality": "MR",
  "MultibandAccelerationFactor": 4,
  "PartialFourier": 1,
  "PatientPosition": "HFS",
  "PercentPhaseFOV": 100,
  "PercentSampling": 100,
  "PhaseEncodingDirection": "j",
  "PhaseEncodingSteps": 104,
  "PhaseResolution": 1,
  "PixelBandwidth": 2290,
  "ProcedureStepDescription": "games^mariostars",
  "ProtocolName": "func_task-mariostars_run-01",
  "PulseSequenceDetails": "%CustomerSeq%\\cmrr_mbep2d_bold",
  "ReceiveCoilActiveElements": "HC1-7;NC1,2",
  "ReceiveCoilName": "HeadNeck_64",
  "ReconMatrixPE": 104,
  "RepetitionTime": 1.49,
  "SAR": 0.0558584,
  "ScanOptions": "FS",
  "ScanningSequence": "EP",
  "SequenceName": "epfid2d1_104",
  "SequenceVariant": "SK\\SS",
  "SeriesDescription": "func_task-mariostars_run-01",
  "SeriesNumber": 11,
  "ShimSetting": [601, -7251, -8798, 458, 24, -310, 15, 44],
  "SliceThickness": 2,
  "SliceTiming": [0, 0.785, 0.0975, 0.8825, 0.1975, 0.98, 0.295, 1.0775, 0.3925, 1.1775, 0.49, 1.275, 0.5875, 1.3725, 0.6875, 0, 0.785, 0.0975, 0.8825, 0.1975, 0.98, 0.295, 1.0775, 0.3925, 1.1775, 0.49, 1.275, 0.5875, 1.3725, 0.6875, 0, 0.785, 0.0975, 0.8825, 0.1975, 0.98, 0.295, 1.0775, 0.3925, 1.1775, 0.49, 1.275, 0.5875, 1.3725, 0.6875, 0, 0.785, 0.0975, 0.8825, 0.1975, 0.98, 0.295, 1.0775, 0.3925, 1.1775, 0.49, 1.275, 0.5875, 1.3725, 0.6875],
  "SoftwareVersions": "syngo MR E11",
  "SpacingBetweenSlices": 2,
  "StationName": "MRC35049",
  "TaskName": "mariostars",
  "TotalReadoutTime": 0.0576811,
  "TxRefAmp": 265.677,
  "WipMemBlock": "68eebd51-58fa-40c0-b316-fd660a0ff69d||Sequence: R017 ve11c/master r/75a17815+; Jun 28 2022 16:32:11 by eja",
  "dcmmeta_affine": [
    [-1.9989876747131348, 0.0628206878900528, -0.010081109590828419, 101.20454406738281],
    [0.06204543262720108, 1.8545914888381958, -0.7460837960243225, -70.80105590820312],
    [0.014086578041315079, 0.7460188865661621, 1.8556016683578491, -60.51971435546875],
    [0.0, 0.0, 0.0, 1.0]
],
  "dcmmeta_reorient_transform": [
    [0.0, -1.0, 0.0, 103.0],
    [1.0, 0.0, 0.0, 0.0],
    [0.0, 0.0, 1.0, 0.0],
    [0.0, 0.0, 0.0, 1.0]
],
  "dcmmeta_shape": [104, 104, 60, 445],
  "dcmmeta_slice_dim": 2,
  "dcmmeta_version": 0.6,
  "global": {
    "const": {
      "AcquisitionMatrix": [104, 0, 0, 104],
      "AngioFlag": "N",
      "BitsAllocated": 16,
      "BitsStored": 16,
      "BodyPartExamined": "BRAIN",
      "Columns": 832,
      "EchoNumbers": 1,
      "EchoTime": 37.0,
      "EchoTrainLength": 104,
      "FlipAngle": 52.0,
      "HighBit": 15,
      "ImageOrientationPatient": [0.99949386347216, -0.0310227168068, 0.00704328924709, 0.03141034370572, 0.92729571474294, -0.3730094472365],
      "ImagePositionPatient": [-858.17333881246, -772.70860617617, 282.74359572075],
      "ImageType": [
        "ORIGINAL",
        "PRIMARY",
        "M",
        "MB",
        "ND",
        "MOSAIC"
],
      "ImagedNucleus": "1H",
      "ImagingFrequency": 123.260199,
      "InPlanePhaseEncodingDirection": "COL",
      "MRAcquisitionType": "2D",
      "MagneticFieldStrength": 3.0,
      "Manufacturer": "SIEMENS",
      "ManufacturerModelName": "Prisma_fit",
      "Modality": "MR",
      "NumberOfAverages": 1.0,
      "NumberOfPhaseEncodingSteps": 104,
      "PercentPhaseFieldOfView": 100.0,
      "PercentSampling": 100.0,
      "PerformedProcedureStepStartTime": "170640.569000",
      "PhotometricInterpretation": "MONOCHROME2",
      "PixelBandwidth": 2290.0,
      "PixelRepresentation": 0,
      "PixelSpacing": [2.0, 2.0],
      "ProtocolName": "func_task-mariostars_run-01",
      "RepetitionTime": 1490.0,
      "Rows": 832,
      "SAR": 0.05585841049676,
      "SamplesPerPixel": 1,
      "ScanOptions": "FS",
      "ScanningSequence": "EP",
      "SequenceName": "epfid2d1_104",
      "SequenceVariant": [
        "SK",
        "SS"
],
      "SeriesDescription": "func_task-mariostars_run-01",
      "SeriesNumber": 11,
      "SeriesTime": "173329.317000",
      "SliceLocation": -30.248607680883,
      "SliceThickness": 2.0,
      "SmallestImagePixelValue": 0,
      "SoftwareVersions": "syngo MR E11",
      "SpacingBetweenSlices": 2.0000000346351,
      "SpecificCharacterSet": "ISO_IR 100",
      "StudyID": "1",
      "StudyTime": "170640.493000",
      "TransmitCoilName": "Body",
      "VariableFlipAngleFlag": "N",
      "WindowCenterWidthExplanation": "Algo1",
      "dBdt": 0.0},
    "slices": {}
  },
  "time": {
    "samples": {
      "AcquisitionNumber": [1, 2, 3, 4, 5, 6, 7, 8, 9, 10, 11, 12, 13, 14, 15, 16, 17, 18, 19, 20, 21, 22, 23, 24, 25, 26, 27, 28, 29, 30, 31, 32, 33, 34, 35, 36, 37, 38, 39, 40, 41, 42, 43, 44, 45, 46, 47, 48, 49, 50, 51, 52, 53, 54, 55, 56, 57, 58, 59, 60, 61, 62, 63, 64, 65, 66, 67, 68, 69, 70, 71, 72, 73, 74, 75, 76, 77, 78, 79, 80, 81, 82, 83, 84, 85, 86, 87, 88, 89, 90, 91, 92, 93, 94, 95, 96, 97, 98, 99, 100, 101, 102, 103, 104, 105, 106, 107, 108, 109, 110, 111, 112, 113, 114, 115, 116, 117, 118, 119, 120, 121, 122, 123, 124, 125, 126, 127, 128, 129, 130, 131, 132, 133, 134, 135, 136, 137, 138, 139, 140, 141, 142, 143, 144, 145, 146, 147, 148, 149, 150, 151, 152, 153, 154, 155, 156, 157, 158, 159, 160, 161, 162, 163, 164, 165, 166, 167, 168, 169, 170, 171, 172, 173, 174, 175, 176, 177, 178, 179, 180, 181, 182, 183, 184, 185, 186, 187, 188, 189, 190, 191, 192, 193, 194, 195, 196, 197, 198, 199, 200, 201, 202, 203, 204, 205, 206, 207, 208, 209, 210, 211, 212, 213, 214, 215, 216, 217, 218, 219, 220, 221, 222, 223, 224, 225, 226, 227, 228, 229, 230, 231, 232, 233, 234, 235, 236, 237, 238, 239, 240, 241, 242, 243, 244, 245, 246, 247, 248, 249, 250, 251, 252, 253, 254, 255, 256, 257, 258, 259, 260, 261, 262, 263, 264, 265, 266, 267, 268, 269, 270, 271, 272, 273, 274, 275, 276, 277, 278, 279, 280, 281, 282, 283, 284, 285, 286, 287, 288, 289, 290, 291, 292, 293, 294, 295, 296, 297, 298, 299, 300, 301, 302, 303, 304, 305, 306, 307, 308, 309, 310, 311, 312, 313, 314, 315, 316, 317, 318, 319, 320, 321, 322, 323, 324, 325, 326, 327, 328, 329, 330, 331, 332, 333, 334, 335, 336, 337, 338, 339, 340, 341, 342, 343, 344, 345, 346, 347, 348, 349, 350, 351, 352, 353, 354, 355, 356, 357, 358, 359, 360, 361, 362, 363, 364, 365, 366, 367, 368, 369, 370, 371, 372, 373, 374, 375, 376, 377, 378, 379, 380, 381, 382, 383, 384, 385, 386, 387, 388, 389, 390, 391, 392, 393, 394, 395, 396, 397, 398, 399, 400, 401, 402, 403, 404, 405, 406, 407, 408, 409, 410, 411, 412, 413, 414, 415, 416, 417, 418, 419, 420, 421, 422, 423, 424, 425, 426, 427, 428, 429, 430, 431, 432, 433, 434, 435, 436, 437, 438, 439, 440, 441, 442, 443, 444, 445],
      "AcquisitionTime": ["173216.815000", "173218.305000", "173219.795000", "173221.285000", "173222.775000", "173224.265000", "173225.755000", "173227.245000", "173228.735000", "173230.225000", "173231.715000", "173233.205000", "173234.695000", "173236.185000", "173237.675000", "173239.165000", "173240.655000", "173242.145000", "173243.635000", "173245.125000", "173246.615000", "173248.105000", "173249.595000", "173251.085000", "173252.575000", "173254.065000", "173255.555000", "173257.045000", "173258.535000", "173300.025000", "173301.515000", "173303.005000", "173304.495000", "173305.985000", "173307.475000", "173308.965000", "173310.455000", "173311.945000", "173313.435000", "173314.925000", "173316.415000", "173317.905000", "173319.395000", "173320.885000", "173322.375000", "173323.865000", "173325.355000", "173326.845000", "173328.335000", "173329.825000", "173331.315000", "173332.805000", "173334.295000", "173335.785000", "173337.275000", "173338.765000", "173340.255000", "173341.745000", "173343.235000", "173344.725000", "173346.215000", "173347.705000", "173349.195000", "173350.685000", "173352.175000", "173353.665000", "173355.155000", "173356.645000", "173358.135000", "173359.625000", "173401.115000", "173402.605000", "173404.095000", "173405.585000", "173407.075000", "173408.565000", "173410.055000", "173411.545000", "173413.035000", "173414.525000", "173416.015000", "173417.505000", "173418.995000", "173420.485000", "173421.975000", "173423.465000", "173424.955000", "173426.445000", "173427.935000", "173429.425000", "173430.915000", "173432.405000", "173433.895000", "173435.385000", "173436.875000", "173438.365000", "173439.855000", "173441.345000", "173442.835000", "173444.325000", "173445.815000", "173447.305000", "173448.795000", "173450.285000", "173451.775000", "173453.265000", "173454.755000", "173456.245000", "173457.735000", "173459.225000", "173500.715000", "173502.205000", "173503.695000", "173505.185000", "173506.675000", "173508.165000", "173509.655000", "173511.145000", "173512.635000", "173514.125000", "173515.615000", "173517.105000", "173518.595000", "173520.085000", "173521.575000", "173523.065000", "173524.555000", "173526.045000", "173527.535000", "173529.025000", "173530.515000", "173532.005000", "173533.495000", "173534.985000", "173536.475000", "173537.965000", "173539.455000", "173540.945000", "173542.435000", "173543.925000", "173545.415000", "173546.905000", "173548.395000", "173549.885000", "173551.375000", "173552.865000", "173554.355000", "173555.845000", "173557.335000", "173558.825000", "173600.315000", "173601.805000", "173603.295000", "173604.785000", "173606.275000", "173607.765000", "173609.255000", "173610.745000", "173612.235000", "173613.725000", "173615.215000", "173616.705000", "173618.195000", "173619.685000", "173621.175000", "173622.665000", "173624.155000", "173625.645000", "173627.135000", "173628.625000", "173630.115000", "173631.605000", "173633.095000", "173634.585000", "173636.075000", "173637.565000", "173639.055000", "173640.545000", "173642.035000", "173643.525000", "173645.015000", "173646.505000", "173647.995000", "173649.485000", "173650.975000", "173652.465000", "173653.955000", "173655.445000", "173656.935000", "173658.425000", "173659.915000", "173701.405000", "173702.895000", "173704.385000", "173705.875000", "173707.365000", "173708.855000", "173710.345000", "173711.835000", "173713.325000", "173714.815000", "173716.305000", "173717.795000", "173719.285000", "173720.775000", "173722.265000", "173723.755000", "173725.245000", "173726.735000", "173728.225000", "173729.715000", "173731.205000", "173732.695000", "173734.185000", "173735.675000", "173737.165000", "173738.655000", "173740.145000", "173741.635000", "173743.125000", "173744.615000", "173746.105000", "173747.595000", "173749.085000", "173750.575000", "173752.065000", "173753.555000", "173755.045000", "173756.535000", "173758.025000", "173759.515000", "173801.005000", "173802.495000", "173803.985000", "173805.475000", "173806.965000", "173808.455000", "173809.945000", "173811.435000", "173812.925000", "173814.415000", "173815.905000", "173817.395000", "173818.885000", "173820.375000", "173821.865000", "173823.355000", "173824.845000", "173826.335000", "173827.825000", "173829.315000", "173830.805000", "173832.295000", "173833.785000", "173835.275000", "173836.765000", "173838.255000", "173839.745000", "173841.235000", "173842.725000", "173844.215000", "173845.705000", "173847.195000", "173848.685000", "173850.175000", "173851.665000", "173853.155000", "173854.645000", "173856.135000", "173857.625000", "173859.115000", "173900.605000", "173902.095000", "173903.585000", "173905.075000", "173906.565000", "173908.055000", "173909.545000", "173911.035000", "173912.525000", "173914.015000", "173915.505000", "173916.995000", "173918.485000", "173919.975000", "173921.465000", "173922.955000", "173924.445000", "173925.935000", "173927.425000", "173928.915000", "173930.405000", "173931.895000", "173933.385000", "173934.875000", "173936.365000", "173937.855000", "173939.345000", "173940.835000", "173942.325000", "173943.815000", "173945.305000", "173946.795000", "173948.285000", "173949.775000", "173951.265000", "173952.755000", "173954.245000", "173955.735000", "173957.225000", "173958.715000", "174000.205000", "174001.695000", "174003.185000", "174004.675000", "174006.165000", "174007.655000", "174009.145000", "174010.635000", "174012.125000", "174013.615000", "174015.105000", "174016.595000", "174018.085000", "174019.575000", "174021.065000", "174022.555000", "174024.045000", "174025.535000", "174027.025000", "174028.515000", "174030.005000", "174031.495000", "174032.985000", "174034.475000", "174035.965000", "174037.455000", "174038.945000", "174040.435000", "174041.925000", "174043.415000", "174044.905000", "174046.395000", "174047.885000", "174049.375000", "174050.865000", "174052.355000", "174053.845000", "174055.335000", "174056.825000", "174058.315000", "174059.805000", "174101.295000", "174102.785000", "174104.275000", "174105.765000", "174107.255000", "174108.745000", "174110.235000", "174111.725000", "174113.215000", "174114.705000", "174116.195000", "174117.685000", "174119.175000", "174120.665000", "174122.155000", "174123.645000", "174125.135000", "174126.625000", "174128.115000", "174129.605000", "174131.095000", "174132.585000", "174134.075000", "174135.565000", "174137.055000", "174138.545000", "174140.035000", "174141.525000", "174143.015000", "174144.505000", "174145.995000", "174147.485000", "174148.975000", "174150.465000", "174151.955000", "174153.445000", "174154.935000", "174156.425000", "174157.915000", "174159.405000", "174200.895000", "174202.385000", "174203.875000", "174205.365000", "174206.855000", "174208.345000", "174209.835000", "174211.325000", "174212.815000", "174214.305000", "174215.795000", "174217.285000", "174218.775000", "174220.265000", "174221.755000", "174223.245000", "174224.735000", "174226.225000", "174227.715000", "174229.205000", "174230.695000", "174232.185000", "174233.675000", "174235.165000", "174236.655000", "174238.145000", "174239.635000", "174241.125000", "174242.615000", "174244.105000", "174245.595000", "174247.085000", "174248.575000", "174250.065000", "174251.555000", "174253.045000", "174254.535000", "174256.025000", "174257.515000", "174259.005000", "174300.495000", "174301.985000", "174303.475000", "174304.965000", "174306.455000", "174307.945000", "174309.435000", "174310.925000", "174312.415000", "174313.905000", "174315.395000", "174316.885000", "174318.375000"],
      "ContentTime": ["173329.321000", "173329.324000", "173329.328000", "173329.331000", "173329.334000", "173329.342000", "173329.346000", "173329.349000", "173329.352000", "173329.356000", "173329.359000", "173329.362000", "173329.366000", "173329.369000", "173329.372000", "173329.376000", "173329.379000", "173329.382000", "173329.386000", "173329.389000", "173329.392000", "173329.395000", "173329.399000", "173329.402000", "173349.281000", "173349.285000", "173349.288000", "173349.291000", "173349.295000", "173349.298000", "173349.301000", "173349.305000", "173349.308000", "173349.311000", "173349.314000", "173349.318000", "173349.321000", "173349.324000", "173349.327000", "173349.331000", "173349.334000", "173349.337000", "173349.341000", "173349.344000", "173409.280000", "173409.284000", "173409.287000", "173409.290000", "173409.294000", "173409.297000", "173409.300000", "173409.304000", "173409.307000", "173409.310000", "173409.313000", "173409.317000", "173409.320000", "173409.323000", "173409.326000", "173409.330000", "173409.333000", "173409.336000", "173409.339000", "173409.343000", "173429.280000", "173429.284000", "173429.287000", "173429.290000", "173429.294000", "173429.297000", "173429.302000", "173429.318000", "173429.323000", "173429.327000", "173429.331000", "173429.334000", "173429.338000", "173429.341000", "173429.344000", "173429.348000", "173429.351000", "173429.354000", "173429.357000", "173429.361000", "173509.280000", "173509.284000", "173509.287000", "173509.290000", "173509.293000", "173509.297000", "173509.300000", "173509.303000", "173509.306000", "173509.310000", "173509.313000", "173509.316000", "173509.320000", "173509.323000", "173509.326000", "173509.329000", "173509.333000", "173509.336000", "173509.339000", "173509.342000", "173509.346000", "173509.349000", "173509.352000", "173509.355000", "173509.359000", "173509.362000", "173509.365000", "173509.369000", "173509.372000", "173509.375000", "173509.378000", "173549.281000", "173549.285000", "173549.288000", "173549.292000", "173549.295000", "173549.298000", "173549.302000", "173549.305000", "173549.308000", "173549.311000", "173549.315000", "173549.318000", "173549.322000", "173549.325000", "173549.328000", "173549.332000", "173549.335000", "173549.338000", "173549.342000", "173549.352000", "173549.356000", "173549.359000", "173549.362000", "173549.366000", "173549.369000", "173549.372000", "173629.280000", "173629.284000", "173629.287000", "173629.291000", "173629.294000", "173629.297000", "173629.301000", "173629.304000", "173629.307000", "173629.311000", "173629.314000", "173629.317000", "173629.320000", "173629.324000", "173629.327000", "173629.330000", "173629.333000", "173629.337000", "173629.340000", "173629.343000", "173629.346000", "173629.350000", "173629.353000", "173629.356000", "173629.360000", "173629.363000", "173629.366000", "173709.296000", "173709.300000", "173709.303000", "173709.306000", "173709.309000", "173709.313000", "173709.316000", "173709.319000", "173709.330000", "173709.333000", "173709.336000", "173709.340000", "173709.343000", "173709.346000", "173709.350000", "173709.353000", "173709.357000", "173709.360000", "173709.363000", "173709.366000", "173709.370000", "173709.373000", "173709.376000", "173709.380000", "173709.383000", "173709.386000", "173709.389000", "173749.280000", "173749.284000", "173749.287000", "173749.290000", "173749.294000", "173749.297000", "173749.306000", "173749.309000", "173749.313000", "173749.316000", "173749.319000", "173749.322000", "173749.326000", "173749.329000", "173749.332000", "173749.336000", "173749.339000", "173749.342000", "173749.346000", "173749.349000", "173749.352000", "173749.356000", "173749.359000", "173749.362000", "173749.366000", "173749.369000", "173749.372000", "173829.281000", "173829.285000", "173829.288000", "173829.291000", "173829.300000", "173829.304000", "173829.307000", "173829.310000", "173829.314000", "173829.317000", "173829.320000", "173829.323000", "173829.327000", "173829.330000", "173829.333000", "173829.337000", "173829.340000", "173829.343000", "173829.347000", "173829.350000", "173829.353000", "173829.357000", "173829.360000", "173829.363000", "173829.366000", "173829.370000", "173829.373000", "173909.280000", "173909.284000", "173909.287000", "173909.290000", "173909.294000", "173909.297000", "173909.300000", "173909.304000", "173909.307000", "173909.310000", "173909.314000", "173909.317000", "173909.320000", "173909.323000", "173909.327000", "173909.330000", "173909.334000", "173909.337000", "173909.340000", "173909.354000", "173909.357000", "173909.361000", "173909.364000", "173909.367000", "173909.370000", "173909.374000", "173909.377000", "173949.280000", "173949.284000", "173949.287000", "173949.290000", "173949.294000", "173949.297000", "173949.300000", "173949.304000", "173949.307000", "173949.310000", "173949.313000", "173949.317000", "173949.320000", "173949.323000", "173949.326000", "173949.330000", "173949.333000", "173949.336000", "173949.340000", "173949.343000", "173949.346000", "173949.349000", "173949.353000", "173949.356000", "173949.359000", "173949.362000", "173949.366000", "174029.281000", "174029.285000", "174029.288000", "174029.291000", "174029.295000", "174029.298000", "174029.301000", "174029.305000", "174029.308000", "174029.311000", "174029.314000", "174029.318000", "174029.322000", "174029.325000", "174029.328000", "174029.332000", "174029.335000", "174029.338000", "174029.342000", "174029.345000", "174029.348000", "174029.351000", "174029.355000", "174029.358000", "174029.361000", "174029.365000", "174109.280000", "174109.284000", "174109.287000", "174109.291000", "174109.294000", "174109.297000", "174109.300000", "174109.304000", "174109.307000", "174109.310000", "174109.314000", "174109.317000", "174109.320000", "174109.323000", "174109.327000", "174109.330000", "174109.333000", "174109.337000", "174109.340000", "174109.343000", "174109.346000", "174109.350000", "174109.353000", "174109.356000", "174109.360000", "174109.363000", "174109.366000", "174149.280000", "174149.284000", "174149.287000", "174149.291000", "174149.294000", "174149.297000", "174149.301000", "174149.304000", "174149.307000", "174149.311000", "174149.314000", "174149.317000", "174149.321000", "174149.324000", "174149.327000", "174149.330000", "174149.334000", "174149.337000", "174149.340000", "174149.344000", "174149.349000", "174149.352000", "174149.355000", "174149.359000", "174149.362000", "174149.365000", "174149.368000", "174229.280000", "174229.284000", "174229.287000", "174229.291000", "174229.294000", "174229.297000", "174229.300000", "174229.304000", "174229.307000", "174229.310000", "174229.313000", "174229.317000", "174229.320000", "174229.323000", "174229.327000", "174229.330000", "174229.333000", "174229.336000", "174229.340000", "174229.343000", "174229.346000", "174229.349000", "174229.353000", "174229.356000", "174229.359000", "174229.362000", "174229.366000", "174309.281000", "174309.285000", "174309.288000", "174309.291000", "174309.295000", "174309.298000", "174309.301000", "174309.304000", "174309.308000", "174309.311000", "174309.314000", "174309.318000", "174309.321000", "174309.324000", "174309.327000", "174309.331000", "174309.334000", "174309.337000", "174309.341000", "174309.344000", "174309.347000", "174309.350000", "174309.354000", "174309.357000", "174309.360000", "174309.363000", "174309.367000", "174321.913000", "174321.916000", "174321.920000", "174321.923000", "174321.926000", "174321.930000", "174321.933000", "174321.936000"],
