{
  "AcquisitionMatrixPE": 104,
  "AcquisitionNumber": 1,
  "AcquisitionTime": "19:35:26.577500",
  "BandwidthPerPixelPhaseEncode": 17.17,
  "BaseResolution": 104,
  "BodyPartExamined": "BRAIN",
  "CoilCombinationMethod": "Sum of Squares",
  "ConsistencyInfo": "N4_VE11C_LATEST_20160120",
  "ConversionSoftware": "dcm2niix",
  "ConversionSoftwareVersion": "v1.0.20220505",
  "DerivedVendorReportedEchoSpacing": 0.000560011,
  "DeviceSerialNumber": "167006",
  "DwellTime": 2.1e-06,
  "EchoTime": 0.037,
  "EchoTrainLength": 104,
  "EffectiveEchoSpacing": 0.000560011,
  "FlipAngle": 52,
  "HeudiconvVersion": "0.5.3.post811+g6206e14",
  "ImageComments": "Unaliased MB4/PE3/LB",
  "ImageOrientationPatientDICOM": [0.999494, -0.0310227, 0.00704329, 0.0314103, 0.927296, -0.373009],
  "ImageOrientationText": "Tra>Cor(-21.9)>Sag(-0.3)",
  "ImageType": [
    "ORIGINAL",
    "PRIMARY",
    "M",
    "MB",
    "ND",
    "MOSAIC"
],
  "ImagingFrequency": 123.26,
  "InPlanePhaseEncodingDirectionDICOM": "COL",
  "InstitutionAddress": "Chemin Queen-Mary 4565,Montreal,District,CA,H3W 1W5",
  "InstitutionName": "IUGM",
  "InstitutionalDepartmentName": "Department",
  "MRAcquisitionType": "2D",
  "MagneticFieldStrength": 3,
  "Manufacturer": "Siemens",
  "ManufacturersModelName": "Prisma_fit",
  "MatrixCoilMode": "SENSE",
  "Modality": "MR",
  "MultibandAccelerationFactor": 4,
  "PartialFourier": 1,
  "PatientPosition": "HFS",
  "PercentPhaseFOV": 100,
  "PercentSampling": 100,
  "PhaseEncodingDirection": "j",
  "PhaseEncodingSteps": 104,
  "PhaseResolution": 1,
  "PixelBandwidth": 2290,
  "ProcedureStepDescription": "games^mariostars",
  "ProtocolName": "func_task-mariostars_run-10",
  "PulseSequenceDetails": "%CustomerSeq%\\cmrr_mbep2d_bold",
  "ReceiveCoilActiveElements": "HC1-7;NC1,2",
  "ReceiveCoilName": "HeadNeck_64",
  "ReconMatrixPE": 104,
  "RepetitionTime": 1.49,
  "SAR": 0.0558584,
  "ScanOptions": "FS",
  "ScanningSequence": "EP",
  "SequenceName": "epfid2d1_104",
  "SequenceVariant": "SK\\SS",
  "SeriesDescription": "func_task-mariostars_run-10",
  "SeriesNumber": 38,
  "ShimSetting": [601, -7251, -8798, 458, 24, -310, 15, 44],
  "SliceThickness": 2,
  "SliceTiming": [0, 0.7825, 0.0975, 0.88, 0.195, 0.98, 0.2925, 1.0775, 0.39, 1.175, 0.49, 1.2725, 0.5875, 1.37, 0.685, 0, 0.7825, 0.0975, 0.88, 0.195, 0.98, 0.2925, 1.0775, 0.39, 1.175, 0.49, 1.2725, 0.5875, 1.37, 0.685, 0, 0.7825, 0.0975, 0.88, 0.195, 0.98, 0.2925, 1.0775, 0.39, 1.175, 0.49, 1.2725, 0.5875, 1.37, 0.685, 0, 0.7825, 0.0975, 0.88, 0.195, 0.98, 0.2925, 1.0775, 0.39, 1.175, 0.49, 1.2725, 0.5875, 1.37, 0.685],
  "SoftwareVersions": "syngo MR E11",
  "SpacingBetweenSlices": 2,
  "StationName": "MRC35049",
  "TaskName": "mariostars",
  "TotalReadoutTime": 0.0576811,
  "TxRefAmp": 265.677,
  "WipMemBlock": "56604282-ee85-4a18-ae8b-57e200ad033d||Sequence: R017 ve11c/master r/75a17815+; Jun 28 2022 16:32:11 by eja",
  "dcmmeta_affine": [
    [-1.9989876747131348, 0.0628206878900528, -0.010081109590828419, 101.20454406738281],
    [0.06204543262720108, 1.8545914888381958, -0.7460837960243225, -70.80105590820312],
    [0.014086578041315079, 0.7460188865661621, 1.8556016683578491, -60.51971435546875],
    [0.0, 0.0, 0.0, 1.0]
],
  "dcmmeta_reorient_transform": [
    [0.0, -1.0, 0.0, 103.0],
    [1.0, 0.0, 0.0, 0.0],
    [0.0, 0.0, 1.0, 0.0],
    [0.0, 0.0, 0.0, 1.0]
],
  "dcmmeta_shape": [104, 104, 60, 552],
  "dcmmeta_slice_dim": 2,
  "dcmmeta_version": 0.6,
  "global": {
    "const": {
      "AcquisitionMatrix": [104, 0, 0, 104],
      "AngioFlag": "N",
      "BitsAllocated": 16,
      "BitsStored": 16,
      "BodyPartExamined": "BRAIN",
      "Columns": 832,
      "EchoNumbers": 1,
      "EchoTime": 37.0,
      "EchoTrainLength": 104,
      "FlipAngle": 52.0,
      "HighBit": 15,
      "ImageOrientationPatient": [0.99949386347216, -0.0310227168068, 0.00704328924709, 0.03141034370572, 0.92729571474294, -0.3730094472365],
      "ImagePositionPatient": [-858.17333881246, -772.70860617617, 282.74359572075],
      "ImageType": [
        "ORIGINAL",
        "PRIMARY",
        "M",
        "MB",
        "ND",
        "MOSAIC"
],
      "ImagedNucleus": "1H",
      "ImagingFrequency": 123.260229,
      "InPlanePhaseEncodingDirection": "COL",
      "MRAcquisitionType": "2D",
      "MagneticFieldStrength": 3.0,
      "Manufacturer": "SIEMENS",
      "ManufacturerModelName": "Prisma_fit",
      "Modality": "MR",
      "NumberOfAverages": 1.0,
      "NumberOfPhaseEncodingSteps": 104,
      "PercentPhaseFieldOfView": 100.0,
      "PercentSampling": 100.0,
      "PerformedProcedureStepStartTime": "170640.569000",
      "PhotometricInterpretation": "MONOCHROME2",
      "PixelBandwidth": 2290.0,
      "PixelRepresentation": 0,
      "PixelSpacing": [2.0, 2.0],
      "ProtocolName": "func_task-mariostars_run-10",
      "RepetitionTime": 1490.0,
      "Rows": 832,
      "SAR": 0.05585841049676,
      "SamplesPerPixel": 1,
      "ScanOptions": "FS",
      "ScanningSequence": "EP",
      "SequenceName": "epfid2d1_104",
      "SequenceVariant": [
        "SK",
        "SS"
],
      "SeriesDescription": "func_task-mariostars_run-10",
      "SeriesNumber": 38,
      "SeriesTime": "193629.325000",
      "SliceLocation": -30.248607680883,
      "SliceThickness": 2.0,
      "SmallestImagePixelValue": 0,
      "SoftwareVersions": "syngo MR E11",
      "SpacingBetweenSlices": 2.0000000346351,
      "SpecificCharacterSet": "ISO_IR 100",
      "StudyID": "1",
      "StudyTime": "170640.493000",
      "TransmitCoilName": "Body",
      "VariableFlipAngleFlag": "N",
      "WindowCenterWidthExplanation": "Algo1",
      "dBdt": 0.0},
    "slices": {}
  },
  "time": {
    "samples": {
      "AcquisitionNumber": [1, 2, 3, 4, 5, 6, 7, 8, 9, 10, 11, 12, 13, 14, 15, 16, 17, 18, 19, 20, 21, 22, 23, 24, 25, 26, 27, 28, 29, 30, 31, 32, 33, 34, 35, 36, 37, 38, 39, 40, 41, 42, 43, 44, 45, 46, 47, 48, 49, 50, 51, 52, 53, 54, 55, 56, 57, 58, 59, 60, 61, 62, 63, 64, 65, 66, 67, 68, 69, 70, 71, 72, 73, 74, 75, 76, 77, 78, 79, 80, 81, 82, 83, 84, 85, 86, 87, 88, 89, 90, 91, 92, 93, 94, 95, 96, 97, 98, 99, 100, 101, 102, 103, 104, 105, 106, 107, 108, 109, 110, 111, 112, 113, 114, 115, 116, 117, 118, 119, 120, 121, 122, 123, 124, 125, 126, 127, 128, 129, 130, 131, 132, 133, 134, 135, 136, 137, 138, 139, 140, 141, 142, 143, 144, 145, 146, 147, 148, 149, 150, 151, 152, 153, 154, 155, 156, 157, 158, 159, 160, 161, 162, 163, 164, 165, 166, 167, 168, 169, 170, 171, 172, 173, 174, 175, 176, 177, 178, 179, 180, 181, 182, 183, 184, 185, 186, 187, 188, 189, 190, 191, 192, 193, 194, 195, 196, 197, 198, 199, 200, 201, 202, 203, 204, 205, 206, 207, 208, 209, 210, 211, 212, 213, 214, 215, 216, 217, 218, 219, 220, 221, 222, 223, 224, 225, 226, 227, 228, 229, 230, 231, 232, 233, 234, 235, 236, 237, 238, 239, 240, 241, 242, 243, 244, 245, 246, 247, 248, 249, 250, 251, 252, 253, 254, 255, 256, 257, 258, 259, 260, 261, 262, 263, 264, 265, 266, 267, 268, 269, 270, 271, 272, 273, 274, 275, 276, 277, 278, 279, 280, 281, 282, 283, 284, 285, 286, 287, 288, 289, 290, 291, 292, 293, 294, 295, 296, 297, 298, 299, 300, 301, 302, 303, 304, 305, 306, 307, 308, 309, 310, 311, 312, 313, 314, 315, 316, 317, 318, 319, 320, 321, 322, 323, 324, 325, 326, 327, 328, 329, 330, 331, 332, 333, 334, 335, 336, 337, 338, 339, 340, 341, 342, 343, 344, 345, 346, 347, 348, 349, 350, 351, 352, 353, 354, 355, 356, 357, 358, 359, 360, 361, 362, 363, 364, 365, 366, 367, 368, 369, 370, 371, 372, 373, 374, 375, 376, 377, 378, 379, 380, 381, 382, 383, 384, 385, 386, 387, 388, 389, 390, 391, 392, 393, 394, 395, 396, 397, 398, 399, 400, 401, 402, 403, 404, 405, 406, 407, 408, 409, 410, 411, 412, 413, 414, 415, 416, 417, 418, 419, 420, 421, 422, 423, 424, 425, 426, 427, 428, 429, 430, 431, 432, 433, 434, 435, 436, 437, 438, 439, 440, 441, 442, 443, 444, 445, 446, 447, 448, 449, 450, 451, 452, 453, 454, 455, 456, 457, 458, 459, 460, 461, 462, 463, 464, 465, 466, 467, 468, 469, 470, 471, 472, 473, 474, 475, 476, 477, 478, 479, 480, 481, 482, 483, 484, 485, 486, 487, 488, 489, 490, 491, 492, 493, 494, 495, 496, 497, 498, 499, 500, 501, 502, 503, 504, 505, 506, 507, 508, 509, 510, 511, 512, 513, 514, 515, 516, 517, 518, 519, 520, 521, 522, 523, 524, 525, 526, 527, 528, 529, 530, 531, 532, 533, 534, 535, 536, 537, 538, 539, 540, 541, 542, 543, 544, 545, 546, 547, 548, 549, 550, 551, 552],
      "AcquisitionTime": ["193526.577500", "193528.067500", "193529.557500", "193531.047500", "193532.537500", "193534.027500", "193535.517500", "193537.007500", "193538.497500", "193539.987500", "193541.477500", "193542.967500", "193544.457500", "193545.947500", "193547.437500", "193548.927500", "193550.417500", "193551.907500", "193553.397500", "193554.887500", "193556.377500", "193557.867500", "193559.357500", "193600.847500", "193602.337500", "193603.827500", "193605.317500", "193606.807500", "193608.297500", "193609.787500", "193611.277500", "193612.767500", "193614.257500", "193615.747500", "193617.237500", "193618.727500", "193620.217500", "193621.707500", "193623.197500", "193624.687500", "193626.177500", "193627.667500", "193629.157500", "193630.647500", "193632.137500", "193633.627500", "193635.117500", "193636.607500", "193638.097500", "193639.587500", "193641.077500", "193642.567500", "193644.057500", "193645.547500", "193647.037500", "193648.527500", "193650.017500", "193651.507500", "193652.997500", "193654.487500", "193655.977500", "193657.467500", "193658.957500", "193700.447500", "193701.937500", "193703.427500", "193704.917500", "193706.407500", "193707.897500", "193709.387500", "193710.877500", "193712.367500", "193713.857500", "193715.347500", "193716.837500", "193718.327500", "193719.817500", "193721.307500", "193722.797500", "193724.287500", "193725.777500", "193727.267500", "193728.757500", "193730.247500", "193731.737500", "193733.227500", "193734.717500", "193736.207500", "193737.697500", "193739.187500", "193740.677500", "193742.167500", "193743.657500", "193745.147500", "193746.637500", "193748.127500", "193749.617500", "193751.107500", "193752.597500", "193754.087500", "193755.577500", "193757.067500", "193758.557500", "193800.047500", "193801.537500", "193803.027500", "193804.517500", "193806.007500", "193807.497500", "193808.987500", "193810.477500", "193811.967500", "193813.457500", "193814.947500", "193816.437500", "193817.927500", "193819.417500", "193820.907500", "193822.397500", "193823.887500", "193825.377500", "193826.867500", "193828.357500", "193829.847500", "193831.337500", "193832.827500", "193834.317500", "193835.807500", "193837.297500", "193838.787500", "193840.277500", "193841.767500", "193843.257500", "193844.747500", "193846.237500", "193847.727500", "193849.217500", "193850.707500", "193852.197500", "193853.687500", "193855.177500", "193856.667500", "193858.157500", "193859.647500", "193901.137500", "193902.627500", "193904.117500", "193905.607500", "193907.097500", "193908.587500", "193910.077500", "193911.567500", "193913.057500", "193914.547500", "193916.037500", "193917.527500", "193919.017500", "193920.507500", "193921.997500", "193923.487500", "193924.977500", "193926.467500", "193927.957500", "193929.447500", "193930.937500", "193932.427500", "193933.917500", "193935.407500", "193936.897500", "193938.387500", "193939.877500", "193941.367500", "193942.857500", "193944.347500", "193945.837500", "193947.327500", "193948.817500", "193950.307500", "193951.797500", "193953.287500", "193954.777500", "193956.267500", "193957.757500", "193959.247500", "194000.737500", "194002.227500", "194003.717500", "194005.207500", "194006.697500", "194008.187500", "194009.677500", "194011.167500", "194012.657500", "194014.147500", "194015.637500", "194017.127500", "194018.617500", "194020.107500", "194021.597500", "194023.087500", "194024.577500", "194026.067500", "194027.557500", "194029.047500", "194030.537500", "194032.027500", "194033.517500", "194035.007500", "194036.497500", "194037.987500", "194039.477500", "194040.967500", "194042.457500", "194043.947500", "194045.437500", "194046.927500", "194048.417500", "194049.907500", "194051.397500", "194052.887500", "194054.377500", "194055.867500", "194057.357500", "194058.847500", "194100.337500", "194101.827500", "194103.317500", "194104.807500", "194106.297500", "194107.787500", "194109.277500", "194110.767500", "194112.257500", "194113.747500", "194115.237500", "194116.727500", "194118.217500", "194119.707500", "194121.197500", "194122.687500", "194124.177500", "194125.667500", "194127.157500", "194128.647500", "194130.137500", "194131.627500", "194133.117500", "194134.607500", "194136.097500", "194137.587500", "194139.077500", "194140.567500", "194142.057500", "194143.547500", "194145.037500", "194146.527500", "194148.017500", "194149.507500", "194150.997500", "194152.487500", "194153.977500", "194155.467500", "194156.957500", "194158.447500", "194159.937500", "194201.427500", "194202.917500", "194204.407500", "194205.897500", "194207.387500", "194208.877500", "194210.367500", "194211.857500", "194213.347500", "194214.837500", "194216.327500", "194217.817500", "194219.307500", "194220.797500", "194222.287500", "194223.777500", "194225.267500", "194226.757500", "194228.247500", "194229.737500", "194231.227500", "194232.717500", "194234.207500", "194235.697500", "194237.187500", "194238.677500", "194240.167500", "194241.657500", "194243.147500", "194244.637500", "194246.127500", "194247.617500", "194249.107500", "194250.597500", "194252.087500", "194253.577500", "194255.067500", "194256.557500", "194258.047500", "194259.537500", "194301.027500", "194302.517500", "194304.007500", "194305.497500", "194306.987500", "194308.477500", "194309.967500", "194311.457500", "194312.947500", "194314.437500", "194315.927500", "194317.417500", "194318.907500", "194320.397500", "194321.887500", "194323.377500", "194324.867500", "194326.357500", "194327.847500", "194329.337500", "194330.827500", "194332.317500", "194333.807500", "194335.297500", "194336.787500", "194338.277500", "194339.767500", "194341.257500", "194342.747500", "194344.237500", "194345.727500", "194347.217500", "194348.707500", "194350.197500", "194351.687500", "194353.177500", "194354.667500", "194356.157500", "194357.647500", "194359.137500", "194400.627500", "194402.117500", "194403.607500", "194405.097500", "194406.587500", "194408.077500", "194409.567500", "194411.057500", "194412.547500", "194414.037500", "194415.527500", "194417.017500", "194418.507500", "194419.997500", "194421.487500", "194422.977500", "194424.467500", "194425.957500", "194427.447500", "194428.937500", "194430.427500", "194431.917500", "194433.407500", "194434.897500", "194436.387500", "194437.877500", "194439.367500", "194440.857500", "194442.347500", "194443.837500", "194445.327500", "194446.817500", "194448.307500", "194449.797500", "194451.287500", "194452.777500", "194454.267500", "194455.757500", "194457.247500", "194458.737500", "194500.227500", "194501.717500", "194503.207500", "194504.697500", "194506.187500", "194507.677500", "194509.167500", "194510.657500", "194512.147500", "194513.637500", "194515.127500", "194516.617500", "194518.107500", "194519.597500", "194521.087500", "194522.577500", "194524.067500", "194525.557500", "194527.047500", "194528.537500", "194530.027500", "194531.517500", "194533.007500", "194534.497500", "194535.987500", "194537.477500", "194538.967500", "194540.457500", "194541.947500", "194543.437500", "194544.927500", "194546.417500", "194547.907500", "194549.397500", "194550.887500", "194552.377500", "194553.867500", "194555.357500", "194556.847500", "194558.337500", "194559.827500", "194601.317500", "194602.807500", "194604.297500", "194605.787500", "194607.277500", "194608.767500", "194610.257500", "194611.747500", "194613.237500", "194614.727500", "194616.217500", "194617.707500", "194619.197500", "194620.687500", "194622.177500", "194623.667500", "194625.157500", "194626.647500", "194628.137500", "194629.627500", "194631.117500", "194632.607500", "194634.097500", "194635.587500", "194637.077500", "194638.567500", "194640.057500", "194641.547500", "194643.037500", "194644.527500", "194646.017500", "194647.507500", "194648.997500", "194650.487500", "194651.977500", "194653.467500", "194654.957500", "194656.447500", "194657.937500", "194659.427500", "194700.917500", "194702.407500", "194703.897500", "194705.387500", "194706.877500", "194708.367500", "194709.857500", "194711.347500", "194712.837500", "194714.327500", "194715.817500", "194717.307500", "194718.797500", "194720.287500", "194721.777500", "194723.267500", "194724.757500", "194726.247500", "194727.737500", "194729.227500", "194730.717500", "194732.207500", "194733.697500", "194735.187500", "194736.677500", "194738.167500", "194739.657500", "194741.147500", "194742.637500", "194744.127500", "194745.617500", "194747.107500", "194748.597500", "194750.087500", "194751.577500", "194753.067500", "194754.557500", "194756.047500", "194757.537500", "194759.027500", "194800.517500", "194802.007500", "194803.497500", "194804.987500", "194806.477500", "194807.967500", "194809.457500", "194810.947500", "194812.437500", "194813.927500", "194815.417500", "194816.907500", "194818.397500", "194819.887500", "194821.377500", "194822.867500", "194824.357500", "194825.847500", "194827.337500", "194828.827500", "194830.317500", "194831.807500", "194833.297500", "194834.787500", "194836.277500", "194837.767500", "194839.257500", "194840.747500", "194842.237500", "194843.727500", "194845.217500", "194846.707500", "194848.197500", "194849.687500", "194851.177500", "194852.667500", "194854.157500", "194855.647500", "194857.137500", "194858.627500", "194900.117500", "194901.607500", "194903.097500", "194904.587500", "194906.077500", "194907.567500"],
      "ContentTime": ["193629.328000", "193629.332000", "193629.335000", "193629.338000", "193629.341000", "193629.345000", "193629.348000", "193629.351000", "193629.355000", "193629.358000", "193629.361000", "193629.364000", "193629.376000", "193649.281000", "193649.285000", "193649.288000", "193649.291000", "193649.310000", "193649.314000", "193649.322000", "193649.326000", "193649.329000", "193649.332000", "193649.336000", "193649.339000", "193649.342000", "193649.345000", "193649.349000", "193649.352000", "193649.355000", "193649.359000", "193649.371000", "193649.374000", "193709.280000", "193709.284000", "193709.287000", "193709.290000", "193709.293000", "193709.297000", "193709.300000", "193709.303000", "193709.307000", "193709.310000", "193709.313000", "193709.316000", "193709.320000", "193709.323000", "193709.326000", "193709.330000", "193709.333000", "193709.336000", "193709.340000", "193709.343000", "193729.280000", "193729.284000", "193729.287000", "193729.290000", "193729.294000", "193729.297000", "193729.300000", "193729.304000", "193729.307000", "193729.310000", "193729.313000", "193729.317000", "193729.320000", "193729.323000", "193729.327000", "193729.330000", "193729.333000", "193729.337000", "193729.340000", "193729.343000", "193749.280000", "193749.284000", "193749.287000", "193749.290000", "193749.294000", "193749.297000", "193749.301000", "193749.304000", "193749.307000", "193749.310000", "193749.314000", "193749.328000", "193749.331000", "193749.334000", "193749.338000", "193749.341000", "193749.344000", "193749.347000", "193749.351000", "193749.354000", "193829.281000", "193829.285000", "193829.289000", "193829.292000", "193829.296000", "193829.299000", "193829.302000", "193829.306000", "193829.309000", "193829.312000", "193829.315000", "193829.319000", "193829.322000", "193829.325000", "193829.329000", "193829.332000", "193829.335000", "193829.339000", "193829.342000", "193829.345000", "193829.349000", "193829.352000", "193829.355000", "193829.359000", "193829.362000", "193829.365000", "193829.369000", "193829.372000", "193909.281000", "193909.285000", "193909.288000", "193909.292000", "193909.295000", "193909.299000", "193909.302000", "193909.305000", "193909.309000", "193909.312000", "193909.315000", "193909.319000", "193909.322000", "193909.326000", "193909.329000", "193909.332000", "193909.336000", "193909.339000", "193909.342000", "193909.346000", "193909.349000", "193909.353000", "193909.356000", "193909.359000", "193909.363000", "193909.366000", "193909.369000", "193949.280000", "193949.284000", "193949.287000", "193949.291000", "193949.294000", "193949.297000", "193949.301000", "193949.304000", "193949.308000", "193949.311000", "193949.315000", "193949.318000", "193949.321000", "193949.325000", "193949.328000", "193949.332000", "193949.335000", "193949.338000", "193949.341000", "193949.345000", "193949.348000", "193949.351000", "193949.355000", "193949.358000", "193949.362000", "193949.365000", "193949.368000", "194029.280000", "194029.284000", "194029.287000", "194029.291000", "194029.294000", "194029.297000", "194029.310000", "194029.314000", "194029.317000", "194029.320000", "194029.324000", "194029.327000", "194029.330000", "194029.334000", "194029.337000", "194029.341000", "194029.344000", "194029.347000", "194029.351000", "194029.354000", "194029.357000", "194029.361000", "194029.364000", "194029.368000", "194029.371000", "194029.374000", "194029.378000", "194109.281000", "194109.285000", "194109.288000", "194109.292000", "194109.295000", "194109.298000", "194109.302000", "194109.305000", "194109.308000", "194109.312000", "194109.315000", "194109.318000", "194109.321000", "194109.325000", "194109.328000", "194109.331000", "194109.335000", "194109.338000", "194109.341000", "194109.345000", "194109.348000", "194109.351000", "194109.355000", "194109.358000", "194109.361000", "194109.364000", "194109.368000", "194149.280000", "194149.284000", "194149.287000", "194149.291000", "194149.294000", "194149.304000", "194149.307000", "194149.311000", "194149.314000", "194149.317000", "194149.321000", "194149.324000", "194149.328000", "194149.331000", "194149.334000", "194149.338000", "194149.341000", "194149.344000", "194149.348000", "194149.351000", "194149.355000", "194149.358000", "194149.361000", "194149.365000", "194149.368000", "194149.371000", "194149.375000", "194229.280000", "194229.284000", "194229.287000", "194229.291000", "194229.294000", "194229.298000", "194229.301000", "194229.304000", "194229.308000", "194229.312000", "194229.315000", "194229.319000", "194229.322000", "194229.326000", "194229.329000", "194229.333000", "194229.336000", "194229.339000", "194229.358000", "194229.361000", "194229.365000", "194229.368000", "194229.371000", "194229.375000", "194229.378000", "194229.381000", "194309.281000", "194309.285000", "194309.288000", "194309.292000", "194309.295000", "194309.299000", "194309.302000", "194309.305000", "194309.309000", "194309.312000", "194309.316000", "194309.319000", "194309.322000", "194309.326000", "194309.329000", "194309.332000", "194309.336000", "194309.339000", "194309.343000", "194309.346000", "194309.349000", "194309.352000", "194309.356000", "194309.359000", "194309.363000", "194309.366000", "194309.369000", "194349.280000", "194349.284000", "194349.287000", "194349.291000", "194349.294000", "194349.297000", "194349.301000", "194349.304000", "194349.307000", "194349.311000", "194349.314000", "194349.317000", "194349.321000", "194349.324000", "194349.327000", "194349.330000", "194349.344000", "194349.350000", "194349.353000", "194349.356000", "194349.360000", "194349.363000", "194349.366000", "194349.370000", "194349.373000", "194349.376000", "194349.380000", "194429.280000", "194429.284000", "194429.287000", "194429.290000", "194429.294000", "194429.297000", "194429.300000", "194429.304000", "194429.307000", "194429.310000", "194429.314000", "194429.317000", "194429.320000", "194429.324000", "194429.327000", "194429.330000", "194429.334000", "194429.337000", "194429.340000", "194429.344000", "194429.347000", "194429.350000", "194429.354000", "194429.357000", "194429.360000", "194429.364000", "194429.367000", "194509.288000", "194509.292000", "194509.295000", "194509.299000", "194509.302000", "194509.305000", "194509.309000", "194509.312000", "194509.315000", "194509.319000", "194509.322000", "194509.325000", "194509.329000", "194509.332000", "194509.335000", "194509.339000", "194509.342000", "194509.345000", "194509.349000", "194509.352000", "194509.355000", "194509.359000", "194509.362000", "194509.365000", "194509.368000", "194509.372000", "194509.375000", "194549.282000", "194549.285000", "194549.289000", "194549.292000", "194549.296000", "194549.299000", "194549.303000", "194549.306000", "194549.310000", "194549.313000", "194549.316000", "194549.320000", "194549.324000", "194549.327000", "194549.331000", "194549.334000", "194549.337000", "194549.341000", "194549.344000", "194549.347000", "194549.351000", "194549.354000", "194549.358000", "194549.361000", "194549.364000", "194549.368000", "194549.371000", "194629.280000", "194629.284000", "194629.287000", "194629.290000", "194629.294000", "194629.297000", "194629.301000", "194629.304000", "194629.307000", "194629.311000", "194629.314000", "194629.317000", "194629.321000", "194629.324000", "194629.327000", "194629.331000", "194629.334000", "194629.337000", "194629.341000", "194629.344000", "194629.347000", "194629.351000", "194629.354000", "194629.357000", "194629.361000", "194629.364000", "194629.367000", "194709.280000", "194709.284000", "194709.288000", "194709.292000", "194709.308000", "194709.312000", "194709.315000", "194709.318000", "194709.322000", "194709.325000", "194709.328000", "194709.332000", "194709.335000", "194709.339000", "194709.342000", "194709.346000", "194709.349000", "194709.352000", "194709.356000", "194709.359000", "194709.362000", "194709.366000", "194709.369000", "194709.372000", "194709.376000", "194709.379000", "194749.281000", "194749.285000", "194749.289000", "194749.292000", "194749.295000", "194749.299000", "194749.302000", "194749.305000", "194749.309000", "194749.312000", "194749.323000", "194749.326000", "194749.329000", "194749.333000", "194749.336000", "194749.340000", "194749.343000", "194749.347000", "194749.350000", "194749.354000", "194749.357000", "194749.360000", "194749.364000", "194749.367000", "194749.370000", "194749.374000", "194749.377000", "194829.280000", "194829.284000", "194829.287000", "194829.291000", "194829.294000", "194829.298000", "194829.301000", "194829.304000", "194829.308000", "194829.311000", "194829.315000", "194829.318000", "194829.322000", "194829.325000", "194829.329000", "194829.332000", "194829.335000", "194829.339000", "194829.342000", "194829.345000", "194829.349000", "194829.352000", "194829.356000", "194829.359000", "194829.362000", "194829.366000", "194829.369000", "194909.280000", "194909.284000", "194909.287000", "194909.291000", "194909.294000", "194909.297000", "194909.301000", "194909.304000", "194909.307000", "194909.311000", "194909.325000", "194909.328000", "194909.331000", "194909.335000", "194909.338000", "194909.341000", "194909.345000", "194909.348000", "194909.351000", "194909.355000", "194909.358000", "194909.361000", "194909.365000", "194909.368000", "194909.371000", "194909.375000", "194909.378000", "194911.126000"],
