{
  "AcquisitionMatrixPE": 104,
  "AcquisitionNumber": 1,
  "AcquisitionTime": "16:09:44.047500",
  "BandwidthPerPixelPhaseEncode": 17.17,
  "BaseResolution": 104,
  "BodyPartExamined": "BRAIN",
  "CoilCombinationMethod": "Sum of Squares",
  "ConsistencyInfo": "N4_VE11C_LATEST_20160120",
  "ConversionSoftware": "dcm2niix",
  "ConversionSoftwareVersion": "v1.0.20211006",
  "DerivedVendorReportedEchoSpacing": 0.000560011,
  "DeviceSerialNumber": "167006",
  "DwellTime": 2.1e-06,
  "EchoTime": 0.037,
  "EchoTime1": 0.037,
  "EchoTime2": 0.001,
  "EchoTrainLength": 104,
  "EffectiveEchoSpacing": 0.000560011,
  "FlipAngle": 52,
  "HeudiconvVersion": "0.11.3.post9+gc939bf8",
  "ImageComments": "Unaliased MB4/PE3/LB",
  "ImageOrientationPatientDICOM": [0.999361, -0.0356589, 0.00257679, 0.0340253, 0.926496, -0.374763],
  "ImageOrientationText": "Tra>Cor(-22.0)>Sag(-0.6)",
  "ImageType": [
    "ORIGINAL",
    "PRIMARY",
    "P",
    "MB",
    "ND",
    "MOSAIC",
    "PHASE"
],
  "ImagingFrequency": 123.259,
  "InPlanePhaseEncodingDirectionDICOM": "COL",
  "InstitutionAddress": "Chemin Queen-Mary 4565,Montreal,District,CA,H3W 1W5",
  "InstitutionName": "IUGM",
  "InstitutionalDepartmentName": "Department",
  "MRAcquisitionType": "2D",
  "MagneticFieldStrength": 3,
  "Manufacturer": "Siemens",
  "ManufacturersModelName": "Prisma_fit",
  "MatrixCoilMode": "SENSE",
  "Modality": "MR",
  "MultibandAccelerationFactor": 4,
  "PartialFourier": 1,
  "PatientPosition": "HFS",
  "PercentPhaseFOV": 100,
  "PercentSampling": 100,
  "PhaseEncodingDirection": "j",
  "PhaseEncodingSteps": 104,
  "PhaseResolution": 1,
  "PixelBandwidth": 2290,
  "ProcedureStepDescription": "games^mariostars",
  "ProtocolName": "func_task-mariostars_run-02",
  "PulseSequenceDetails": "%CustomerSeq%\\cmrr_mbep2d_bold",
  "ReceiveCoilActiveElements": "HC1-7;NC1,2",
  "ReceiveCoilName": "HeadNeck_64",
  "ReconMatrixPE": 104,
  "RepetitionTime": 1.49,
  "SAR": 0.0413052,
  "ScanOptions": "FS",
  "ScanningSequence": "EP",
  "SequenceName": "epfid2d1_104",
  "SequenceVariant": "SK\\SS",
  "SeriesDescription": "func_task-mariostars_run-02",
  "SeriesNumber": 15,
  "ShimSetting": [622, -7250, -8831, 513, 13, -205, -115, -14],
  "SliceThickness": 2,
  "SliceTiming": [0, 0.785, 0.0975, 0.8825, 0.1975, 0.98, 0.295, 1.0775, 0.3925, 1.1775, 0.49, 1.275, 0.5875, 1.3725, 0.6875, 0, 0.785, 0.0975, 0.8825, 0.1975, 0.98, 0.295, 1.0775, 0.3925, 1.1775, 0.49, 1.275, 0.5875, 1.3725, 0.6875, 0, 0.785, 0.0975, 0.8825, 0.1975, 0.98, 0.295, 1.0775, 0.3925, 1.1775, 0.49, 1.275, 0.5875, 1.3725, 0.6875, 0, 0.785, 0.0975, 0.8825, 0.1975, 0.98, 0.295, 1.0775, 0.3925, 1.1775, 0.49, 1.275, 0.5875, 1.3725, 0.6875],
  "SoftwareVersions": "syngo MR E11",
  "SpacingBetweenSlices": 2,
  "StationName": "MRC35049",
  "TaskName": "mariostars",
  "TotalReadoutTime": 0.0576811,
  "TxRefAmp": 226.304,
  "WipMemBlock": "9f120760-349a-49a8-8ac3-81f4f3fe1ae5||Sequence: R017 ve11c/master r/75a17815+; Jun 28 2022 16:32:11 by eja",
  "dcmmeta_affine": [
    [-1.9987213611602783, 0.06805052608251572, -0.021952498704195023, 103.45919036865234],
    [0.07131779193878174, 1.852992057800293, -0.7492223978042603, -65.72716522216797],
    [0.005153587553650141, 0.7495262026786804, 1.8542340993881226, -68.74878692626953],
    [0.0, 0.0, 0.0, 1.0]
],
  "dcmmeta_reorient_transform": [
    [0.0, -1.0, 0.0, 103.0],
    [1.0, 0.0, 0.0, 0.0],
    [0.0, 0.0, 1.0, 0.0],
    [0.0, 0.0, 0.0, 1.0]
],
  "dcmmeta_shape": [104, 104, 60, 414],
  "dcmmeta_slice_dim": 2,
  "dcmmeta_version": 0.6,
  "global": {
    "const": {
      "AcquisitionMatrix": [104, 0, 0, 104],
      "AngioFlag": "N",
      "BitsAllocated": 16,
      "BitsStored": 16,
      "BodyPartExamined": "BRAIN",
      "Columns": 832,
      "EchoNumbers": 1,
      "EchoTime": 37.0,
      "EchoTrainLength": 104,
      "FlipAngle": 52.0,
      "HighBit": 15,
      "ImageOrientationPatient": [0.99936069731034, -0.035658895173, 0.00257679382828, 0.03402526460056, 0.92649603271227, -0.3747631021556],
      "ImagePositionPatient": [-862.77337666134, -773.66045000128, 279.40404369985],
      "ImageType": [
        "ORIGINAL",
        "PRIMARY",
        "P",
        "MB",
        "ND",
        "MOSAIC"
],
      "ImagedNucleus": "1H",
      "ImagingFrequency": 123.258775,
      "InPlanePhaseEncodingDirection": "COL",
      "LargestImagePixelValue": 4095,
      "MRAcquisitionType": "2D",
      "MagneticFieldStrength": 3.0,
      "Manufacturer": "SIEMENS",
      "ManufacturerModelName": "Prisma_fit",
      "Modality": "MR",
      "NumberOfAverages": 1.0,
      "NumberOfPhaseEncodingSteps": 104,
      "PercentPhaseFieldOfView": 100.0,
      "PercentSampling": 100.0,
      "PerformedProcedureStepStartTime": "153326.211000",
      "PhotometricInterpretation": "MONOCHROME2",
      "PixelBandwidth": 2290.0,
      "PixelRepresentation": 0,
      "PixelSpacing": [2.0, 2.0],
      "ProtocolName": "func_task-mariostars_run-02",
      "RepetitionTime": 1490.0,
      "RescaleIntercept": -4096.0,
      "RescaleSlope": 2.0,
      "RescaleType": "US",
      "Rows": 832,
      "SAR": 0.04130522805109,
      "SamplesPerPixel": 1,
      "ScanOptions": "FS",
      "ScanningSequence": "EP",
      "SequenceName": "epfid2d1_104",
      "SequenceVariant": [
        "SK",
        "SS"
],
      "SeriesDescription": "func_task-mariostars_run-02",
      "SeriesNumber": 15,
      "SeriesTime": "161054.528000",
      "SliceLocation": -40.251632419832,
      "SliceThickness": 2.0,
      "SmallestImagePixelValue": 0,
      "SoftwareVersions": "syngo MR E11",
      "SpacingBetweenSlices": 1.9999999998204,
      "SpecificCharacterSet": "ISO_IR 100",
      "StudyID": "1",
      "StudyTime": "153326.154000",
      "TransmitCoilName": "Body",
      "VariableFlipAngleFlag": "N",
      "WindowCenterWidthExplanation": "Algo1",
      "dBdt": 0.0},
    "slices": {}
  },
  "time": {
    "samples": {
      "AcquisitionNumber": [1, 2, 3, 4, 5, 6, 7, 8, 9, 10, 11, 12, 13, 14, 15, 16, 17, 18, 19, 20, 21, 22, 23, 24, 25, 26, 27, 28, 29, 30, 31, 32, 33, 34, 35, 36, 37, 38, 39, 40, 41, 42, 43, 44, 45, 46, 47, 48, 49, 50, 51, 52, 53, 54, 55, 56, 57, 58, 59, 60, 61, 62, 63, 64, 65, 66, 67, 68, 69, 70, 71, 72, 73, 74, 75, 76, 77, 78, 79, 80, 81, 82, 83, 84, 85, 86, 87, 88, 89, 90, 91, 92, 93, 94, 95, 96, 97, 98, 99, 100, 101, 102, 103, 104, 105, 106, 107, 108, 109, 110, 111, 112, 113, 114, 115, 116, 117, 118, 119, 120, 121, 122, 123, 124, 125, 126, 127, 128, 129, 130, 131, 132, 133, 134, 135, 136, 137, 138, 139, 140, 141, 142, 143, 144, 145, 146, 147, 148, 149, 150, 151, 152, 153, 154, 155, 156, 157, 158, 159, 160, 161, 162, 163, 164, 165, 166, 167, 168, 169, 170, 171, 172, 173, 174, 175, 176, 177, 178, 179, 180, 181, 182, 183, 184, 185, 186, 187, 188, 189, 190, 191, 192, 193, 194, 195, 196, 197, 198, 199, 200, 201, 202, 203, 204, 205, 206, 207, 208, 209, 210, 211, 212, 213, 214, 215, 216, 217, 218, 219, 220, 221, 222, 223, 224, 225, 226, 227, 228, 229, 230, 231, 232, 233, 234, 235, 236, 237, 238, 239, 240, 241, 242, 243, 244, 245, 246, 247, 248, 249, 250, 251, 252, 253, 254, 255, 256, 257, 258, 259, 260, 261, 262, 263, 264, 265, 266, 267, 268, 269, 270, 271, 272, 273, 274, 275, 276, 277, 278, 279, 280, 281, 282, 283, 284, 285, 286, 287, 288, 289, 290, 291, 292, 293, 294, 295, 296, 297, 298, 299, 300, 301, 302, 303, 304, 305, 306, 307, 308, 309, 310, 311, 312, 313, 314, 315, 316, 317, 318, 319, 320, 321, 322, 323, 324, 325, 326, 327, 328, 329, 330, 331, 332, 333, 334, 335, 336, 337, 338, 339, 340, 341, 342, 343, 344, 345, 346, 347, 348, 349, 350, 351, 352, 353, 354, 355, 356, 357, 358, 359, 360, 361, 362, 363, 364, 365, 366, 367, 368, 369, 370, 371, 372, 373, 374, 375, 376, 377, 378, 379, 380, 381, 382, 383, 384, 385, 386, 387, 388, 389, 390, 391, 392, 393, 394, 395, 396, 397, 398, 399, 400, 401, 402, 403, 404, 405, 406, 407, 408, 409, 410, 411, 412, 413, 414],
      "AcquisitionTime": ["160944.047500", "160945.537500", "160947.027500", "160948.517500", "160950.007500", "160951.497500", "160952.987500", "160954.477500", "160955.967500", "160957.457500", "160958.947500", "161000.437500", "161001.927500", "161003.417500", "161004.907500", "161006.397500", "161007.887500", "161009.377500", "161010.867500", "161012.357500", "161013.847500", "161015.337500", "161016.827500", "161018.317500", "161019.807500", "161021.297500", "161022.787500", "161024.277500", "161025.767500", "161027.257500", "161028.747500", "161030.237500", "161031.727500", "161033.217500", "161034.707500", "161036.197500", "161037.687500", "161039.177500", "161040.667500", "161042.157500", "161043.647500", "161045.137500", "161046.627500", "161048.117500", "161049.607500", "161051.097500", "161052.587500", "161054.077500", "161055.567500", "161057.057500", "161058.547500", "161100.037500", "161101.527500", "161103.017500", "161104.507500", "161105.997500", "161107.487500", "161108.977500", "161110.467500", "161111.957500", "161113.447500", "161114.937500", "161116.427500", "161117.917500", "161119.407500", "161120.897500", "161122.387500", "161123.877500", "161125.367500", "161126.857500", "161128.347500", "161129.837500", "161131.327500", "161132.817500", "161134.307500", "161135.797500", "161137.287500", "161138.777500", "161140.267500", "161141.757500", "161143.247500", "161144.737500", "161146.227500", "161147.717500", "161149.207500", "161150.697500", "161152.187500", "161153.677500", "161155.167500", "161156.657500", "161158.147500", "161159.637500", "161201.127500", "161202.617500", "161204.107500", "161205.597500", "161207.087500", "161208.577500", "161210.067500", "161211.557500", "161213.047500", "161214.537500", "161216.027500", "161217.517500", "161219.007500", "161220.497500", "161221.987500", "161223.477500", "161224.967500", "161226.457500", "161227.947500", "161229.437500", "161230.927500", "161232.417500", "161233.907500", "161235.397500", "161236.887500", "161238.377500", "161239.867500", "161241.357500", "161242.847500", "161244.337500", "161245.827500", "161247.317500", "161248.807500", "161250.297500", "161251.787500", "161253.277500", "161254.767500", "161256.257500", "161257.747500", "161259.237500", "161300.727500", "161302.217500", "161303.707500", "161305.197500", "161306.687500", "161308.177500", "161309.667500", "161311.157500", "161312.647500", "161314.137500", "161315.627500", "161317.117500", "161318.607500", "161320.097500", "161321.587500", "161323.077500", "161324.567500", "161326.057500", "161327.547500", "161329.037500", "161330.527500", "161332.017500", "161333.507500", "161334.997500", "161336.487500", "161337.977500", "161339.467500", "161340.957500", "161342.447500", "161343.937500", "161345.427500", "161346.917500", "161348.407500", "161349.897500", "161351.387500", "161352.877500", "161354.367500", "161355.857500", "161357.347500", "161358.837500", "161400.327500", "161401.817500", "161403.307500", "161404.797500", "161406.287500", "161407.777500", "161409.267500", "161410.757500", "161412.247500", "161413.737500", "161415.227500", "161416.717500", "161418.207500", "161419.697500", "161421.187500", "161422.677500", "161424.167500", "161425.657500", "161427.147500", "161428.637500", "161430.127500", "161431.617500", "161433.107500", "161434.597500", "161436.087500", "161437.577500", "161439.067500", "161440.557500", "161442.047500", "161443.537500", "161445.027500", "161446.517500", "161448.007500", "161449.497500", "161450.987500", "161452.477500", "161453.967500", "161455.457500", "161456.947500", "161458.437500", "161459.927500", "161501.417500", "161502.907500", "161504.397500", "161505.887500", "161507.377500", "161508.867500", "161510.357500", "161511.847500", "161513.337500", "161514.827500", "161516.317500", "161517.807500", "161519.297500", "161520.787500", "161522.277500", "161523.767500", "161525.257500", "161526.747500", "161528.237500", "161529.727500", "161531.217500", "161532.707500", "161534.197500", "161535.687500", "161537.177500", "161538.667500", "161540.157500", "161541.647500", "161543.137500", "161544.627500", "161546.117500", "161547.607500", "161549.097500", "161550.587500", "161552.077500", "161553.567500", "161555.057500", "161556.547500", "161558.037500", "161559.527500", "161601.017500", "161602.507500", "161603.997500", "161605.487500", "161606.977500", "161608.467500", "161609.957500", "161611.447500", "161612.937500", "161614.427500", "161615.917500", "161617.407500", "161618.897500", "161620.387500", "161621.877500", "161623.367500", "161624.857500", "161626.347500", "161627.837500", "161629.327500", "161630.817500", "161632.307500", "161633.797500", "161635.287500", "161636.777500", "161638.267500", "161639.757500", "161641.247500", "161642.737500", "161644.227500", "161645.717500", "161647.207500", "161648.697500", "161650.187500", "161651.677500", "161653.167500", "161654.657500", "161656.147500", "161657.637500", "161659.127500", "161700.617500", "161702.107500", "161703.597500", "161705.087500", "161706.577500", "161708.067500", "161709.557500", "161711.047500", "161712.537500", "161714.027500", "161715.517500", "161717.007500", "161718.497500", "161719.987500", "161721.477500", "161722.967500", "161724.457500", "161725.947500", "161727.437500", "161728.927500", "161730.417500", "161731.907500", "161733.397500", "161734.887500", "161736.377500", "161737.867500", "161739.357500", "161740.847500", "161742.337500", "161743.827500", "161745.317500", "161746.807500", "161748.297500", "161749.787500", "161751.277500", "161752.767500", "161754.257500", "161755.747500", "161757.237500", "161758.727500", "161800.217500", "161801.707500", "161803.197500", "161804.687500", "161806.177500", "161807.667500", "161809.157500", "161810.647500", "161812.137500", "161813.627500", "161815.117500", "161816.607500", "161818.097500", "161819.587500", "161821.077500", "161822.567500", "161824.057500", "161825.547500", "161827.037500", "161828.527500", "161830.017500", "161831.507500", "161832.997500", "161834.487500", "161835.977500", "161837.467500", "161838.957500", "161840.447500", "161841.937500", "161843.427500", "161844.917500", "161846.407500", "161847.897500", "161849.387500", "161850.877500", "161852.367500", "161853.857500", "161855.347500", "161856.837500", "161858.327500", "161859.817500", "161901.307500", "161902.797500", "161904.287500", "161905.777500", "161907.267500", "161908.757500", "161910.247500", "161911.737500", "161913.227500", "161914.717500", "161916.207500", "161917.697500", "161919.187500", "161920.677500", "161922.167500", "161923.657500", "161925.147500", "161926.637500", "161928.127500", "161929.617500", "161931.107500", "161932.597500", "161934.087500", "161935.577500", "161937.067500", "161938.557500", "161940.047500", "161941.537500", "161943.027500", "161944.517500", "161946.007500", "161947.497500", "161948.987500", "161950.477500", "161951.967500", "161953.457500", "161954.947500", "161956.437500", "161957.927500", "161959.417500"],
      "ContentTime": ["161054.530000", "161054.533000", "161054.535000", "161054.538000", "161054.540000", "161054.543000", "161054.545000", "161054.548000", "161054.550000", "161054.553000", "161054.555000", "161054.558000", "161054.560000", "161054.572000", "161054.574000", "161054.576000", "161054.579000", "161054.581000", "161054.584000", "161054.586000", "161114.503000", "161114.506000", "161114.508000", "161114.511000", "161114.513000", "161114.516000", "161114.518000", "161114.521000", "161114.523000", "161114.526000", "161114.528000", "161114.531000", "161114.533000", "161114.536000", "161114.538000", "161114.549000", "161114.551000", "161114.554000", "161114.556000", "161114.559000", "161114.561000", "161134.480000", "161134.483000", "161134.486000", "161134.488000", "161134.491000", "161134.493000", "161134.496000", "161134.498000", "161134.501000", "161134.503000", "161134.506000", "161134.508000", "161134.511000", "161134.513000", "161134.523000", "161134.526000", "161134.528000", "161134.531000", "161134.533000", "161134.536000", "161154.484000", "161154.487000", "161154.489000", "161154.492000", "161154.494000", "161154.497000", "161154.499000", "161154.502000", "161154.504000", "161154.507000", "161154.509000", "161154.512000", "161154.514000", "161154.517000", "161154.519000", "161154.522000", "161154.524000", "161154.527000", "161154.536000", "161154.539000", "161234.545000", "161234.548000", "161234.550000", "161234.553000", "161234.556000", "161234.558000", "161234.561000", "161234.563000", "161234.566000", "161234.568000", "161234.571000", "161234.574000", "161234.576000", "161234.579000", "161234.581000", "161234.584000", "161234.586000", "161234.589000", "161234.591000", "161234.594000", "161234.596000", "161234.599000", "161234.601000", "161234.604000", "161234.606000", "161234.609000", "161234.611000", "161234.614000", "161234.616000", "161234.619000", "161234.621000", "161234.624000", "161314.524000", "161314.527000", "161314.529000", "161314.532000", "161314.534000", "161314.537000", "161314.540000", "161314.542000", "161314.545000", "161314.547000", "161314.550000", "161314.552000", "161314.555000", "161314.557000", "161314.560000", "161314.563000", "161314.565000", "161314.568000", "161314.570000", "161314.573000", "161314.575000", "161314.578000", "161314.580000", "161314.583000", "161314.585000", "161314.588000", "161314.590000", "161354.520000", "161354.523000", "161354.525000", "161354.528000", "161354.530000", "161354.533000", "161354.535000", "161354.538000", "161354.540000", "161354.543000", "161354.545000", "161354.548000", "161354.551000", "161354.554000", "161354.556000", "161354.559000", "161354.561000", "161354.564000", "161354.566000", "161354.569000", "161354.572000", "161354.574000", "161354.577000", "161354.579000", "161354.582000", "161354.584000", "161354.587000", "161434.522000", "161434.524000", "161434.527000", "161434.529000", "161434.532000", "161434.534000", "161434.546000", "161434.549000", "161434.551000", "161434.554000", "161434.556000", "161434.559000", "161434.561000", "161434.564000", "161434.567000", "161434.569000", "161434.572000", "161434.574000", "161434.577000", "161434.579000", "161434.582000", "161434.584000", "161434.587000", "161434.590000", "161434.592000", "161434.595000", "161434.597000", "161514.513000", "161514.516000", "161514.518000", "161514.521000", "161514.524000", "161514.526000", "161514.529000", "161514.531000", "161514.534000", "161514.537000", "161514.539000", "161514.541000", "161514.544000", "161514.547000", "161514.549000", "161514.552000", "161514.554000", "161514.557000", "161514.559000", "161514.562000", "161514.565000", "161514.567000", "161514.570000", "161514.572000", "161514.575000", "161514.577000", "161514.580000", "161554.514000", "161554.516000", "161554.519000", "161554.521000", "161554.524000", "161554.526000", "161554.529000", "161554.531000", "161554.534000", "161554.536000", "161554.539000", "161554.541000", "161554.544000", "161554.546000", "161554.549000", "161554.551000", "161554.554000", "161554.556000", "161554.559000", "161554.562000", "161554.564000", "161554.567000", "161554.570000", "161554.572000", "161554.574000", "161554.577000", "161554.580000", "161634.522000", "161634.525000", "161634.527000", "161634.530000", "161634.532000", "161634.535000", "161634.538000", "161634.541000", "161634.544000", "161634.547000", "161634.549000", "161634.552000", "161634.555000", "161634.578000", "161634.580000", "161634.583000", "161634.585000", "161634.588000", "161634.590000", "161634.593000", "161634.595000", "161634.598000", "161634.600000", "161634.603000", "161634.605000", "161634.608000", "161714.530000", "161714.533000", "161714.536000", "161714.538000", "161714.541000", "161714.543000", "161714.546000", "161714.549000", "161714.551000", "161714.554000", "161714.556000", "161714.559000", "161714.562000", "161714.564000", "161714.567000", "161714.569000", "161714.572000", "161714.574000", "161714.577000", "161714.579000", "161714.582000", "161714.585000", "161714.587000", "161714.590000", "161714.592000", "161714.595000", "161714.597000", "161754.516000", "161754.519000", "161754.521000", "161754.524000", "161754.526000", "161754.529000", "161754.531000", "161754.534000", "161754.536000", "161754.539000", "161754.541000", "161754.544000", "161754.546000", "161754.549000", "161754.551000", "161754.554000", "161754.556000", "161754.559000", "161754.561000", "161754.564000", "161754.567000", "161754.569000", "161754.572000", "161754.574000", "161754.577000", "161754.579000", "161754.581000", "161834.512000", "161834.515000", "161834.517000", "161834.520000", "161834.522000", "161834.525000", "161834.527000", "161834.530000", "161834.533000", "161834.535000", "161834.538000", "161834.540000", "161834.542000", "161834.545000", "161834.547000", "161834.550000", "161834.552000", "161834.555000", "161834.557000", "161834.560000", "161834.563000", "161834.565000", "161834.568000", "161834.570000", "161834.573000", "161834.575000", "161834.578000", "161914.566000", "161914.569000", "161914.571000", "161914.574000", "161914.576000", "161914.579000", "161914.582000", "161914.584000", "161914.587000", "161914.589000", "161914.592000", "161914.594000", "161914.597000", "161914.599000", "161914.602000", "161914.604000", "161914.607000", "161914.609000", "161914.612000", "161914.614000", "161914.617000", "161914.619000", "161914.622000", "161914.624000", "161914.627000", "161914.629000", "161914.632000", "161954.524000", "161954.526000", "161954.529000", "161954.531000", "161954.534000", "161954.536000", "161954.539000", "161954.542000", "161954.544000", "161954.547000", "161954.549000", "161954.552000", "161954.554000", "161954.557000", "161954.559000", "161954.562000", "161954.564000", "161954.567000", "161954.569000", "161954.572000", "161954.574000", "161954.577000", "161954.579000", "161954.582000", "161954.584000", "161954.587000", "161954.589000", "162002.227000", "162002.230000", "162002.233000", "162002.236000", "162002.239000"],
      "InstanceCreationTime": ["161054.530000", "161054.533000", "161054.535000", "161054.538000", "161054.540000", "161054.543000", "161054.545000", "161054.548000", "161054.550000", "161054.553000", "161054.555000", "161054.558000", "161054.560000", "161054.572000", "161054.574000", "161054.576000", "161054.579000", "161054.581000", "161054.584000", "161054.586000", "161114.503000", "161114.506000", "161114.508000", "161114.511000", "161114.513000", "161114.516000", "161114.518000", "161114.521000", "161114.523000", "161114.526000", "161114.528000", "161114.531000", "161114.533000", "161114.536000", "161114.538000", "161114.549000", "161114.551000", "161114.554000", "161114.556000", "161114.559000", "161114.561000", "161134.480000", "161134.483000", "161134.486000", "161134.488000", "161134.491000", "161134.493000", "161134.496000", "161134.498000", "161134.501000", "161134.503000", "161134.506000", "161134.508000", "161134.511000", "161134.513000", "161134.523000", "161134.526000", "161134.528000", "161134.531000", "161134.533000", "161134.536000", "161154.484000", "161154.487000", "161154.489000", "161154.492000", "161154.494000", "161154.497000", "161154.499000", "161154.502000", "161154.504000", "161154.507000", "161154.509000", "161154.512000", "161154.514000", "161154.517000", "161154.519000", "161154.522000", "161154.524000", "161154.527000", "161154.536000", "161154.539000", "161234.545000", "161234.548000", "161234.550000", "161234.553000", "161234.556000", "161234.558000", "161234.561000", "161234.563000", "161234.566000", "161234.568000", "161234.571000", "161234.574000", "161234.576000", "161234.579000", "161234.581000", "161234.584000", "161234.586000", "161234.589000", "161234.591000", "161234.594000", "161234.596000", "161234.599000", "161234.601000", "161234.604000", "161234.606000", "161234.609000", "161234.611000", "161234.614000", "161234.616000", "161234.619000", "161234.621000", "161234.624000", "161314.524000", "161314.527000", "161314.529000", "161314.532000", "161314.534000", "161314.537000", "161314.540000", "161314.542000", "161314.545000", "161314.547000", "161314.550000", "161314.552000", "161314.555000", "161314.557000", "161314.560000", "161314.563000", "161314.565000", "161314.568000", "161314.570000", "161314.573000", "161314.575000", "161314.578000", "161314.580000", "161314.583000", "161314.585000", "161314.588000", "161314.590000", "161354.520000", "161354.523000", "161354.525000", "161354.528000", "161354.530000", "161354.533000", "161354.535000", "161354.538000", "161354.540000", "161354.543000", "161354.545000", "161354.548000", "161354.551000", "161354.554000", "161354.556000", "161354.559000", "161354.561000", "161354.564000", "161354.566000", "161354.569000", "161354.572000", "161354.574000", "161354.577000", "161354.579000", "161354.582000", "161354.584000", "161354.587000", "161434.522000", "161434.524000", "161434.527000", "161434.529000", "161434.532000", "161434.534000", "161434.546000", "161434.549000", "161434.551000", "161434.554000", "161434.556000", "161434.559000", "161434.561000", "161434.564000", "161434.567000", "161434.569000", "161434.572000", "161434.574000", "161434.577000", "161434.579000", "161434.582000", "161434.584000", "161434.587000", "161434.590000", "161434.592000", "161434.595000", "161434.597000", "161514.513000", "161514.516000", "161514.518000", "161514.521000", "161514.524000", "161514.526000", "161514.529000", "161514.531000", "161514.534000", "161514.537000", "161514.539000", "161514.541000", "161514.544000", "161514.547000", "161514.549000", "161514.552000", "161514.554000", "161514.557000", "161514.559000", "161514.562000", "161514.565000", "161514.567000", "161514.570000", "161514.572000", "161514.575000", "161514.577000", "161514.580000", "161554.514000", "161554.516000", "161554.519000", "161554.521000", "161554.524000", "161554.526000", "161554.529000", "161554.531000", "161554.534000", "161554.536000", "161554.539000", "161554.541000", "161554.544000", "161554.546000", "161554.549000", "161554.551000", "161554.554000", "161554.556000", "161554.559000", "161554.562000", "161554.564000", "161554.567000", "161554.570000", "161554.572000", "161554.574000", "161554.577000", "161554.580000", "161634.522000", "161634.525000", "161634.527000", "161634.530000", "161634.532000", "161634.535000", "161634.538000", "161634.541000", "161634.544000", "161634.547000", "161634.549000", "161634.552000", "161634.555000", "161634.578000", "161634.580000", "161634.583000", "161634.585000", "161634.588000", "161634.590000", "161634.593000", "161634.595000", "161634.598000", "161634.600000", "161634.603000", "161634.605000", "161634.608000", "161714.530000", "161714.533000", "161714.536000", "161714.538000", "161714.541000", "161714.543000", "161714.546000", "161714.549000", "161714.551000", "161714.554000", "161714.556000", "161714.559000", "161714.562000", "161714.564000", "161714.567000", "161714.569000", "161714.572000", "161714.574000", "161714.577000", "161714.579000", "161714.582000", "161714.585000", "161714.587000", "161714.590000", "161714.592000", "161714.595000", "161714.597000", "161754.516000", "161754.519000", "161754.521000", "161754.524000", "161754.526000", "161754.529000", "161754.531000", "161754.534000", "161754.536000", "161754.539000", "161754.541000", "161754.544000", "161754.546000", "161754.549000", "161754.551000", "161754.554000", "161754.556000", "161754.559000", "161754.561000", "161754.564000", "161754.567000", "161754.569000", "161754.572000", "161754.574000", "161754.577000", "161754.579000", "161754.581000", "161834.512000", "161834.515000", "161834.517000", "161834.520000", "161834.522000", "161834.525000", "161834.527000", "161834.530000", "161834.533000", "161834.535000", "161834.538000", "161834.540000", "161834.542000", "161834.545000", "161834.547000", "161834.550000", "161834.552000", "161834.555000", "161834.557000", "161834.560000", "161834.563000", "161834.565000", "161834.568000", "161834.570000", "161834.573000", "161834.575000", "161834.578000", "161914.566000", "161914.569000", "161914.571000", "161914.574000", "161914.576000", "161914.579000", "161914.582000", "161914.584000", "161914.587000", "161914.589000", "161914.592000", "161914.594000", "161914.597000", "161914.599000", "161914.602000", "161914.604000", "161914.607000", "161914.609000", "161914.612000", "161914.614000", "161914.617000", "161914.619000", "161914.622000", "161914.624000", "161914.627000", "161914.629000", "161914.632000", "161954.524000", "161954.526000", "161954.529000", "161954.531000", "161954.534000", "161954.536000", "161954.539000", "161954.542000", "161954.544000", "161954.547000", "161954.549000", "161954.552000", "161954.554000", "161954.557000", "161954.559000", "161954.562000", "161954.564000", "161954.567000", "161954.569000", "161954.572000", "161954.574000", "161954.577000", "161954.579000", "161954.582000", "161954.584000", "161954.587000", "161954.589000", "162002.227000", "162002.230000", "162002.233000", "162002.236000", "162002.239000"],
