{
  "AcquisitionMatrixPE": 104,
  "AcquisitionNumber": 1,
  "AcquisitionTime": "16:21:31.292500",
  "BandwidthPerPixelPhaseEncode": 17.17,
  "BaseResolution": 104,
  "BodyPartExamined": "BRAIN",
  "CoilCombinationMethod": "Sum of Squares",
  "ConsistencyInfo": "N4_VE11C_LATEST_20160120",
  "ConversionSoftware": "dcm2niix",
  "ConversionSoftwareVersion": "v1.0.20211006",
  "DerivedVendorReportedEchoSpacing": 0.000560011,
  "DeviceSerialNumber": "167006",
  "DwellTime": 2.1e-06,
  "EchoTime": 0.037,
  "EchoTime1": 0.037,
  "EchoTime2": 0.001,
  "EchoTrainLength": 104,
  "EffectiveEchoSpacing": 0.000560011,
  "FlipAngle": 52,
  "HeudiconvVersion": "0.11.3.post9+gc939bf8",
  "ImageComments": "Unaliased MB4/PE3/LB",
  "ImageOrientationPatientDICOM": [0.999361, -0.0356589, 0.00257679, 0.0340253, 0.926496, -0.374763],
  "ImageOrientationText": "Tra>Cor(-22.0)>Sag(-0.6)",
  "ImageType": [
    "ORIGINAL",
    "PRIMARY",
    "P",
    "MB",
    "ND",
    "MOSAIC",
    "PHASE"
],
  "ImagingFrequency": 123.259,
  "InPlanePhaseEncodingDirectionDICOM": "COL",
  "InstitutionAddress": "Chemin Queen-Mary 4565,Montreal,District,CA,H3W 1W5",
  "InstitutionName": "IUGM",
  "InstitutionalDepartmentName": "Department",
  "MRAcquisitionType": "2D",
  "MagneticFieldStrength": 3,
  "Manufacturer": "Siemens",
  "ManufacturersModelName": "Prisma_fit",
  "MatrixCoilMode": "SENSE",
  "Modality": "MR",
  "MultibandAccelerationFactor": 4,
  "PartialFourier": 1,
  "PatientPosition": "HFS",
  "PercentPhaseFOV": 100,
  "PercentSampling": 100,
  "PhaseEncodingDirection": "j",
  "PhaseEncodingSteps": 104,
  "PhaseResolution": 1,
  "PixelBandwidth": 2290,
  "ProcedureStepDescription": "games^mariostars",
  "ProtocolName": "func_task-mariostars_run-03",
  "PulseSequenceDetails": "%CustomerSeq%\\cmrr_mbep2d_bold",
  "ReceiveCoilActiveElements": "HC1-7;NC1,2",
  "ReceiveCoilName": "HeadNeck_64",
  "ReconMatrixPE": 104,
  "RepetitionTime": 1.49,
  "SAR": 0.0413052,
  "ScanOptions": "FS",
  "ScanningSequence": "EP",
  "SequenceName": "epfid2d1_104",
  "SequenceVariant": "SK\\SS",
  "SeriesDescription": "func_task-mariostars_run-03",
  "SeriesNumber": 18,
  "ShimSetting": [622, -7250, -8831, 513, 13, -205, -115, -14],
  "SliceThickness": 2,
  "SliceTiming": [0, 0.7825, 0.0975, 0.8825, 0.195, 0.98, 0.2925, 1.0775, 0.3925, 1.175, 0.49, 1.2725, 0.5875, 1.3725, 0.685, 0, 0.7825, 0.0975, 0.8825, 0.195, 0.98, 0.2925, 1.0775, 0.3925, 1.175, 0.49, 1.2725, 0.5875, 1.3725, 0.685, 0, 0.7825, 0.0975, 0.8825, 0.195, 0.98, 0.2925, 1.0775, 0.3925, 1.175, 0.49, 1.2725, 0.5875, 1.3725, 0.685, 0, 0.7825, 0.0975, 0.8825, 0.195, 0.98, 0.2925, 1.0775, 0.3925, 1.175, 0.49, 1.2725, 0.5875, 1.3725, 0.685],
  "SoftwareVersions": "syngo MR E11",
  "SpacingBetweenSlices": 2,
  "StationName": "MRC35049",
  "TaskName": "mariostars",
  "TotalReadoutTime": 0.0576811,
  "TxRefAmp": 226.304,
  "WipMemBlock": "92229e7b-65a7-4183-9c46-abfe9816a43f||Sequence: R017 ve11c/master r/75a17815+; Jun 28 2022 16:32:11 by eja",
  "dcmmeta_affine": [
    [-1.9987213611602783, 0.06805052608251572, -0.021952498704195023, 103.45919036865234],
    [0.07131779193878174, 1.852992057800293, -0.7492223978042603, -65.72716522216797],
    [0.005153587553650141, 0.7495262026786804, 1.8542340993881226, -68.74878692626953],
    [0.0, 0.0, 0.0, 1.0]
],
  "dcmmeta_reorient_transform": [
    [0.0, -1.0, 0.0, 103.0],
    [1.0, 0.0, 0.0, 0.0],
    [0.0, 0.0, 1.0, 0.0],
    [0.0, 0.0, 0.0, 1.0]
],
  "dcmmeta_shape": [104, 104, 60, 465],
  "dcmmeta_slice_dim": 2,
  "dcmmeta_version": 0.6,
  "global": {
    "const": {
      "AcquisitionMatrix": [104, 0, 0, 104],
      "AngioFlag": "N",
      "BitsAllocated": 16,
      "BitsStored": 16,
      "BodyPartExamined": "BRAIN",
      "Columns": 832,
      "EchoNumbers": 1,
      "EchoTime": 37.0,
      "EchoTrainLength": 104,
      "FlipAngle": 52.0,
      "HighBit": 15,
      "ImageOrientationPatient": [0.99936069731034, -0.035658895173, 0.00257679382828, 0.03402526460056, 0.92649603271227, -0.3747631021556],
      "ImagePositionPatient": [-862.77337666134, -773.66045000128, 279.40404369985],
      "ImageType": [
        "ORIGINAL",
        "PRIMARY",
        "P",
        "MB",
        "ND",
        "MOSAIC"
],
      "ImagedNucleus": "1H",
      "ImagingFrequency": 123.258781,
      "InPlanePhaseEncodingDirection": "COL",
      "LargestImagePixelValue": 4095,
      "MRAcquisitionType": "2D",
      "MagneticFieldStrength": 3.0,
      "Manufacturer": "SIEMENS",
      "ManufacturerModelName": "Prisma_fit",
      "Modality": "MR",
      "NumberOfAverages": 1.0,
      "NumberOfPhaseEncodingSteps": 104,
      "PercentPhaseFieldOfView": 100.0,
      "PercentSampling": 100.0,
      "PerformedProcedureStepStartTime": "153326.211000",
      "PhotometricInterpretation": "MONOCHROME2",
      "PixelBandwidth": 2290.0,
      "PixelRepresentation": 0,
      "PixelSpacing": [2.0, 2.0],
      "ProtocolName": "func_task-mariostars_run-03",
      "RepetitionTime": 1490.0,
      "RescaleIntercept": -4096.0,
      "RescaleSlope": 2.0,
      "RescaleType": "US",
      "Rows": 832,
      "SAR": 0.04130522805109,
      "SamplesPerPixel": 1,
      "ScanOptions": "FS",
      "ScanningSequence": "EP",
      "SequenceName": "epfid2d1_104",
      "SequenceVariant": [
        "SK",
        "SS"
],
      "SeriesDescription": "func_task-mariostars_run-03",
      "SeriesNumber": 18,
      "SeriesTime": "162300.255000",
      "SliceLocation": -40.251632419832,
      "SliceThickness": 2.0,
      "SmallestImagePixelValue": 0,
      "SoftwareVersions": "syngo MR E11",
      "SpacingBetweenSlices": 1.9999999998204,
      "SpecificCharacterSet": "ISO_IR 100",
      "StudyID": "1",
      "StudyTime": "153326.154000",
      "TransmitCoilName": "Body",
      "VariableFlipAngleFlag": "N",
      "WindowCenterWidthExplanation": "Algo1",
      "dBdt": 0.0},
    "slices": {}
  },
  "time": {
    "samples": {
      "AcquisitionNumber": [1, 2, 3, 4, 5, 6, 7, 8, 9, 10, 11, 12, 13, 14, 15, 16, 17, 18, 19, 20, 21, 22, 23, 24, 25, 26, 27, 28, 29, 30, 31, 32, 33, 34, 35, 36, 37, 38, 39, 40, 41, 42, 43, 44, 45, 46, 47, 48, 49, 50, 51, 52, 53, 54, 55, 56, 57, 58, 59, 60, 61, 62, 63, 64, 65, 66, 67, 68, 69, 70, 71, 72, 73, 74, 75, 76, 77, 78, 79, 80, 81, 82, 83, 84, 85, 86, 87, 88, 89, 90, 91, 92, 93, 94, 95, 96, 97, 98, 99, 100, 101, 102, 103, 104, 105, 106, 107, 108, 109, 110, 111, 112, 113, 114, 115, 116, 117, 118, 119, 120, 121, 122, 123, 124, 125, 126, 127, 128, 129, 130, 131, 132, 133, 134, 135, 136, 137, 138, 139, 140, 141, 142, 143, 144, 145, 146, 147, 148, 149, 150, 151, 152, 153, 154, 155, 156, 157, 158, 159, 160, 161, 162, 163, 164, 165, 166, 167, 168, 169, 170, 171, 172, 173, 174, 175, 176, 177, 178, 179, 180, 181, 182, 183, 184, 185, 186, 187, 188, 189, 190, 191, 192, 193, 194, 195, 196, 197, 198, 199, 200, 201, 202, 203, 204, 205, 206, 207, 208, 209, 210, 211, 212, 213, 214, 215, 216, 217, 218, 219, 220, 221, 222, 223, 224, 225, 226, 227, 228, 229, 230, 231, 232, 233, 234, 235, 236, 237, 238, 239, 240, 241, 242, 243, 244, 245, 246, 247, 248, 249, 250, 251, 252, 253, 254, 255, 256, 257, 258, 259, 260, 261, 262, 263, 264, 265, 266, 267, 268, 269, 270, 271, 272, 273, 274, 275, 276, 277, 278, 279, 280, 281, 282, 283, 284, 285, 286, 287, 288, 289, 290, 291, 292, 293, 294, 295, 296, 297, 298, 299, 300, 301, 302, 303, 304, 305, 306, 307, 308, 309, 310, 311, 312, 313, 314, 315, 316, 317, 318, 319, 320, 321, 322, 323, 324, 325, 326, 327, 328, 329, 330, 331, 332, 333, 334, 335, 336, 337, 338, 339, 340, 341, 342, 343, 344, 345, 346, 347, 348, 349, 350, 351, 352, 353, 354, 355, 356, 357, 358, 359, 360, 361, 362, 363, 364, 365, 366, 367, 368, 369, 370, 371, 372, 373, 374, 375, 376, 377, 378, 379, 380, 381, 382, 383, 384, 385, 386, 387, 388, 389, 390, 391, 392, 393, 394, 395, 396, 397, 398, 399, 400, 401, 402, 403, 404, 405, 406, 407, 408, 409, 410, 411, 412, 413, 414, 415, 416, 417, 418, 419, 420, 421, 422, 423, 424, 425, 426, 427, 428, 429, 430, 431, 432, 433, 434, 435, 436, 437, 438, 439, 440, 441, 442, 443, 444, 445, 446, 447, 448, 449, 450, 451, 452, 453, 454, 455, 456, 457, 458, 459, 460, 461, 462, 463, 464, 465],
      "AcquisitionTime": ["162131.292500", "162132.782500", "162134.272500", "162135.762500", "162137.252500", "162138.742500", "162140.232500", "162141.722500", "162143.212500", "162144.702500", "162146.192500", "162147.682500", "162149.172500", "162150.662500", "162152.152500", "162153.642500", "162155.132500", "162156.622500", "162158.112500", "162159.602500", "162201.092500", "162202.582500", "162204.072500", "162205.562500", "162207.052500", "162208.542500", "162210.032500", "162211.522500", "162213.012500", "162214.502500", "162215.992500", "162217.482500", "162218.972500", "162220.462500", "162221.952500", "162223.442500", "162224.932500", "162226.422500", "162227.912500", "162229.402500", "162230.892500", "162232.382500", "162233.872500", "162235.362500", "162236.852500", "162238.342500", "162239.832500", "162241.322500", "162242.812500", "162244.302500", "162245.792500", "162247.282500", "162248.772500", "162250.262500", "162251.752500", "162253.242500", "162254.732500", "162256.222500", "162257.712500", "162259.202500", "162300.692500", "162302.182500", "162303.672500", "162305.162500", "162306.652500", "162308.142500", "162309.632500", "162311.122500", "162312.612500", "162314.102500", "162315.592500", "162317.082500", "162318.572500", "162320.062500", "162321.552500", "162323.042500", "162324.532500", "162326.022500", "162327.512500", "162329.002500", "162330.492500", "162331.982500", "162333.472500", "162334.962500", "162336.452500", "162337.942500", "162339.432500", "162340.922500", "162342.412500", "162343.902500", "162345.392500", "162346.882500", "162348.372500", "162349.862500", "162351.352500", "162352.842500", "162354.332500", "162355.822500", "162357.312500", "162358.802500", "162400.292500", "162401.782500", "162403.272500", "162404.762500", "162406.252500", "162407.742500", "162409.232500", "162410.722500", "162412.212500", "162413.702500", "162415.192500", "162416.682500", "162418.172500", "162419.662500", "162421.152500", "162422.642500", "162424.132500", "162425.622500", "162427.112500", "162428.602500", "162430.092500", "162431.582500", "162433.072500", "162434.562500", "162436.052500", "162437.542500", "162439.032500", "162440.522500", "162442.012500", "162443.502500", "162444.992500", "162446.482500", "162447.972500", "162449.462500", "162450.952500", "162452.442500", "162453.932500", "162455.422500", "162456.912500", "162458.402500", "162459.892500", "162501.382500", "162502.872500", "162504.362500", "162505.852500", "162507.342500", "162508.832500", "162510.322500", "162511.812500", "162513.302500", "162514.792500", "162516.282500", "162517.772500", "162519.262500", "162520.752500", "162522.242500", "162523.732500", "162525.222500", "162526.712500", "162528.202500", "162529.692500", "162531.182500", "162532.672500", "162534.162500", "162535.652500", "162537.142500", "162538.632500", "162540.122500", "162541.612500", "162543.102500", "162544.592500", "162546.082500", "162547.572500", "162549.062500", "162550.552500", "162552.042500", "162553.532500", "162555.022500", "162556.512500", "162558.002500", "162559.492500", "162600.982500", "162602.472500", "162603.962500", "162605.452500", "162606.942500", "162608.432500", "162609.922500", "162611.412500", "162612.902500", "162614.392500", "162615.882500", "162617.372500", "162618.862500", "162620.352500", "162621.842500", "162623.332500", "162624.822500", "162626.312500", "162627.802500", "162629.292500", "162630.782500", "162632.272500", "162633.762500", "162635.252500", "162636.742500", "162638.232500", "162639.722500", "162641.212500", "162642.702500", "162644.192500", "162645.682500", "162647.172500", "162648.662500", "162650.152500", "162651.642500", "162653.132500", "162654.622500", "162656.112500", "162657.602500", "162659.092500", "162700.582500", "162702.072500", "162703.562500", "162705.052500", "162706.542500", "162708.032500", "162709.522500", "162711.012500", "162712.502500", "162713.992500", "162715.482500", "162716.972500", "162718.462500", "162719.952500", "162721.442500", "162722.932500", "162724.422500", "162725.912500", "162727.402500", "162728.892500", "162730.382500", "162731.872500", "162733.362500", "162734.852500", "162736.342500", "162737.832500", "162739.322500", "162740.812500", "162742.302500", "162743.792500", "162745.282500", "162746.772500", "162748.262500", "162749.752500", "162751.242500", "162752.732500", "162754.222500", "162755.712500", "162757.202500", "162758.692500", "162800.182500", "162801.672500", "162803.162500", "162804.652500", "162806.142500", "162807.632500", "162809.122500", "162810.612500", "162812.102500", "162813.592500", "162815.082500", "162816.572500", "162818.062500", "162819.552500", "162821.042500", "162822.532500", "162824.022500", "162825.512500", "162827.002500", "162828.492500", "162829.982500", "162831.472500", "162832.962500", "162834.452500", "162835.942500", "162837.432500", "162838.922500", "162840.412500", "162841.902500", "162843.392500", "162844.882500", "162846.372500", "162847.862500", "162849.352500", "162850.842500", "162852.332500", "162853.822500", "162855.312500", "162856.802500", "162858.292500", "162859.782500", "162901.272500", "162902.762500", "162904.252500", "162905.742500", "162907.232500", "162908.722500", "162910.212500", "162911.702500", "162913.192500", "162914.682500", "162916.172500", "162917.662500", "162919.152500", "162920.642500", "162922.132500", "162923.622500", "162925.112500", "162926.602500", "162928.092500", "162929.582500", "162931.072500", "162932.562500", "162934.052500", "162935.542500", "162937.032500", "162938.522500", "162940.012500", "162941.502500", "162942.992500", "162944.482500", "162945.972500", "162947.462500", "162948.952500", "162950.442500", "162951.932500", "162953.422500", "162954.912500", "162956.402500", "162957.892500", "162959.382500", "163000.872500", "163002.362500", "163003.852500", "163005.342500", "163006.832500", "163008.322500", "163009.812500", "163011.302500", "163012.792500", "163014.282500", "163015.772500", "163017.262500", "163018.752500", "163020.242500", "163021.732500", "163023.222500", "163024.712500", "163026.202500", "163027.692500", "163029.182500", "163030.672500", "163032.162500", "163033.652500", "163035.142500", "163036.632500", "163038.122500", "163039.612500", "163041.102500", "163042.592500", "163044.082500", "163045.572500", "163047.062500", "163048.552500", "163050.042500", "163051.532500", "163053.022500", "163054.512500", "163056.002500", "163057.492500", "163058.982500", "163100.472500", "163101.962500", "163103.452500", "163104.942500", "163106.432500", "163107.922500", "163109.412500", "163110.902500", "163112.392500", "163113.882500", "163115.372500", "163116.862500", "163118.352500", "163119.842500", "163121.332500", "163122.822500", "163124.312500", "163125.802500", "163127.292500", "163128.782500", "163130.272500", "163131.762500", "163133.252500", "163134.742500", "163136.232500", "163137.722500", "163139.212500", "163140.702500", "163142.192500", "163143.682500", "163145.172500", "163146.662500", "163148.152500", "163149.642500", "163151.132500", "163152.622500", "163154.112500", "163155.602500", "163157.092500", "163158.582500", "163200.072500", "163201.562500", "163203.052500", "163204.542500", "163206.032500", "163207.522500", "163209.012500", "163210.502500", "163211.992500", "163213.482500", "163214.972500", "163216.462500", "163217.952500", "163219.442500", "163220.932500", "163222.422500", "163223.912500", "163225.402500", "163226.892500", "163228.382500", "163229.872500", "163231.362500", "163232.852500", "163234.342500", "163235.832500", "163237.322500", "163238.812500", "163240.302500", "163241.792500", "163243.282500", "163244.772500", "163246.262500", "163247.752500", "163249.242500", "163250.732500", "163252.222500", "163253.712500", "163255.202500", "163256.692500", "163258.182500", "163259.672500", "163301.162500", "163302.652500"],
      "ContentTime": ["162300.257000", "162300.260000", "162300.263000", "162300.265000", "162300.268000", "162300.270000", "162300.272000", "162300.288000", "162300.291000", "162300.293000", "162300.296000", "162300.298000", "162300.301000", "162300.303000", "162300.306000", "162300.309000", "162300.311000", "162300.313000", "162300.316000", "162300.319000", "162300.321000", "162300.324000", "162300.326000", "162300.329000", "162300.331000", "162300.334000", "162300.336000", "162300.339000", "162300.341000", "162300.344000", "162300.346000", "162300.349000", "162300.351000", "162300.354000", "162300.356000", "162300.359000", "162300.362000", "162300.364000", "162320.163000", "162320.165000", "162320.168000", "162320.170000", "162320.173000", "162320.175000", "162320.178000", "162320.180000", "162320.183000", "162320.185000", "162320.188000", "162320.190000", "162320.193000", "162320.195000", "162320.198000", "162320.200000", "162320.203000", "162320.205000", "162320.208000", "162320.210000", "162340.157000", "162340.160000", "162340.163000", "162340.165000", "162340.168000", "162340.170000", "162340.173000", "162340.175000", "162340.177000", "162340.180000", "162340.182000", "162340.185000", "162340.187000", "162340.190000", "162340.192000", "162340.195000", "162340.197000", "162340.200000", "162340.202000", "162340.205000", "162340.207000", "162400.156000", "162400.159000", "162400.162000", "162400.164000", "162400.167000", "162400.169000", "162400.172000", "162400.174000", "162400.177000", "162400.179000", "162400.182000", "162400.184000", "162400.187000", "162400.189000", "162400.192000", "162400.194000", "162400.197000", "162400.199000", "162400.202000", "162400.204000", "162440.169000", "162440.172000", "162440.175000", "162440.177000", "162440.180000", "162440.182000", "162440.185000", "162440.187000", "162440.190000", "162440.192000", "162440.195000", "162440.197000", "162440.200000", "162440.202000", "162440.205000", "162440.207000", "162440.210000", "162440.212000", "162440.215000", "162440.217000", "162440.220000", "162440.222000", "162440.224000", "162440.227000", "162440.229000", "162440.232000", "162520.183000", "162520.186000", "162520.188000", "162520.191000", "162520.193000", "162520.196000", "162520.198000", "162520.201000", "162520.203000", "162520.206000", "162520.208000", "162520.211000", "162520.213000", "162520.216000", "162520.218000", "162520.221000", "162520.223000", "162520.226000", "162520.229000", "162520.231000", "162520.234000", "162520.236000", "162520.239000", "162520.241000", "162520.244000", "162520.246000", "162520.249000", "162600.174000", "162600.177000", "162600.179000", "162600.182000", "162600.185000", "162600.187000", "162600.190000", "162600.192000", "162600.195000", "162600.197000", "162600.200000", "162600.202000", "162600.205000", "162600.207000", "162600.210000", "162600.212000", "162600.215000", "162600.217000", "162600.220000", "162600.222000", "162600.225000", "162600.227000", "162600.230000", "162600.232000", "162600.235000", "162600.237000", "162600.240000", "162620.103000", "162620.106000", "162620.109000", "162620.111000", "162620.114000", "162620.116000", "162620.119000", "162620.121000", "162620.124000", "162620.126000", "162620.129000", "162620.131000", "162620.134000", "162620.136000", "162700.170000", "162700.173000", "162700.176000", "162700.178000", "162700.181000", "162700.183000", "162700.186000", "162700.188000", "162700.191000", "162700.193000", "162700.196000", "162700.198000", "162700.201000", "162700.203000", "162700.206000", "162700.208000", "162700.211000", "162700.213000", "162700.216000", "162700.218000", "162700.221000", "162700.223000", "162700.226000", "162700.228000", "162700.231000", "162700.233000", "162740.165000", "162740.167000", "162740.170000", "162740.172000", "162740.175000", "162740.177000", "162740.180000", "162740.183000", "162740.185000", "162740.188000", "162740.190000", "162740.193000", "162740.195000", "162740.197000", "162740.200000", "162740.202000", "162740.205000", "162740.207000", "162740.215000", "162740.217000", "162740.220000", "162740.222000", "162740.225000", "162740.227000", "162740.232000", "162740.235000", "162740.237000", "162820.166000", "162820.169000", "162820.172000", "162820.174000", "162820.177000", "162820.179000", "162820.182000", "162820.184000", "162820.187000", "162820.189000", "162820.192000", "162820.194000", "162820.197000", "162820.199000", "162820.202000", "162820.204000", "162820.218000", "162820.221000", "162820.223000", "162820.226000", "162820.228000", "162820.231000", "162820.234000", "162820.236000", "162820.239000", "162820.241000", "162820.244000", "162900.608000", "162900.611000", "162900.614000", "162900.616000", "162900.619000", "162900.621000", "162900.624000", "162900.626000", "162900.629000", "162900.631000", "162900.634000", "162900.636000", "162900.639000", "162900.641000", "162900.644000", "162900.647000", "162900.649000", "162900.652000", "162900.654000", "162900.657000", "162900.659000", "162900.662000", "162900.665000", "162900.667000", "162900.670000", "162900.672000", "162900.675000", "162940.171000", "162940.174000", "162940.176000", "162940.179000", "162940.181000", "162940.184000", "162940.186000", "162940.189000", "162940.191000", "162940.194000", "162940.196000", "162940.199000", "162940.201000", "162940.204000", "162940.206000", "162940.209000", "162940.211000", "162940.214000", "162940.216000", "162940.219000", "162940.222000", "162940.224000", "162940.227000", "162940.229000", "162940.231000", "162940.234000", "162940.236000", "163020.173000", "163020.176000", "163020.179000", "163020.181000", "163020.184000", "163020.186000", "163020.189000", "163020.191000", "163020.194000", "163020.196000", "163020.199000", "163020.201000", "163020.204000", "163020.206000", "163020.209000", "163020.211000", "163020.214000", "163020.216000", "163020.219000", "163020.221000", "163020.224000", "163020.226000", "163020.229000", "163020.231000", "163020.234000", "163020.237000", "163020.239000", "163100.177000", "163100.179000", "163100.182000", "163100.184000", "163100.187000", "163100.190000", "163100.192000", "163100.195000", "163100.197000", "163100.200000", "163100.202000", "163100.205000", "163100.207000", "163100.210000", "163100.212000", "163100.215000", "163100.217000", "163100.220000", "163100.222000", "163100.225000", "163100.227000", "163100.230000", "163100.232000", "163100.235000", "163100.237000", "163100.240000", "163140.174000", "163140.177000", "163140.179000", "163140.182000", "163140.184000", "163140.187000", "163140.189000", "163140.192000", "163140.194000", "163140.197000", "163140.199000", "163140.202000", "163140.204000", "163140.207000", "163140.209000", "163140.212000", "163140.215000", "163140.217000", "163140.220000", "163140.222000", "163140.225000", "163140.227000", "163140.229000", "163140.232000", "163140.234000", "163140.237000", "163140.240000", "163220.170000", "163220.173000", "163220.176000", "163220.178000", "163220.181000", "163220.183000", "163220.186000", "163220.188000", "163220.191000", "163220.193000", "163220.196000", "163220.198000", "163220.201000", "163220.204000", "163220.206000", "163220.209000", "163220.211000", "163220.214000", "163220.216000", "163220.219000", "163220.221000", "163220.224000", "163220.226000", "163220.229000", "163220.231000", "163220.234000", "163220.236000", "163300.168000", "163300.171000", "163300.174000", "163300.176000", "163300.179000", "163300.181000", "163300.184000", "163300.186000", "163300.189000", "163300.191000", "163300.194000", "163300.196000", "163300.199000", "163300.201000", "163300.204000", "163300.206000", "163300.209000", "163300.211000", "163300.214000", "163300.216000", "163300.219000", "163300.221000", "163300.224000", "163300.226000", "163300.229000", "163300.231000", "163300.234000", "163305.313000", "163305.316000", "163305.318000", "163305.321000"],
