{
  "AcquisitionMatrixPE": 104,
  "AcquisitionNumber": 1,
  "AcquisitionTime": "16:21:31.292500",
  "BandwidthPerPixelPhaseEncode": 17.17,
  "BaseResolution": 104,
  "BodyPartExamined": "BRAIN",
  "CoilCombinationMethod": "Sum of Squares",
  "ConsistencyInfo": "N4_VE11C_LATEST_20160120",
  "ConversionSoftware": "dcm2niix",
  "ConversionSoftwareVersion": "v1.0.20211006",
  "DerivedVendorReportedEchoSpacing": 0.000560011,
  "DeviceSerialNumber": "167006",
  "DwellTime": 2.1e-06,
  "EchoTime": 0.037,
  "EchoTrainLength": 104,
  "EffectiveEchoSpacing": 0.000560011,
  "FlipAngle": 52,
  "HeudiconvVersion": "0.11.3.post9+gc939bf8",
  "ImageComments": "Unaliased MB4/PE3/LB",
  "ImageOrientationPatientDICOM": [0.999361, -0.0356589, 0.00257679, 0.0340253, 0.926496, -0.374763],
  "ImageOrientationText": "Tra>Cor(-22.0)>Sag(-0.6)",
  "ImageType": [
    "ORIGINAL",
    "PRIMARY",
    "M",
    "MB",
    "ND",
    "MOSAIC"
],
  "ImagingFrequency": 123.259,
  "InPlanePhaseEncodingDirectionDICOM": "COL",
  "InstitutionAddress": "Chemin Queen-Mary 4565,Montreal,District,CA,H3W 1W5",
  "InstitutionName": "IUGM",
  "InstitutionalDepartmentName": "Department",
  "MRAcquisitionType": "2D",
  "MagneticFieldStrength": 3,
  "Manufacturer": "Siemens",
  "ManufacturersModelName": "Prisma_fit",
  "MatrixCoilMode": "SENSE",
  "Modality": "MR",
  "MultibandAccelerationFactor": 4,
  "PartialFourier": 1,
  "PatientPosition": "HFS",
  "PercentPhaseFOV": 100,
  "PercentSampling": 100,
  "PhaseEncodingDirection": "j",
  "PhaseEncodingSteps": 104,
  "PhaseResolution": 1,
  "PixelBandwidth": 2290,
  "ProcedureStepDescription": "games^mariostars",
  "ProtocolName": "func_task-mariostars_run-03",
  "PulseSequenceDetails": "%CustomerSeq%\\cmrr_mbep2d_bold",
  "ReceiveCoilActiveElements": "HC1-7;NC1,2",
  "ReceiveCoilName": "HeadNeck_64",
  "ReconMatrixPE": 104,
  "RepetitionTime": 1.49,
  "SAR": 0.0413052,
  "ScanOptions": "FS",
  "ScanningSequence": "EP",
  "SequenceName": "epfid2d1_104",
  "SequenceVariant": "SK\\SS",
  "SeriesDescription": "func_task-mariostars_run-03",
  "SeriesNumber": 17,
  "ShimSetting": [622, -7250, -8831, 513, 13, -205, -115, -14],
  "SliceThickness": 2,
  "SliceTiming": [0, 0.7825, 0.0975, 0.8825, 0.195, 0.98, 0.2925, 1.0775, 0.3925, 1.175, 0.49, 1.2725, 0.5875, 1.3725, 0.685, 0, 0.7825, 0.0975, 0.8825, 0.195, 0.98, 0.2925, 1.0775, 0.3925, 1.175, 0.49, 1.2725, 0.5875, 1.3725, 0.685, 0, 0.7825, 0.0975, 0.8825, 0.195, 0.98, 0.2925, 1.0775, 0.3925, 1.175, 0.49, 1.2725, 0.5875, 1.3725, 0.685, 0, 0.7825, 0.0975, 0.8825, 0.195, 0.98, 0.2925, 1.0775, 0.3925, 1.175, 0.49, 1.2725, 0.5875, 1.3725, 0.685],
  "SoftwareVersions": "syngo MR E11",
  "SpacingBetweenSlices": 2,
  "StationName": "MRC35049",
  "TaskName": "mariostars",
  "TotalReadoutTime": 0.0576811,
  "TxRefAmp": 226.304,
  "WipMemBlock": "92229e7b-65a7-4183-9c46-abfe9816a43f||Sequence: R017 ve11c/master r/75a17815+; Jun 28 2022 16:32:11 by eja",
  "dcmmeta_affine": [
    [-1.9987213611602783, 0.06805052608251572, -0.021952498704195023, 103.45919036865234],
    [0.07131779193878174, 1.852992057800293, -0.7492223978042603, -65.72716522216797],
    [0.005153587553650141, 0.7495262026786804, 1.8542340993881226, -68.74878692626953],
    [0.0, 0.0, 0.0, 1.0]
],
  "dcmmeta_reorient_transform": [
    [0.0, -1.0, 0.0, 103.0],
    [1.0, 0.0, 0.0, 0.0],
    [0.0, 0.0, 1.0, 0.0],
    [0.0, 0.0, 0.0, 1.0]
],
  "dcmmeta_shape": [104, 104, 60, 465],
  "dcmmeta_slice_dim": 2,
  "dcmmeta_version": 0.6,
  "global": {
    "const": {
      "AcquisitionMatrix": [104, 0, 0, 104],
      "AngioFlag": "N",
      "BitsAllocated": 16,
      "BitsStored": 16,
      "BodyPartExamined": "BRAIN",
      "Columns": 832,
      "EchoNumbers": 1,
      "EchoTime": 37.0,
      "EchoTrainLength": 104,
      "FlipAngle": 52.0,
      "HighBit": 15,
      "ImageOrientationPatient": [0.99936069731034, -0.035658895173, 0.00257679382828, 0.03402526460056, 0.92649603271227, -0.3747631021556],
      "ImagePositionPatient": [-862.77337666134, -773.66045000128, 279.40404369985],
      "ImageType": [
        "ORIGINAL",
        "PRIMARY",
        "M",
        "MB",
        "ND",
        "MOSAIC"
],
      "ImagedNucleus": "1H",
      "ImagingFrequency": 123.258781,
      "InPlanePhaseEncodingDirection": "COL",
      "MRAcquisitionType": "2D",
      "MagneticFieldStrength": 3.0,
      "Manufacturer": "SIEMENS",
      "ManufacturerModelName": "Prisma_fit",
      "Modality": "MR",
      "NumberOfAverages": 1.0,
      "NumberOfPhaseEncodingSteps": 104,
      "PercentPhaseFieldOfView": 100.0,
      "PercentSampling": 100.0,
      "PerformedProcedureStepStartTime": "153326.211000",
      "PhotometricInterpretation": "MONOCHROME2",
      "PixelBandwidth": 2290.0,
      "PixelRepresentation": 0,
      "PixelSpacing": [2.0, 2.0],
      "ProtocolName": "func_task-mariostars_run-03",
      "RepetitionTime": 1490.0,
      "Rows": 832,
      "SAR": 0.04130522805109,
      "SamplesPerPixel": 1,
      "ScanOptions": "FS",
      "ScanningSequence": "EP",
      "SequenceName": "epfid2d1_104",
      "SequenceVariant": [
        "SK",
        "SS"
],
      "SeriesDescription": "func_task-mariostars_run-03",
      "SeriesNumber": 17,
      "SeriesTime": "162300.061000",
      "SliceLocation": -40.251632419832,
      "SliceThickness": 2.0,
      "SmallestImagePixelValue": 0,
      "SoftwareVersions": "syngo MR E11",
      "SpacingBetweenSlices": 1.9999999998204,
      "SpecificCharacterSet": "ISO_IR 100",
      "StudyID": "1",
      "StudyTime": "153326.154000",
      "TransmitCoilName": "Body",
      "VariableFlipAngleFlag": "N",
      "WindowCenterWidthExplanation": "Algo1",
      "dBdt": 0.0},
    "slices": {}
  },
  "time": {
    "samples": {
      "AcquisitionNumber": [1, 2, 3, 4, 5, 6, 7, 8, 9, 10, 11, 12, 13, 14, 15, 16, 17, 18, 19, 20, 21, 22, 23, 24, 25, 26, 27, 28, 29, 30, 31, 32, 33, 34, 35, 36, 37, 38, 39, 40, 41, 42, 43, 44, 45, 46, 47, 48, 49, 50, 51, 52, 53, 54, 55, 56, 57, 58, 59, 60, 61, 62, 63, 64, 65, 66, 67, 68, 69, 70, 71, 72, 73, 74, 75, 76, 77, 78, 79, 80, 81, 82, 83, 84, 85, 86, 87, 88, 89, 90, 91, 92, 93, 94, 95, 96, 97, 98, 99, 100, 101, 102, 103, 104, 105, 106, 107, 108, 109, 110, 111, 112, 113, 114, 115, 116, 117, 118, 119, 120, 121, 122, 123, 124, 125, 126, 127, 128, 129, 130, 131, 132, 133, 134, 135, 136, 137, 138, 139, 140, 141, 142, 143, 144, 145, 146, 147, 148, 149, 150, 151, 152, 153, 154, 155, 156, 157, 158, 159, 160, 161, 162, 163, 164, 165, 166, 167, 168, 169, 170, 171, 172, 173, 174, 175, 176, 177, 178, 179, 180, 181, 182, 183, 184, 185, 186, 187, 188, 189, 190, 191, 192, 193, 194, 195, 196, 197, 198, 199, 200, 201, 202, 203, 204, 205, 206, 207, 208, 209, 210, 211, 212, 213, 214, 215, 216, 217, 218, 219, 220, 221, 222, 223, 224, 225, 226, 227, 228, 229, 230, 231, 232, 233, 234, 235, 236, 237, 238, 239, 240, 241, 242, 243, 244, 245, 246, 247, 248, 249, 250, 251, 252, 253, 254, 255, 256, 257, 258, 259, 260, 261, 262, 263, 264, 265, 266, 267, 268, 269, 270, 271, 272, 273, 274, 275, 276, 277, 278, 279, 280, 281, 282, 283, 284, 285, 286, 287, 288, 289, 290, 291, 292, 293, 294, 295, 296, 297, 298, 299, 300, 301, 302, 303, 304, 305, 306, 307, 308, 309, 310, 311, 312, 313, 314, 315, 316, 317, 318, 319, 320, 321, 322, 323, 324, 325, 326, 327, 328, 329, 330, 331, 332, 333, 334, 335, 336, 337, 338, 339, 340, 341, 342, 343, 344, 345, 346, 347, 348, 349, 350, 351, 352, 353, 354, 355, 356, 357, 358, 359, 360, 361, 362, 363, 364, 365, 366, 367, 368, 369, 370, 371, 372, 373, 374, 375, 376, 377, 378, 379, 380, 381, 382, 383, 384, 385, 386, 387, 388, 389, 390, 391, 392, 393, 394, 395, 396, 397, 398, 399, 400, 401, 402, 403, 404, 405, 406, 407, 408, 409, 410, 411, 412, 413, 414, 415, 416, 417, 418, 419, 420, 421, 422, 423, 424, 425, 426, 427, 428, 429, 430, 431, 432, 433, 434, 435, 436, 437, 438, 439, 440, 441, 442, 443, 444, 445, 446, 447, 448, 449, 450, 451, 452, 453, 454, 455, 456, 457, 458, 459, 460, 461, 462, 463, 464, 465],
      "AcquisitionTime": ["162131.292500", "162132.782500", "162134.272500", "162135.762500", "162137.252500", "162138.742500", "162140.232500", "162141.722500", "162143.212500", "162144.702500", "162146.192500", "162147.682500", "162149.172500", "162150.662500", "162152.152500", "162153.642500", "162155.132500", "162156.622500", "162158.112500", "162159.602500", "162201.092500", "162202.582500", "162204.072500", "162205.562500", "162207.052500", "162208.542500", "162210.032500", "162211.522500", "162213.012500", "162214.502500", "162215.992500", "162217.482500", "162218.972500", "162220.462500", "162221.952500", "162223.442500", "162224.932500", "162226.422500", "162227.912500", "162229.402500", "162230.892500", "162232.382500", "162233.872500", "162235.362500", "162236.852500", "162238.342500", "162239.832500", "162241.322500", "162242.812500", "162244.302500", "162245.792500", "162247.282500", "162248.772500", "162250.262500", "162251.752500", "162253.242500", "162254.732500", "162256.222500", "162257.712500", "162259.202500", "162300.692500", "162302.182500", "162303.672500", "162305.162500", "162306.652500", "162308.142500", "162309.632500", "162311.122500", "162312.612500", "162314.102500", "162315.592500", "162317.082500", "162318.572500", "162320.062500", "162321.552500", "162323.042500", "162324.532500", "162326.022500", "162327.512500", "162329.002500", "162330.492500", "162331.982500", "162333.472500", "162334.962500", "162336.452500", "162337.942500", "162339.432500", "162340.922500", "162342.412500", "162343.902500", "162345.392500", "162346.882500", "162348.372500", "162349.862500", "162351.352500", "162352.842500", "162354.332500", "162355.822500", "162357.312500", "162358.802500", "162400.292500", "162401.782500", "162403.272500", "162404.762500", "162406.252500", "162407.742500", "162409.232500", "162410.722500", "162412.212500", "162413.702500", "162415.192500", "162416.682500", "162418.172500", "162419.662500", "162421.152500", "162422.642500", "162424.132500", "162425.622500", "162427.112500", "162428.602500", "162430.092500", "162431.582500", "162433.072500", "162434.562500", "162436.052500", "162437.542500", "162439.032500", "162440.522500", "162442.012500", "162443.502500", "162444.992500", "162446.482500", "162447.972500", "162449.462500", "162450.952500", "162452.442500", "162453.932500", "162455.422500", "162456.912500", "162458.402500", "162459.892500", "162501.382500", "162502.872500", "162504.362500", "162505.852500", "162507.342500", "162508.832500", "162510.322500", "162511.812500", "162513.302500", "162514.792500", "162516.282500", "162517.772500", "162519.262500", "162520.752500", "162522.242500", "162523.732500", "162525.222500", "162526.712500", "162528.202500", "162529.692500", "162531.182500", "162532.672500", "162534.162500", "162535.652500", "162537.142500", "162538.632500", "162540.122500", "162541.612500", "162543.102500", "162544.592500", "162546.082500", "162547.572500", "162549.062500", "162550.552500", "162552.042500", "162553.532500", "162555.022500", "162556.512500", "162558.002500", "162559.492500", "162600.982500", "162602.472500", "162603.962500", "162605.452500", "162606.942500", "162608.432500", "162609.922500", "162611.412500", "162612.902500", "162614.392500", "162615.882500", "162617.372500", "162618.862500", "162620.352500", "162621.842500", "162623.332500", "162624.822500", "162626.312500", "162627.802500", "162629.292500", "162630.782500", "162632.272500", "162633.762500", "162635.252500", "162636.742500", "162638.232500", "162639.722500", "162641.212500", "162642.702500", "162644.192500", "162645.682500", "162647.172500", "162648.662500", "162650.152500", "162651.642500", "162653.132500", "162654.622500", "162656.112500", "162657.602500", "162659.092500", "162700.582500", "162702.072500", "162703.562500", "162705.052500", "162706.542500", "162708.032500", "162709.522500", "162711.012500", "162712.502500", "162713.992500", "162715.482500", "162716.972500", "162718.462500", "162719.952500", "162721.442500", "162722.932500", "162724.422500", "162725.912500", "162727.402500", "162728.892500", "162730.382500", "162731.872500", "162733.362500", "162734.852500", "162736.342500", "162737.832500", "162739.322500", "162740.812500", "162742.302500", "162743.792500", "162745.282500", "162746.772500", "162748.262500", "162749.752500", "162751.242500", "162752.732500", "162754.222500", "162755.712500", "162757.202500", "162758.692500", "162800.182500", "162801.672500", "162803.162500", "162804.652500", "162806.142500", "162807.632500", "162809.122500", "162810.612500", "162812.102500", "162813.592500", "162815.082500", "162816.572500", "162818.062500", "162819.552500", "162821.042500", "162822.532500", "162824.022500", "162825.512500", "162827.002500", "162828.492500", "162829.982500", "162831.472500", "162832.962500", "162834.452500", "162835.942500", "162837.432500", "162838.922500", "162840.412500", "162841.902500", "162843.392500", "162844.882500", "162846.372500", "162847.862500", "162849.352500", "162850.842500", "162852.332500", "162853.822500", "162855.312500", "162856.802500", "162858.292500", "162859.782500", "162901.272500", "162902.762500", "162904.252500", "162905.742500", "162907.232500", "162908.722500", "162910.212500", "162911.702500", "162913.192500", "162914.682500", "162916.172500", "162917.662500", "162919.152500", "162920.642500", "162922.132500", "162923.622500", "162925.112500", "162926.602500", "162928.092500", "162929.582500", "162931.072500", "162932.562500", "162934.052500", "162935.542500", "162937.032500", "162938.522500", "162940.012500", "162941.502500", "162942.992500", "162944.482500", "162945.972500", "162947.462500", "162948.952500", "162950.442500", "162951.932500", "162953.422500", "162954.912500", "162956.402500", "162957.892500", "162959.382500", "163000.872500", "163002.362500", "163003.852500", "163005.342500", "163006.832500", "163008.322500", "163009.812500", "163011.302500", "163012.792500", "163014.282500", "163015.772500", "163017.262500", "163018.752500", "163020.242500", "163021.732500", "163023.222500", "163024.712500", "163026.202500", "163027.692500", "163029.182500", "163030.672500", "163032.162500", "163033.652500", "163035.142500", "163036.632500", "163038.122500", "163039.612500", "163041.102500", "163042.592500", "163044.082500", "163045.572500", "163047.062500", "163048.552500", "163050.042500", "163051.532500", "163053.022500", "163054.512500", "163056.002500", "163057.492500", "163058.982500", "163100.472500", "163101.962500", "163103.452500", "163104.942500", "163106.432500", "163107.922500", "163109.412500", "163110.902500", "163112.392500", "163113.882500", "163115.372500", "163116.862500", "163118.352500", "163119.842500", "163121.332500", "163122.822500", "163124.312500", "163125.802500", "163127.292500", "163128.782500", "163130.272500", "163131.762500", "163133.252500", "163134.742500", "163136.232500", "163137.722500", "163139.212500", "163140.702500", "163142.192500", "163143.682500", "163145.172500", "163146.662500", "163148.152500", "163149.642500", "163151.132500", "163152.622500", "163154.112500", "163155.602500", "163157.092500", "163158.582500", "163200.072500", "163201.562500", "163203.052500", "163204.542500", "163206.032500", "163207.522500", "163209.012500", "163210.502500", "163211.992500", "163213.482500", "163214.972500", "163216.462500", "163217.952500", "163219.442500", "163220.932500", "163222.422500", "163223.912500", "163225.402500", "163226.892500", "163228.382500", "163229.872500", "163231.362500", "163232.852500", "163234.342500", "163235.832500", "163237.322500", "163238.812500", "163240.302500", "163241.792500", "163243.282500", "163244.772500", "163246.262500", "163247.752500", "163249.242500", "163250.732500", "163252.222500", "163253.712500", "163255.202500", "163256.692500", "163258.182500", "163259.672500", "163301.162500", "163302.652500"],
      "ContentTime": ["162300.064000", "162300.068000", "162300.071000", "162300.074000", "162300.078000", "162300.081000", "162300.084000", "162300.095000", "162300.098000", "162300.101000", "162300.105000", "162300.108000", "162300.111000", "162300.115000", "162300.119000", "162300.122000", "162300.126000", "162300.129000", "162300.132000", "162300.135000", "162300.139000", "162300.142000", "162300.145000", "162300.149000", "162300.152000", "162300.155000", "162300.166000", "162300.170000", "162300.175000", "162300.179000", "162300.183000", "162300.187000", "162300.191000", "162300.194000", "162300.198000", "162300.201000", "162300.205000", "162300.208000", "162320.030000", "162320.034000", "162320.037000", "162320.040000", "162320.044000", "162320.047000", "162320.050000", "162320.054000", "162320.057000", "162320.061000", "162320.066000", "162320.069000", "162320.073000", "162320.077000", "162320.085000", "162320.090000", "162320.093000", "162320.097000", "162320.100000", "162320.104000", "162340.031000", "162340.035000", "162340.038000", "162340.041000", "162340.045000", "162340.048000", "162340.051000", "162340.055000", "162340.061000", "162340.064000", "162340.068000", "162340.071000", "162340.074000", "162340.078000", "162340.081000", "162340.084000", "162340.088000", "162340.091000", "162340.094000", "162340.098000", "162340.107000", "162400.030000", "162400.034000", "162400.037000", "162400.041000", "162400.044000", "162400.047000", "162400.051000", "162400.054000", "162400.057000", "162400.061000", "162400.064000", "162400.067000", "162400.071000", "162400.074000", "162400.077000", "162400.081000", "162400.084000", "162400.087000", "162400.091000", "162400.094000", "162440.030000", "162440.034000", "162440.037000", "162440.040000", "162440.044000", "162440.047000", "162440.050000", "162440.054000", "162440.057000", "162440.061000", "162440.064000", "162440.067000", "162440.072000", "162440.076000", "162440.080000", "162440.083000", "162440.087000", "162440.091000", "162440.094000", "162440.098000", "162440.102000", "162440.105000", "162440.109000", "162440.112000", "162440.115000", "162440.119000", "162520.030000", "162520.034000", "162520.037000", "162520.040000", "162520.044000", "162520.056000", "162520.059000", "162520.063000", "162520.066000", "162520.073000", "162520.076000", "162520.080000", "162520.083000", "162520.086000", "162520.090000", "162520.093000", "162520.096000", "162520.100000", "162520.103000", "162520.106000", "162520.110000", "162520.113000", "162520.116000", "162520.120000", "162520.123000", "162520.126000", "162520.130000", "162600.031000", "162600.035000", "162600.038000", "162600.042000", "162600.045000", "162600.048000", "162600.051000", "162600.055000", "162600.058000", "162600.061000", "162600.065000", "162600.068000", "162600.072000", "162600.075000", "162600.078000", "162600.081000", "162600.085000", "162600.088000", "162600.091000", "162600.095000", "162600.098000", "162600.101000", "162600.104000", "162600.108000", "162600.111000", "162600.114000", "162600.118000", "162620.030000", "162620.034000", "162620.037000", "162620.040000", "162620.044000", "162620.047000", "162620.050000", "162620.054000", "162620.057000", "162620.060000", "162620.064000", "162620.067000", "162620.070000", "162620.074000", "162700.030000", "162700.034000", "162700.037000", "162700.041000", "162700.044000", "162700.047000", "162700.050000", "162700.054000", "162700.058000", "162700.061000", "162700.064000", "162700.068000", "162700.071000", "162700.074000", "162700.078000", "162700.081000", "162700.084000", "162700.087000", "162700.091000", "162700.094000", "162700.097000", "162700.101000", "162700.104000", "162700.107000", "162700.110000", "162700.114000", "162740.030000", "162740.034000", "162740.037000", "162740.041000", "162740.044000", "162740.047000", "162740.050000", "162740.054000", "162740.057000", "162740.060000", "162740.064000", "162740.067000", "162740.070000", "162740.074000", "162740.077000", "162740.080000", "162740.084000", "162740.087000", "162740.091000", "162740.094000", "162740.097000", "162740.100000", "162740.104000", "162740.107000", "162740.111000", "162740.114000", "162740.118000", "162820.031000", "162820.035000", "162820.038000", "162820.042000", "162820.045000", "162820.048000", "162820.052000", "162820.055000", "162820.058000", "162820.062000", "162820.065000", "162820.068000", "162820.072000", "162820.075000", "162820.078000", "162820.082000", "162820.085000", "162820.088000", "162820.092000", "162820.095000", "162820.098000", "162820.101000", "162820.105000", "162820.108000", "162820.111000", "162820.115000", "162820.118000", "162900.030000", "162900.034000", "162900.037000", "162900.041000", "162900.044000", "162900.047000", "162900.050000", "162900.054000", "162900.057000", "162900.060000", "162900.064000", "162900.067000", "162900.070000", "162900.074000", "162900.087000", "162900.091000", "162900.094000", "162900.097000", "162900.101000", "162900.104000", "162900.107000", "162900.111000", "162900.114000", "162900.118000", "162900.121000", "162900.124000", "162900.128000", "162940.030000", "162940.034000", "162940.037000", "162940.041000", "162940.044000", "162940.047000", "162940.050000", "162940.054000", "162940.057000", "162940.060000", "162940.064000", "162940.067000", "162940.070000", "162940.074000", "162940.077000", "162940.080000", "162940.084000", "162940.087000", "162940.090000", "162940.094000", "162940.097000", "162940.100000", "162940.104000", "162940.107000", "162940.111000", "162940.114000", "162940.117000", "163020.030000", "163020.034000", "163020.037000", "163020.041000", "163020.044000", "163020.047000", "163020.050000", "163020.054000", "163020.057000", "163020.060000", "163020.064000", "163020.067000", "163020.070000", "163020.074000", "163020.077000", "163020.080000", "163020.084000", "163020.087000", "163020.090000", "163020.094000", "163020.097000", "163020.100000", "163020.104000", "163020.107000", "163020.110000", "163020.113000", "163020.117000", "163100.032000", "163100.038000", "163100.042000", "163100.046000", "163100.049000", "163100.053000", "163100.056000", "163100.060000", "163100.064000", "163100.068000", "163100.071000", "163100.075000", "163100.078000", "163100.081000", "163100.084000", "163100.088000", "163100.091000", "163100.094000", "163100.098000", "163100.101000", "163100.104000", "163100.108000", "163100.111000", "163100.114000", "163100.118000", "163100.135000", "163140.030000", "163140.034000", "163140.037000", "163140.041000", "163140.044000", "163140.047000", "163140.051000", "163140.054000", "163140.057000", "163140.060000", "163140.064000", "163140.067000", "163140.070000", "163140.074000", "163140.077000", "163140.080000", "163140.084000", "163140.087000", "163140.090000", "163140.094000", "163140.097000", "163140.100000", "163140.103000", "163140.107000", "163140.110000", "163140.113000", "163140.117000", "163220.030000", "163220.034000", "163220.037000", "163220.041000", "163220.044000", "163220.047000", "163220.051000", "163220.054000", "163220.057000", "163220.061000", "163220.064000", "163220.067000", "163220.071000", "163220.074000", "163220.077000", "163220.081000", "163220.084000", "163220.087000", "163220.091000", "163220.094000", "163220.097000", "163220.101000", "163220.104000", "163220.107000", "163220.111000", "163220.114000", "163220.117000", "163300.031000", "163300.035000", "163300.038000", "163300.042000", "163300.045000", "163300.048000", "163300.052000", "163300.055000", "163300.058000", "163300.062000", "163300.065000", "163300.068000", "163300.071000", "163300.075000", "163300.078000", "163300.081000", "163300.085000", "163300.088000", "163300.091000", "163300.095000", "163300.098000", "163300.101000", "163300.105000", "163300.108000", "163300.111000", "163300.114000", "163300.118000", "163305.275000", "163305.279000", "163305.282000", "163305.286000"],
