{
  "AcquisitionMatrixPE": 104,
  "AcquisitionNumber": 1,
  "AcquisitionTime": "16:09:44.047500",
  "BandwidthPerPixelPhaseEncode": 17.17,
  "BaseResolution": 104,
  "BodyPartExamined": "BRAIN",
  "CoilCombinationMethod": "Sum of Squares",
  "ConsistencyInfo": "N4_VE11C_LATEST_20160120",
  "ConversionSoftware": "dcm2niix",
  "ConversionSoftwareVersion": "v1.0.20211006",
  "DerivedVendorReportedEchoSpacing": 0.000560011,
  "DeviceSerialNumber": "167006",
  "DwellTime": 2.1e-06,
  "EchoTime": 0.037,
  "EchoTrainLength": 104,
  "EffectiveEchoSpacing": 0.000560011,
  "FlipAngle": 52,
  "HeudiconvVersion": "0.11.3.post9+gc939bf8",
  "ImageComments": "Unaliased MB4/PE3/LB",
  "ImageOrientationPatientDICOM": [0.999361, -0.0356589, 0.00257679, 0.0340253, 0.926496, -0.374763],
  "ImageOrientationText": "Tra>Cor(-22.0)>Sag(-0.6)",
  "ImageType": [
    "ORIGINAL",
    "PRIMARY",
    "M",
    "MB",
    "ND",
    "MOSAIC"
],
  "ImagingFrequency": 123.259,
  "InPlanePhaseEncodingDirectionDICOM": "COL",
  "InstitutionAddress": "Chemin Queen-Mary 4565,Montreal,District,CA,H3W 1W5",
  "InstitutionName": "IUGM",
  "InstitutionalDepartmentName": "Department",
  "MRAcquisitionType": "2D",
  "MagneticFieldStrength": 3,
  "Manufacturer": "Siemens",
  "ManufacturersModelName": "Prisma_fit",
  "MatrixCoilMode": "SENSE",
  "Modality": "MR",
  "MultibandAccelerationFactor": 4,
  "PartialFourier": 1,
  "PatientPosition": "HFS",
  "PercentPhaseFOV": 100,
  "PercentSampling": 100,
  "PhaseEncodingDirection": "j",
  "PhaseEncodingSteps": 104,
  "PhaseResolution": 1,
  "PixelBandwidth": 2290,
  "ProcedureStepDescription": "games^mariostars",
  "ProtocolName": "func_task-mariostars_run-02",
  "PulseSequenceDetails": "%CustomerSeq%\\cmrr_mbep2d_bold",
  "ReceiveCoilActiveElements": "HC1-7;NC1,2",
  "ReceiveCoilName": "HeadNeck_64",
  "ReconMatrixPE": 104,
  "RepetitionTime": 1.49,
  "SAR": 0.0413052,
  "ScanOptions": "FS",
  "ScanningSequence": "EP",
  "SequenceName": "epfid2d1_104",
  "SequenceVariant": "SK\\SS",
  "SeriesDescription": "func_task-mariostars_run-02",
  "SeriesNumber": 14,
  "ShimSetting": [622, -7250, -8831, 513, 13, -205, -115, -14],
  "SliceThickness": 2,
  "SliceTiming": [0, 0.785, 0.0975, 0.8825, 0.1975, 0.98, 0.295, 1.0775, 0.3925, 1.1775, 0.49, 1.275, 0.5875, 1.3725, 0.6875, 0, 0.785, 0.0975, 0.8825, 0.1975, 0.98, 0.295, 1.0775, 0.3925, 1.1775, 0.49, 1.275, 0.5875, 1.3725, 0.6875, 0, 0.785, 0.0975, 0.8825, 0.1975, 0.98, 0.295, 1.0775, 0.3925, 1.1775, 0.49, 1.275, 0.5875, 1.3725, 0.6875, 0, 0.785, 0.0975, 0.8825, 0.1975, 0.98, 0.295, 1.0775, 0.3925, 1.1775, 0.49, 1.275, 0.5875, 1.3725, 0.6875],
  "SoftwareVersions": "syngo MR E11",
  "SpacingBetweenSlices": 2,
  "StationName": "MRC35049",
  "TaskName": "mariostars",
  "TotalReadoutTime": 0.0576811,
  "TxRefAmp": 226.304,
  "WipMemBlock": "9f120760-349a-49a8-8ac3-81f4f3fe1ae5||Sequence: R017 ve11c/master r/75a17815+; Jun 28 2022 16:32:11 by eja",
  "dcmmeta_affine": [
    [-1.9987213611602783, 0.06805052608251572, -0.021952498704195023, 103.45919036865234],
    [0.07131779193878174, 1.852992057800293, -0.7492223978042603, -65.72716522216797],
    [0.005153587553650141, 0.7495262026786804, 1.8542340993881226, -68.74878692626953],
    [0.0, 0.0, 0.0, 1.0]
],
  "dcmmeta_reorient_transform": [
    [0.0, -1.0, 0.0, 103.0],
    [1.0, 0.0, 0.0, 0.0],
    [0.0, 0.0, 1.0, 0.0],
    [0.0, 0.0, 0.0, 1.0]
],
  "dcmmeta_shape": [104, 104, 60, 414],
  "dcmmeta_slice_dim": 2,
  "dcmmeta_version": 0.6,
  "global": {
    "const": {
      "AcquisitionMatrix": [104, 0, 0, 104],
      "AngioFlag": "N",
      "BitsAllocated": 16,
      "BitsStored": 16,
      "BodyPartExamined": "BRAIN",
      "Columns": 832,
      "EchoNumbers": 1,
      "EchoTime": 37.0,
      "EchoTrainLength": 104,
      "FlipAngle": 52.0,
      "HighBit": 15,
      "ImageOrientationPatient": [0.99936069731034, -0.035658895173, 0.00257679382828, 0.03402526460056, 0.92649603271227, -0.3747631021556],
      "ImagePositionPatient": [-862.77337666134, -773.66045000128, 279.40404369985],
      "ImageType": [
        "ORIGINAL",
        "PRIMARY",
        "M",
        "MB",
        "ND",
        "MOSAIC"
],
      "ImagedNucleus": "1H",
      "ImagingFrequency": 123.258775,
      "InPlanePhaseEncodingDirection": "COL",
      "MRAcquisitionType": "2D",
      "MagneticFieldStrength": 3.0,
      "Manufacturer": "SIEMENS",
      "ManufacturerModelName": "Prisma_fit",
      "Modality": "MR",
      "NumberOfAverages": 1.0,
      "NumberOfPhaseEncodingSteps": 104,
      "PercentPhaseFieldOfView": 100.0,
      "PercentSampling": 100.0,
      "PerformedProcedureStepStartTime": "153326.211000",
      "PhotometricInterpretation": "MONOCHROME2",
      "PixelBandwidth": 2290.0,
      "PixelRepresentation": 0,
      "PixelSpacing": [2.0, 2.0],
      "ProtocolName": "func_task-mariostars_run-02",
      "RepetitionTime": 1490.0,
      "Rows": 832,
      "SAR": 0.04130522805109,
      "SamplesPerPixel": 1,
      "ScanOptions": "FS",
      "ScanningSequence": "EP",
      "SequenceName": "epfid2d1_104",
      "SequenceVariant": [
        "SK",
        "SS"
],
      "SeriesDescription": "func_task-mariostars_run-02",
      "SeriesNumber": 14,
      "SeriesTime": "161054.416000",
      "SliceLocation": -40.251632419832,
      "SliceThickness": 2.0,
      "SmallestImagePixelValue": 0,
      "SoftwareVersions": "syngo MR E11",
      "SpacingBetweenSlices": 1.9999999998204,
      "SpecificCharacterSet": "ISO_IR 100",
      "StudyID": "1",
      "StudyTime": "153326.154000",
      "TransmitCoilName": "Body",
      "VariableFlipAngleFlag": "N",
      "WindowCenterWidthExplanation": "Algo1",
      "dBdt": 0.0},
    "slices": {}
  },
  "time": {
    "samples": {
      "AcquisitionNumber": [1, 2, 3, 4, 5, 6, 7, 8, 9, 10, 11, 12, 13, 14, 15, 16, 17, 18, 19, 20, 21, 22, 23, 24, 25, 26, 27, 28, 29, 30, 31, 32, 33, 34, 35, 36, 37, 38, 39, 40, 41, 42, 43, 44, 45, 46, 47, 48, 49, 50, 51, 52, 53, 54, 55, 56, 57, 58, 59, 60, 61, 62, 63, 64, 65, 66, 67, 68, 69, 70, 71, 72, 73, 74, 75, 76, 77, 78, 79, 80, 81, 82, 83, 84, 85, 86, 87, 88, 89, 90, 91, 92, 93, 94, 95, 96, 97, 98, 99, 100, 101, 102, 103, 104, 105, 106, 107, 108, 109, 110, 111, 112, 113, 114, 115, 116, 117, 118, 119, 120, 121, 122, 123, 124, 125, 126, 127, 128, 129, 130, 131, 132, 133, 134, 135, 136, 137, 138, 139, 140, 141, 142, 143, 144, 145, 146, 147, 148, 149, 150, 151, 152, 153, 154, 155, 156, 157, 158, 159, 160, 161, 162, 163, 164, 165, 166, 167, 168, 169, 170, 171, 172, 173, 174, 175, 176, 177, 178, 179, 180, 181, 182, 183, 184, 185, 186, 187, 188, 189, 190, 191, 192, 193, 194, 195, 196, 197, 198, 199, 200, 201, 202, 203, 204, 205, 206, 207, 208, 209, 210, 211, 212, 213, 214, 215, 216, 217, 218, 219, 220, 221, 222, 223, 224, 225, 226, 227, 228, 229, 230, 231, 232, 233, 234, 235, 236, 237, 238, 239, 240, 241, 242, 243, 244, 245, 246, 247, 248, 249, 250, 251, 252, 253, 254, 255, 256, 257, 258, 259, 260, 261, 262, 263, 264, 265, 266, 267, 268, 269, 270, 271, 272, 273, 274, 275, 276, 277, 278, 279, 280, 281, 282, 283, 284, 285, 286, 287, 288, 289, 290, 291, 292, 293, 294, 295, 296, 297, 298, 299, 300, 301, 302, 303, 304, 305, 306, 307, 308, 309, 310, 311, 312, 313, 314, 315, 316, 317, 318, 319, 320, 321, 322, 323, 324, 325, 326, 327, 328, 329, 330, 331, 332, 333, 334, 335, 336, 337, 338, 339, 340, 341, 342, 343, 344, 345, 346, 347, 348, 349, 350, 351, 352, 353, 354, 355, 356, 357, 358, 359, 360, 361, 362, 363, 364, 365, 366, 367, 368, 369, 370, 371, 372, 373, 374, 375, 376, 377, 378, 379, 380, 381, 382, 383, 384, 385, 386, 387, 388, 389, 390, 391, 392, 393, 394, 395, 396, 397, 398, 399, 400, 401, 402, 403, 404, 405, 406, 407, 408, 409, 410, 411, 412, 413, 414],
      "AcquisitionTime": ["160944.047500", "160945.537500", "160947.027500", "160948.517500", "160950.007500", "160951.497500", "160952.987500", "160954.477500", "160955.967500", "160957.457500", "160958.947500", "161000.437500", "161001.927500", "161003.417500", "161004.907500", "161006.397500", "161007.887500", "161009.377500", "161010.867500", "161012.357500", "161013.847500", "161015.337500", "161016.827500", "161018.317500", "161019.807500", "161021.297500", "161022.787500", "161024.277500", "161025.767500", "161027.257500", "161028.747500", "161030.237500", "161031.727500", "161033.217500", "161034.707500", "161036.197500", "161037.687500", "161039.177500", "161040.667500", "161042.157500", "161043.647500", "161045.137500", "161046.627500", "161048.117500", "161049.607500", "161051.097500", "161052.587500", "161054.077500", "161055.567500", "161057.057500", "161058.547500", "161100.037500", "161101.527500", "161103.017500", "161104.507500", "161105.997500", "161107.487500", "161108.977500", "161110.467500", "161111.957500", "161113.447500", "161114.937500", "161116.427500", "161117.917500", "161119.407500", "161120.897500", "161122.387500", "161123.877500", "161125.367500", "161126.857500", "161128.347500", "161129.837500", "161131.327500", "161132.817500", "161134.307500", "161135.797500", "161137.287500", "161138.777500", "161140.267500", "161141.757500", "161143.247500", "161144.737500", "161146.227500", "161147.717500", "161149.207500", "161150.697500", "161152.187500", "161153.677500", "161155.167500", "161156.657500", "161158.147500", "161159.637500", "161201.127500", "161202.617500", "161204.107500", "161205.597500", "161207.087500", "161208.577500", "161210.067500", "161211.557500", "161213.047500", "161214.537500", "161216.027500", "161217.517500", "161219.007500", "161220.497500", "161221.987500", "161223.477500", "161224.967500", "161226.457500", "161227.947500", "161229.437500", "161230.927500", "161232.417500", "161233.907500", "161235.397500", "161236.887500", "161238.377500", "161239.867500", "161241.357500", "161242.847500", "161244.337500", "161245.827500", "161247.317500", "161248.807500", "161250.297500", "161251.787500", "161253.277500", "161254.767500", "161256.257500", "161257.747500", "161259.237500", "161300.727500", "161302.217500", "161303.707500", "161305.197500", "161306.687500", "161308.177500", "161309.667500", "161311.157500", "161312.647500", "161314.137500", "161315.627500", "161317.117500", "161318.607500", "161320.097500", "161321.587500", "161323.077500", "161324.567500", "161326.057500", "161327.547500", "161329.037500", "161330.527500", "161332.017500", "161333.507500", "161334.997500", "161336.487500", "161337.977500", "161339.467500", "161340.957500", "161342.447500", "161343.937500", "161345.427500", "161346.917500", "161348.407500", "161349.897500", "161351.387500", "161352.877500", "161354.367500", "161355.857500", "161357.347500", "161358.837500", "161400.327500", "161401.817500", "161403.307500", "161404.797500", "161406.287500", "161407.777500", "161409.267500", "161410.757500", "161412.247500", "161413.737500", "161415.227500", "161416.717500", "161418.207500", "161419.697500", "161421.187500", "161422.677500", "161424.167500", "161425.657500", "161427.147500", "161428.637500", "161430.127500", "161431.617500", "161433.107500", "161434.597500", "161436.087500", "161437.577500", "161439.067500", "161440.557500", "161442.047500", "161443.537500", "161445.027500", "161446.517500", "161448.007500", "161449.497500", "161450.987500", "161452.477500", "161453.967500", "161455.457500", "161456.947500", "161458.437500", "161459.927500", "161501.417500", "161502.907500", "161504.397500", "161505.887500", "161507.377500", "161508.867500", "161510.357500", "161511.847500", "161513.337500", "161514.827500", "161516.317500", "161517.807500", "161519.297500", "161520.787500", "161522.277500", "161523.767500", "161525.257500", "161526.747500", "161528.237500", "161529.727500", "161531.217500", "161532.707500", "161534.197500", "161535.687500", "161537.177500", "161538.667500", "161540.157500", "161541.647500", "161543.137500", "161544.627500", "161546.117500", "161547.607500", "161549.097500", "161550.587500", "161552.077500", "161553.567500", "161555.057500", "161556.547500", "161558.037500", "161559.527500", "161601.017500", "161602.507500", "161603.997500", "161605.487500", "161606.977500", "161608.467500", "161609.957500", "161611.447500", "161612.937500", "161614.427500", "161615.917500", "161617.407500", "161618.897500", "161620.387500", "161621.877500", "161623.367500", "161624.857500", "161626.347500", "161627.837500", "161629.327500", "161630.817500", "161632.307500", "161633.797500", "161635.287500", "161636.777500", "161638.267500", "161639.757500", "161641.247500", "161642.737500", "161644.227500", "161645.717500", "161647.207500", "161648.697500", "161650.187500", "161651.677500", "161653.167500", "161654.657500", "161656.147500", "161657.637500", "161659.127500", "161700.617500", "161702.107500", "161703.597500", "161705.087500", "161706.577500", "161708.067500", "161709.557500", "161711.047500", "161712.537500", "161714.027500", "161715.517500", "161717.007500", "161718.497500", "161719.987500", "161721.477500", "161722.967500", "161724.457500", "161725.947500", "161727.437500", "161728.927500", "161730.417500", "161731.907500", "161733.397500", "161734.887500", "161736.377500", "161737.867500", "161739.357500", "161740.847500", "161742.337500", "161743.827500", "161745.317500", "161746.807500", "161748.297500", "161749.787500", "161751.277500", "161752.767500", "161754.257500", "161755.747500", "161757.237500", "161758.727500", "161800.217500", "161801.707500", "161803.197500", "161804.687500", "161806.177500", "161807.667500", "161809.157500", "161810.647500", "161812.137500", "161813.627500", "161815.117500", "161816.607500", "161818.097500", "161819.587500", "161821.077500", "161822.567500", "161824.057500", "161825.547500", "161827.037500", "161828.527500", "161830.017500", "161831.507500", "161832.997500", "161834.487500", "161835.977500", "161837.467500", "161838.957500", "161840.447500", "161841.937500", "161843.427500", "161844.917500", "161846.407500", "161847.897500", "161849.387500", "161850.877500", "161852.367500", "161853.857500", "161855.347500", "161856.837500", "161858.327500", "161859.817500", "161901.307500", "161902.797500", "161904.287500", "161905.777500", "161907.267500", "161908.757500", "161910.247500", "161911.737500", "161913.227500", "161914.717500", "161916.207500", "161917.697500", "161919.187500", "161920.677500", "161922.167500", "161923.657500", "161925.147500", "161926.637500", "161928.127500", "161929.617500", "161931.107500", "161932.597500", "161934.087500", "161935.577500", "161937.067500", "161938.557500", "161940.047500", "161941.537500", "161943.027500", "161944.517500", "161946.007500", "161947.497500", "161948.987500", "161950.477500", "161951.967500", "161953.457500", "161954.947500", "161956.437500", "161957.927500", "161959.417500"],
      "ContentTime": ["161054.419000", "161054.424000", "161054.428000", "161054.432000", "161054.435000", "161054.439000", "161054.442000", "161054.446000", "161054.449000", "161054.452000", "161054.456000", "161054.459000", "161054.462000", "161054.465000", "161054.469000", "161054.472000", "161054.475000", "161054.478000", "161054.482000", "161054.485000", "161114.378000", "161114.388000", "161114.391000", "161114.394000", "161114.397000", "161114.401000", "161114.404000", "161114.407000", "161114.411000", "161114.414000", "161114.417000", "161114.420000", "161114.424000", "161114.427000", "161114.430000", "161114.433000", "161114.437000", "161114.440000", "161114.443000", "161114.446000", "161114.457000", "161134.378000", "161134.382000", "161134.385000", "161134.388000", "161134.392000", "161134.395000", "161134.398000", "161134.402000", "161134.405000", "161134.408000", "161134.411000", "161134.415000", "161134.418000", "161134.421000", "161134.424000", "161134.428000", "161134.431000", "161134.434000", "161134.438000", "161134.441000", "161154.379000", "161154.383000", "161154.386000", "161154.389000", "161154.393000", "161154.396000", "161154.399000", "161154.402000", "161154.406000", "161154.409000", "161154.412000", "161154.416000", "161154.419000", "161154.422000", "161154.425000", "161154.429000", "161154.432000", "161154.435000", "161154.439000", "161154.442000", "161234.378000", "161234.382000", "161234.385000", "161234.389000", "161234.392000", "161234.395000", "161234.399000", "161234.402000", "161234.405000", "161234.409000", "161234.412000", "161234.415000", "161234.420000", "161234.423000", "161234.426000", "161234.429000", "161234.433000", "161234.441000", "161234.445000", "161234.448000", "161234.451000", "161234.455000", "161234.458000", "161234.461000", "161234.464000", "161234.468000", "161234.471000", "161234.474000", "161234.478000", "161234.481000", "161234.484000", "161234.487000", "161314.378000", "161314.382000", "161314.385000", "161314.389000", "161314.392000", "161314.395000", "161314.399000", "161314.402000", "161314.405000", "161314.409000", "161314.412000", "161314.416000", "161314.419000", "161314.422000", "161314.426000", "161314.429000", "161314.432000", "161314.436000", "161314.439000", "161314.442000", "161314.446000", "161314.449000", "161314.452000", "161314.456000", "161314.459000", "161314.470000", "161314.474000", "161354.378000", "161354.382000", "161354.385000", "161354.389000", "161354.392000", "161354.395000", "161354.398000", "161354.402000", "161354.405000", "161354.408000", "161354.412000", "161354.415000", "161354.418000", "161354.422000", "161354.425000", "161354.428000", "161354.432000", "161354.435000", "161354.438000", "161354.442000", "161354.445000", "161354.448000", "161354.451000", "161354.455000", "161354.458000", "161354.461000", "161354.465000", "161434.378000", "161434.382000", "161434.385000", "161434.388000", "161434.392000", "161434.395000", "161434.399000", "161434.402000", "161434.405000", "161434.409000", "161434.412000", "161434.415000", "161434.419000", "161434.422000", "161434.425000", "161434.428000", "161434.432000", "161434.435000", "161434.438000", "161434.442000", "161434.445000", "161434.448000", "161434.451000", "161434.455000", "161434.458000", "161434.461000", "161434.464000", "161514.379000", "161514.383000", "161514.386000", "161514.390000", "161514.393000", "161514.396000", "161514.399000", "161514.403000", "161514.406000", "161514.409000", "161514.413000", "161514.416000", "161514.419000", "161514.423000", "161514.426000", "161514.430000", "161514.433000", "161514.436000", "161514.440000", "161514.443000", "161514.446000", "161514.450000", "161514.453000", "161514.457000", "161514.460000", "161514.463000", "161514.466000", "161554.378000", "161554.382000", "161554.385000", "161554.388000", "161554.392000", "161554.395000", "161554.398000", "161554.402000", "161554.405000", "161554.408000", "161554.411000", "161554.415000", "161554.418000", "161554.426000", "161554.429000", "161554.432000", "161554.436000", "161554.439000", "161554.443000", "161554.446000", "161554.449000", "161554.461000", "161554.464000", "161554.467000", "161554.471000", "161554.474000", "161554.477000", "161634.378000", "161634.382000", "161634.385000", "161634.389000", "161634.392000", "161634.395000", "161634.399000", "161634.403000", "161634.407000", "161634.410000", "161634.414000", "161634.417000", "161634.420000", "161634.424000", "161634.427000", "161634.431000", "161634.434000", "161634.437000", "161634.440000", "161634.444000", "161634.447000", "161634.450000", "161634.454000", "161634.457000", "161634.461000", "161634.464000", "161714.379000", "161714.383000", "161714.386000", "161714.390000", "161714.393000", "161714.396000", "161714.400000", "161714.403000", "161714.406000", "161714.410000", "161714.413000", "161714.417000", "161714.420000", "161714.423000", "161714.426000", "161714.430000", "161714.433000", "161714.436000", "161714.440000", "161714.443000", "161714.446000", "161714.450000", "161714.453000", "161714.456000", "161714.460000", "161714.463000", "161714.466000", "161754.378000", "161754.382000", "161754.385000", "161754.388000", "161754.392000", "161754.395000", "161754.399000", "161754.402000", "161754.405000", "161754.409000", "161754.412000", "161754.415000", "161754.419000", "161754.422000", "161754.425000", "161754.429000", "161754.432000", "161754.436000", "161754.439000", "161754.442000", "161754.445000", "161754.449000", "161754.452000", "161754.455000", "161754.459000", "161754.462000", "161754.465000", "161834.378000", "161834.382000", "161834.385000", "161834.388000", "161834.392000", "161834.395000", "161834.398000", "161834.402000", "161834.405000", "161834.408000", "161834.412000", "161834.415000", "161834.418000", "161834.422000", "161834.425000", "161834.428000", "161834.431000", "161834.435000", "161834.438000", "161834.441000", "161834.445000", "161834.448000", "161834.451000", "161834.455000", "161834.458000", "161834.461000", "161834.464000", "161914.378000", "161914.382000", "161914.385000", "161914.388000", "161914.392000", "161914.395000", "161914.398000", "161914.402000", "161914.405000", "161914.408000", "161914.412000", "161914.415000", "161914.418000", "161914.422000", "161914.425000", "161914.430000", "161914.433000", "161914.436000", "161914.440000", "161914.443000", "161914.446000", "161914.450000", "161914.453000", "161914.456000", "161914.462000", "161914.465000", "161914.468000", "161954.379000", "161954.383000", "161954.386000", "161954.389000", "161954.393000", "161954.396000", "161954.404000", "161954.408000", "161954.411000", "161954.414000", "161954.418000", "161954.421000", "161954.424000", "161954.427000", "161954.431000", "161954.434000", "161954.438000", "161954.441000", "161954.445000", "161954.448000", "161954.451000", "161954.454000", "161954.458000", "161954.461000", "161954.464000", "161954.468000", "161954.471000", "162002.166000", "162002.170000", "162002.173000", "162002.176000", "162002.180000"],
      "InstanceCreationTime": ["161054.419000", "161054.424000", "161054.428000", "161054.432000", "161054.435000", "161054.439000", "161054.442000", "161054.446000", "161054.449000", "161054.452000", "161054.456000", "161054.459000", "161054.462000", "161054.465000", "161054.469000", "161054.472000", "161054.475000", "161054.478000", "161054.482000", "161054.485000", "161114.378000", "161114.388000", "161114.391000", "161114.394000", "161114.397000", "161114.401000", "161114.404000", "161114.407000", "161114.411000", "161114.414000", "161114.417000", "161114.420000", "161114.424000", "161114.427000", "161114.430000", "161114.433000", "161114.437000", "161114.440000", "161114.443000", "161114.446000", "161114.457000", "161134.378000", "161134.382000", "161134.385000", "161134.388000", "161134.392000", "161134.395000", "161134.398000", "161134.402000", "161134.405000", "161134.408000", "161134.411000", "161134.415000", "161134.418000", "161134.421000", "161134.424000", "161134.428000", "161134.431000", "161134.434000", "161134.438000", "161134.441000", "161154.379000", "161154.383000", "161154.386000", "161154.389000", "161154.393000", "161154.396000", "161154.399000", "161154.402000", "161154.406000", "161154.409000", "161154.412000", "161154.416000", "161154.419000", "161154.422000", "161154.425000", "161154.429000", "161154.432000", "161154.435000", "161154.439000", "161154.442000", "161234.378000", "161234.382000", "161234.385000", "161234.389000", "161234.392000", "161234.395000", "161234.399000", "161234.402000", "161234.405000", "161234.409000", "161234.412000", "161234.415000", "161234.420000", "161234.423000", "161234.426000", "161234.429000", "161234.433000", "161234.441000", "161234.445000", "161234.448000", "161234.451000", "161234.455000", "161234.458000", "161234.461000", "161234.464000", "161234.468000", "161234.471000", "161234.474000", "161234.478000", "161234.481000", "161234.484000", "161234.487000", "161314.378000", "161314.382000", "161314.385000", "161314.389000", "161314.392000", "161314.395000", "161314.399000", "161314.402000", "161314.405000", "161314.409000", "161314.412000", "161314.416000", "161314.419000", "161314.422000", "161314.426000", "161314.429000", "161314.432000", "161314.436000", "161314.439000", "161314.442000", "161314.446000", "161314.449000", "161314.452000", "161314.456000", "161314.459000", "161314.470000", "161314.474000", "161354.378000", "161354.382000", "161354.385000", "161354.389000", "161354.392000", "161354.395000", "161354.398000", "161354.402000", "161354.405000", "161354.408000", "161354.412000", "161354.415000", "161354.418000", "161354.422000", "161354.425000", "161354.428000", "161354.432000", "161354.435000", "161354.438000", "161354.442000", "161354.445000", "161354.448000", "161354.451000", "161354.455000", "161354.458000", "161354.461000", "161354.465000", "161434.378000", "161434.382000", "161434.385000", "161434.388000", "161434.392000", "161434.395000", "161434.399000", "161434.402000", "161434.405000", "161434.409000", "161434.412000", "161434.415000", "161434.419000", "161434.422000", "161434.425000", "161434.428000", "161434.432000", "161434.435000", "161434.438000", "161434.442000", "161434.445000", "161434.448000", "161434.451000", "161434.455000", "161434.458000", "161434.461000", "161434.464000", "161514.379000", "161514.383000", "161514.386000", "161514.390000", "161514.393000", "161514.396000", "161514.399000", "161514.403000", "161514.406000", "161514.409000", "161514.413000", "161514.416000", "161514.419000", "161514.423000", "161514.426000", "161514.430000", "161514.433000", "161514.436000", "161514.440000", "161514.443000", "161514.446000", "161514.450000", "161514.453000", "161514.457000", "161514.460000", "161514.463000", "161514.466000", "161554.378000", "161554.382000", "161554.385000", "161554.388000", "161554.392000", "161554.395000", "161554.398000", "161554.402000", "161554.405000", "161554.408000", "161554.411000", "161554.415000", "161554.418000", "161554.426000", "161554.429000", "161554.432000", "161554.436000", "161554.439000", "161554.443000", "161554.446000", "161554.449000", "161554.461000", "161554.464000", "161554.467000", "161554.471000", "161554.474000", "161554.477000", "161634.378000", "161634.382000", "161634.385000", "161634.389000", "161634.392000", "161634.395000", "161634.399000", "161634.403000", "161634.407000", "161634.410000", "161634.414000", "161634.417000", "161634.420000", "161634.424000", "161634.427000", "161634.431000", "161634.434000", "161634.437000", "161634.440000", "161634.444000", "161634.447000", "161634.450000", "161634.454000", "161634.457000", "161634.461000", "161634.464000", "161714.379000", "161714.383000", "161714.386000", "161714.390000", "161714.393000", "161714.396000", "161714.400000", "161714.403000", "161714.406000", "161714.410000", "161714.413000", "161714.417000", "161714.420000", "161714.423000", "161714.426000", "161714.430000", "161714.433000", "161714.436000", "161714.440000", "161714.443000", "161714.446000", "161714.450000", "161714.453000", "161714.456000", "161714.460000", "161714.463000", "161714.466000", "161754.378000", "161754.382000", "161754.385000", "161754.388000", "161754.392000", "161754.395000", "161754.399000", "161754.402000", "161754.405000", "161754.409000", "161754.412000", "161754.415000", "161754.419000", "161754.422000", "161754.425000", "161754.429000", "161754.432000", "161754.436000", "161754.439000", "161754.442000", "161754.445000", "161754.449000", "161754.452000", "161754.455000", "161754.459000", "161754.462000", "161754.465000", "161834.378000", "161834.382000", "161834.385000", "161834.388000", "161834.392000", "161834.395000", "161834.398000", "161834.402000", "161834.405000", "161834.408000", "161834.412000", "161834.415000", "161834.418000", "161834.422000", "161834.425000", "161834.428000", "161834.431000", "161834.435000", "161834.438000", "161834.441000", "161834.445000", "161834.448000", "161834.451000", "161834.455000", "161834.458000", "161834.461000", "161834.464000", "161914.378000", "161914.382000", "161914.385000", "161914.388000", "161914.392000", "161914.395000", "161914.398000", "161914.402000", "161914.405000", "161914.408000", "161914.412000", "161914.415000", "161914.418000", "161914.422000", "161914.425000", "161914.430000", "161914.433000", "161914.436000", "161914.440000", "161914.443000", "161914.446000", "161914.450000", "161914.453000", "161914.456000", "161914.462000", "161914.465000", "161914.468000", "161954.379000", "161954.383000", "161954.386000", "161954.389000", "161954.393000", "161954.396000", "161954.404000", "161954.408000", "161954.411000", "161954.414000", "161954.418000", "161954.421000", "161954.424000", "161954.427000", "161954.431000", "161954.434000", "161954.438000", "161954.441000", "161954.445000", "161954.448000", "161954.451000", "161954.454000", "161954.458000", "161954.461000", "161954.464000", "161954.468000", "161954.471000", "162002.166000", "162002.170000", "162002.173000", "162002.176000", "162002.180000"],
