{
  "AcquisitionMatrixPE": 104,
  "AcquisitionNumber": 1,
  "AcquisitionTime": "16:34:38.012500",
  "BandwidthPerPixelPhaseEncode": 17.17,
  "BaseResolution": 104,
  "BodyPartExamined": "BRAIN",
  "CoilCombinationMethod": "Sum of Squares",
  "ConsistencyInfo": "N4_VE11C_LATEST_20160120",
  "ConversionSoftware": "dcm2niix",
  "ConversionSoftwareVersion": "v1.0.20211006",
  "DerivedVendorReportedEchoSpacing": 0.000560011,
  "DeviceSerialNumber": "167006",
  "DwellTime": 2.1e-06,
  "EchoTime": 0.037,
  "EchoTrainLength": 104,
  "EffectiveEchoSpacing": 0.000560011,
  "FlipAngle": 52,
  "HeudiconvVersion": "0.11.3.post9+gc939bf8",
  "ImageComments": "Unaliased MB4/PE3/LB",
  "ImageOrientationPatientDICOM": [0.999361, -0.0356589, 0.00257679, 0.0340253, 0.926496, -0.374763],
  "ImageOrientationText": "Tra>Cor(-22.0)>Sag(-0.6)",
  "ImageType": [
    "ORIGINAL",
    "PRIMARY",
    "M",
    "MB",
    "ND",
    "MOSAIC"
],
  "ImagingFrequency": 123.259,
  "InPlanePhaseEncodingDirectionDICOM": "COL",
  "InstitutionAddress": "Chemin Queen-Mary 4565,Montreal,District,CA,H3W 1W5",
  "InstitutionName": "IUGM",
  "InstitutionalDepartmentName": "Department",
  "MRAcquisitionType": "2D",
  "MagneticFieldStrength": 3,
  "Manufacturer": "Siemens",
  "ManufacturersModelName": "Prisma_fit",
  "MatrixCoilMode": "SENSE",
  "Modality": "MR",
  "MultibandAccelerationFactor": 4,
  "PartialFourier": 1,
  "PatientPosition": "HFS",
  "PercentPhaseFOV": 100,
  "PercentSampling": 100,
  "PhaseEncodingDirection": "j",
  "PhaseEncodingSteps": 104,
  "PhaseResolution": 1,
  "PixelBandwidth": 2290,
  "ProcedureStepDescription": "games^mariostars",
  "ProtocolName": "func_task-mariostars_run-04",
  "PulseSequenceDetails": "%CustomerSeq%\\cmrr_mbep2d_bold",
  "ReceiveCoilActiveElements": "HC1-7;NC1,2",
  "ReceiveCoilName": "HeadNeck_64",
  "ReconMatrixPE": 104,
  "RepetitionTime": 1.49,
  "SAR": 0.0413052,
  "ScanOptions": "FS",
  "ScanningSequence": "EP",
  "SequenceName": "epfid2d1_104",
  "SequenceVariant": "SK\\SS",
  "SeriesDescription": "func_task-mariostars_run-04",
  "SeriesNumber": 20,
  "ShimSetting": [622, -7250, -8831, 513, 13, -205, -115, -14],
  "SliceThickness": 2,
  "SliceTiming": [0, 0.785, 0.0975, 0.8825, 0.1975, 0.98, 0.295, 1.0775, 0.3925, 1.1775, 0.49, 1.275, 0.5875, 1.3725, 0.6875, 0, 0.785, 0.0975, 0.8825, 0.1975, 0.98, 0.295, 1.0775, 0.3925, 1.1775, 0.49, 1.275, 0.5875, 1.3725, 0.6875, 0, 0.785, 0.0975, 0.8825, 0.1975, 0.98, 0.295, 1.0775, 0.3925, 1.1775, 0.49, 1.275, 0.5875, 1.3725, 0.6875, 0, 0.785, 0.0975, 0.8825, 0.1975, 0.98, 0.295, 1.0775, 0.3925, 1.1775, 0.49, 1.275, 0.5875, 1.3725, 0.6875],
  "SoftwareVersions": "syngo MR E11",
  "SpacingBetweenSlices": 2,
  "StationName": "MRC35049",
  "TaskName": "mariostars",
  "TotalReadoutTime": 0.0576811,
  "TxRefAmp": 226.304,
  "WipMemBlock": "fbe5b55e-a22c-497b-aad1-f93618d41708||Sequence: R017 ve11c/master r/75a17815+; Jun 28 2022 16:32:11 by eja",
  "dcmmeta_affine": [
    [-1.9987213611602783, 0.06805052608251572, -0.021952498704195023, 103.45919036865234],
    [0.07131779193878174, 1.852992057800293, -0.7492223978042603, -65.72716522216797],
    [0.005153587553650141, 0.7495262026786804, 1.8542340993881226, -68.74878692626953],
    [0.0, 0.0, 0.0, 1.0]
],
  "dcmmeta_reorient_transform": [
    [0.0, -1.0, 0.0, 103.0],
    [1.0, 0.0, 0.0, 0.0],
    [0.0, 0.0, 1.0, 0.0],
    [0.0, 0.0, 0.0, 1.0]
],
  "dcmmeta_shape": [104, 104, 60, 465],
  "dcmmeta_slice_dim": 2,
  "dcmmeta_version": 0.6,
  "global": {
    "const": {
      "AcquisitionMatrix": [104, 0, 0, 104],
      "AngioFlag": "N",
      "BitsAllocated": 16,
      "BitsStored": 16,
      "BodyPartExamined": "BRAIN",
      "Columns": 832,
      "EchoNumbers": 1,
      "EchoTime": 37.0,
      "EchoTrainLength": 104,
      "FlipAngle": 52.0,
      "HighBit": 15,
      "ImageOrientationPatient": [0.99936069731034, -0.035658895173, 0.00257679382828, 0.03402526460056, 0.92649603271227, -0.3747631021556],
      "ImagePositionPatient": [-862.77337666134, -773.66045000128, 279.40404369985],
      "ImageType": [
        "ORIGINAL",
        "PRIMARY",
        "M",
        "MB",
        "ND",
        "MOSAIC"
],
      "ImagedNucleus": "1H",
      "ImagingFrequency": 123.258786,
      "InPlanePhaseEncodingDirection": "COL",
      "MRAcquisitionType": "2D",
      "MagneticFieldStrength": 3.0,
      "Manufacturer": "SIEMENS",
      "ManufacturerModelName": "Prisma_fit",
      "Modality": "MR",
      "NumberOfAverages": 1.0,
      "NumberOfPhaseEncodingSteps": 104,
      "PercentPhaseFieldOfView": 100.0,
      "PercentSampling": 100.0,
      "PerformedProcedureStepStartTime": "153326.211000",
      "PhotometricInterpretation": "MONOCHROME2",
      "PixelBandwidth": 2290.0,
      "PixelRepresentation": 0,
      "PixelSpacing": [2.0, 2.0],
      "ProtocolName": "func_task-mariostars_run-04",
      "RepetitionTime": 1490.0,
      "Rows": 832,
      "SAR": 0.04130522805109,
      "SamplesPerPixel": 1,
      "ScanOptions": "FS",
      "ScanningSequence": "EP",
      "SequenceName": "epfid2d1_104",
      "SequenceVariant": [
        "SK",
        "SS"
],
      "SeriesDescription": "func_task-mariostars_run-04",
      "SeriesNumber": 20,
      "SeriesTime": "163604.856000",
      "SliceLocation": -40.251632419832,
      "SliceThickness": 2.0,
      "SmallestImagePixelValue": 0,
      "SoftwareVersions": "syngo MR E11",
      "SpacingBetweenSlices": 1.9999999998204,
      "SpecificCharacterSet": "ISO_IR 100",
      "StudyID": "1",
      "StudyTime": "153326.154000",
      "TransmitCoilName": "Body",
      "VariableFlipAngleFlag": "N",
      "WindowCenterWidthExplanation": "Algo1",
      "dBdt": 0.0},
    "slices": {}
  },
  "time": {
    "samples": {
      "AcquisitionNumber": [1, 2, 3, 4, 5, 6, 7, 8, 9, 10, 11, 12, 13, 14, 15, 16, 17, 18, 19, 20, 21, 22, 23, 24, 25, 26, 27, 28, 29, 30, 31, 32, 33, 34, 35, 36, 37, 38, 39, 40, 41, 42, 43, 44, 45, 46, 47, 48, 49, 50, 51, 52, 53, 54, 55, 56, 57, 58, 59, 60, 61, 62, 63, 64, 65, 66, 67, 68, 69, 70, 71, 72, 73, 74, 75, 76, 77, 78, 79, 80, 81, 82, 83, 84, 85, 86, 87, 88, 89, 90, 91, 92, 93, 94, 95, 96, 97, 98, 99, 100, 101, 102, 103, 104, 105, 106, 107, 108, 109, 110, 111, 112, 113, 114, 115, 116, 117, 118, 119, 120, 121, 122, 123, 124, 125, 126, 127, 128, 129, 130, 131, 132, 133, 134, 135, 136, 137, 138, 139, 140, 141, 142, 143, 144, 145, 146, 147, 148, 149, 150, 151, 152, 153, 154, 155, 156, 157, 158, 159, 160, 161, 162, 163, 164, 165, 166, 167, 168, 169, 170, 171, 172, 173, 174, 175, 176, 177, 178, 179, 180, 181, 182, 183, 184, 185, 186, 187, 188, 189, 190, 191, 192, 193, 194, 195, 196, 197, 198, 199, 200, 201, 202, 203, 204, 205, 206, 207, 208, 209, 210, 211, 212, 213, 214, 215, 216, 217, 218, 219, 220, 221, 222, 223, 224, 225, 226, 227, 228, 229, 230, 231, 232, 233, 234, 235, 236, 237, 238, 239, 240, 241, 242, 243, 244, 245, 246, 247, 248, 249, 250, 251, 252, 253, 254, 255, 256, 257, 258, 259, 260, 261, 262, 263, 264, 265, 266, 267, 268, 269, 270, 271, 272, 273, 274, 275, 276, 277, 278, 279, 280, 281, 282, 283, 284, 285, 286, 287, 288, 289, 290, 291, 292, 293, 294, 295, 296, 297, 298, 299, 300, 301, 302, 303, 304, 305, 306, 307, 308, 309, 310, 311, 312, 313, 314, 315, 316, 317, 318, 319, 320, 321, 322, 323, 324, 325, 326, 327, 328, 329, 330, 331, 332, 333, 334, 335, 336, 337, 338, 339, 340, 341, 342, 343, 344, 345, 346, 347, 348, 349, 350, 351, 352, 353, 354, 355, 356, 357, 358, 359, 360, 361, 362, 363, 364, 365, 366, 367, 368, 369, 370, 371, 372, 373, 374, 375, 376, 377, 378, 379, 380, 381, 382, 383, 384, 385, 386, 387, 388, 389, 390, 391, 392, 393, 394, 395, 396, 397, 398, 399, 400, 401, 402, 403, 404, 405, 406, 407, 408, 409, 410, 411, 412, 413, 414, 415, 416, 417, 418, 419, 420, 421, 422, 423, 424, 425, 426, 427, 428, 429, 430, 431, 432, 433, 434, 435, 436, 437, 438, 439, 440, 441, 442, 443, 444, 445, 446, 447, 448, 449, 450, 451, 452, 453, 454, 455, 456, 457, 458, 459, 460, 461, 462, 463, 464, 465],
      "AcquisitionTime": ["163438.012500", "163439.502500", "163440.992500", "163442.482500", "163443.972500", "163445.462500", "163446.952500", "163448.442500", "163449.932500", "163451.422500", "163452.912500", "163454.402500", "163455.892500", "163457.382500", "163458.872500", "163500.362500", "163501.852500", "163503.342500", "163504.832500", "163506.322500", "163507.812500", "163509.302500", "163510.792500", "163512.282500", "163513.772500", "163515.262500", "163516.752500", "163518.242500", "163519.732500", "163521.222500", "163522.712500", "163524.202500", "163525.692500", "163527.182500", "163528.672500", "163530.162500", "163531.652500", "163533.142500", "163534.632500", "163536.122500", "163537.612500", "163539.102500", "163540.592500", "163542.082500", "163543.572500", "163545.062500", "163546.552500", "163548.042500", "163549.532500", "163551.022500", "163552.512500", "163554.002500", "163555.492500", "163556.982500", "163558.472500", "163559.962500", "163601.452500", "163602.942500", "163604.432500", "163605.922500", "163607.412500", "163608.902500", "163610.392500", "163611.882500", "163613.372500", "163614.862500", "163616.352500", "163617.842500", "163619.332500", "163620.822500", "163622.312500", "163623.802500", "163625.292500", "163626.782500", "163628.272500", "163629.762500", "163631.252500", "163632.742500", "163634.232500", "163635.722500", "163637.212500", "163638.702500", "163640.192500", "163641.682500", "163643.172500", "163644.662500", "163646.152500", "163647.642500", "163649.132500", "163650.622500", "163652.112500", "163653.602500", "163655.092500", "163656.582500", "163658.072500", "163659.562500", "163701.052500", "163702.542500", "163704.032500", "163705.522500", "163707.012500", "163708.502500", "163709.992500", "163711.482500", "163712.972500", "163714.462500", "163715.952500", "163717.442500", "163718.932500", "163720.422500", "163721.912500", "163723.402500", "163724.892500", "163726.382500", "163727.872500", "163729.362500", "163730.852500", "163732.342500", "163733.832500", "163735.322500", "163736.812500", "163738.302500", "163739.792500", "163741.282500", "163742.772500", "163744.262500", "163745.752500", "163747.242500", "163748.732500", "163750.222500", "163751.712500", "163753.202500", "163754.692500", "163756.182500", "163757.672500", "163759.162500", "163800.652500", "163802.142500", "163803.632500", "163805.122500", "163806.612500", "163808.102500", "163809.592500", "163811.082500", "163812.572500", "163814.062500", "163815.552500", "163817.042500", "163818.532500", "163820.022500", "163821.512500", "163823.002500", "163824.492500", "163825.982500", "163827.472500", "163828.962500", "163830.452500", "163831.942500", "163833.432500", "163834.922500", "163836.412500", "163837.902500", "163839.392500", "163840.882500", "163842.372500", "163843.862500", "163845.352500", "163846.842500", "163848.332500", "163849.822500", "163851.312500", "163852.802500", "163854.292500", "163855.782500", "163857.272500", "163858.762500", "163900.252500", "163901.742500", "163903.232500", "163904.722500", "163906.212500", "163907.702500", "163909.192500", "163910.682500", "163912.172500", "163913.662500", "163915.152500", "163916.642500", "163918.132500", "163919.622500", "163921.112500", "163922.602500", "163924.092500", "163925.582500", "163927.072500", "163928.562500", "163930.052500", "163931.542500", "163933.032500", "163934.522500", "163936.012500", "163937.502500", "163938.992500", "163940.482500", "163941.972500", "163943.462500", "163944.952500", "163946.442500", "163947.932500", "163949.422500", "163950.912500", "163952.402500", "163953.892500", "163955.382500", "163956.872500", "163958.362500", "163959.852500", "164001.342500", "164002.832500", "164004.322500", "164005.812500", "164007.302500", "164008.792500", "164010.282500", "164011.772500", "164013.262500", "164014.752500", "164016.242500", "164017.732500", "164019.222500", "164020.712500", "164022.202500", "164023.692500", "164025.182500", "164026.672500", "164028.162500", "164029.652500", "164031.142500", "164032.632500", "164034.122500", "164035.612500", "164037.102500", "164038.592500", "164040.082500", "164041.572500", "164043.062500", "164044.552500", "164046.042500", "164047.532500", "164049.022500", "164050.512500", "164052.002500", "164053.492500", "164054.982500", "164056.472500", "164057.962500", "164059.452500", "164100.942500", "164102.432500", "164103.922500", "164105.412500", "164106.902500", "164108.392500", "164109.882500", "164111.372500", "164112.862500", "164114.352500", "164115.842500", "164117.332500", "164118.822500", "164120.312500", "164121.802500", "164123.292500", "164124.782500", "164126.272500", "164127.762500", "164129.252500", "164130.742500", "164132.232500", "164133.722500", "164135.212500", "164136.702500", "164138.192500", "164139.682500", "164141.172500", "164142.662500", "164144.152500", "164145.642500", "164147.132500", "164148.622500", "164150.112500", "164151.602500", "164153.092500", "164154.582500", "164156.072500", "164157.562500", "164159.052500", "164200.542500", "164202.032500", "164203.522500", "164205.012500", "164206.502500", "164207.992500", "164209.482500", "164210.972500", "164212.462500", "164213.952500", "164215.442500", "164216.932500", "164218.422500", "164219.912500", "164221.402500", "164222.892500", "164224.382500", "164225.872500", "164227.362500", "164228.852500", "164230.342500", "164231.832500", "164233.322500", "164234.812500", "164236.302500", "164237.792500", "164239.282500", "164240.772500", "164242.262500", "164243.752500", "164245.242500", "164246.732500", "164248.222500", "164249.712500", "164251.202500", "164252.692500", "164254.182500", "164255.672500", "164257.162500", "164258.652500", "164300.142500", "164301.632500", "164303.122500", "164304.612500", "164306.102500", "164307.592500", "164309.082500", "164310.572500", "164312.062500", "164313.552500", "164315.042500", "164316.532500", "164318.022500", "164319.512500", "164321.002500", "164322.492500", "164323.982500", "164325.472500", "164326.962500", "164328.452500", "164329.942500", "164331.432500", "164332.922500", "164334.412500", "164335.902500", "164337.392500", "164338.882500", "164340.372500", "164341.862500", "164343.352500", "164344.842500", "164346.332500", "164347.822500", "164349.312500", "164350.802500", "164352.292500", "164353.782500", "164355.272500", "164356.762500", "164358.252500", "164359.742500", "164401.232500", "164402.722500", "164404.212500", "164405.702500", "164407.192500", "164408.682500", "164410.172500", "164411.662500", "164413.152500", "164414.642500", "164416.132500", "164417.622500", "164419.112500", "164420.602500", "164422.092500", "164423.582500", "164425.072500", "164426.562500", "164428.052500", "164429.542500", "164431.032500", "164432.522500", "164434.012500", "164435.502500", "164436.992500", "164438.482500", "164439.972500", "164441.462500", "164442.952500", "164444.442500", "164445.932500", "164447.422500", "164448.912500", "164450.402500", "164451.892500", "164453.382500", "164454.872500", "164456.362500", "164457.852500", "164459.342500", "164500.832500", "164502.322500", "164503.812500", "164505.302500", "164506.792500", "164508.282500", "164509.772500", "164511.262500", "164512.752500", "164514.242500", "164515.732500", "164517.222500", "164518.712500", "164520.202500", "164521.692500", "164523.182500", "164524.672500", "164526.162500", "164527.652500", "164529.142500", "164530.632500", "164532.122500", "164533.612500", "164535.102500", "164536.592500", "164538.082500", "164539.572500", "164541.062500", "164542.552500", "164544.042500", "164545.532500", "164547.022500", "164548.512500", "164550.002500", "164551.492500", "164552.982500", "164554.472500", "164555.962500", "164557.452500", "164558.942500", "164600.432500", "164601.922500", "164603.412500", "164604.902500", "164606.392500", "164607.882500", "164609.372500"],
      "ContentTime": ["163604.859000", "163604.863000", "163604.866000", "163604.869000", "163604.872000", "163604.876000", "163604.879000", "163604.882000", "163604.886000", "163604.889000", "163604.892000", "163604.895000", "163604.899000", "163604.902000", "163604.905000", "163604.909000", "163604.912000", "163604.915000", "163604.919000", "163604.922000", "163604.925000", "163604.928000", "163604.940000", "163604.943000", "163604.946000", "163604.950000", "163604.953000", "163604.956000", "163604.959000", "163604.963000", "163604.966000", "163604.969000", "163604.973000", "163604.976000", "163604.979000", "163604.982000", "163604.986000", "163624.825000", "163624.829000", "163624.832000", "163624.835000", "163624.839000", "163624.842000", "163624.845000", "163624.849000", "163624.852000", "163624.855000", "163624.858000", "163624.862000", "163624.865000", "163624.868000", "163624.872000", "163624.875000", "163624.878000", "163624.881000", "163624.885000", "163624.888000", "163644.825000", "163644.829000", "163644.832000", "163644.835000", "163644.839000", "163644.842000", "163644.845000", "163644.849000", "163644.852000", "163644.855000", "163644.858000", "163644.862000", "163644.865000", "163644.868000", "163644.871000", "163644.875000", "163644.878000", "163644.881000", "163644.884000", "163644.888000", "163704.827000", "163704.831000", "163704.834000", "163704.838000", "163704.841000", "163704.845000", "163704.848000", "163704.859000", "163704.862000", "163704.866000", "163704.869000", "163704.872000", "163704.875000", "163704.879000", "163704.882000", "163704.885000", "163704.889000", "163704.892000", "163704.895000", "163704.899000", "163704.902000", "163744.825000", "163744.829000", "163744.832000", "163744.836000", "163744.839000", "163744.842000", "163744.845000", "163744.849000", "163744.852000", "163744.855000", "163744.859000", "163744.862000", "163744.865000", "163744.869000", "163744.872000", "163744.875000", "163744.879000", "163744.882000", "163744.885000", "163744.888000", "163744.892000", "163744.895000", "163744.898000", "163744.902000", "163744.905000", "163744.908000", "163744.911000", "163824.825000", "163824.829000", "163824.832000", "163824.836000", "163824.839000", "163824.842000", "163824.846000", "163824.849000", "163824.852000", "163824.855000", "163824.859000", "163824.862000", "163824.865000", "163824.869000", "163824.872000", "163824.875000", "163824.879000", "163824.882000", "163824.885000", "163824.889000", "163824.892000", "163824.895000", "163824.899000", "163824.902000", "163824.905000", "163824.908000", "163824.912000", "163904.825000", "163904.829000", "163904.832000", "163904.836000", "163904.839000", "163904.842000", "163904.846000", "163904.849000", "163904.852000", "163904.861000", "163904.865000", "163904.868000", "163904.871000", "163904.875000", "163904.878000", "163904.882000", "163904.885000", "163904.889000", "163904.892000", "163904.896000", "163904.900000", "163904.904000", "163904.908000", "163904.912000", "163904.916000", "163904.919000", "163944.825000", "163944.829000", "163944.832000", "163944.849000", "163944.852000", "163944.856000", "163944.859000", "163944.862000", "163944.866000", "163944.869000", "163944.872000", "163944.876000", "163944.879000", "163944.882000", "163944.886000", "163944.889000", "163944.892000", "163944.896000", "163944.899000", "163944.903000", "163944.906000", "163944.909000", "163944.913000", "163944.916000", "163944.919000", "163944.923000", "163944.926000", "164024.825000", "164024.829000", "164024.832000", "164024.836000", "164024.839000", "164024.842000", "164024.846000", "164024.849000", "164024.852000", "164024.856000", "164024.859000", "164024.862000", "164024.874000", "164024.877000", "164024.880000", "164024.884000", "164024.887000", "164024.890000", "164024.894000", "164024.897000", "164024.900000", "164024.904000", "164024.907000", "164024.910000", "164024.913000", "164024.917000", "164024.920000", "164104.825000", "164104.829000", "164104.832000", "164104.836000", "164104.839000", "164104.842000", "164104.845000", "164104.849000", "164104.852000", "164104.856000", "164104.859000", "164104.862000", "164104.865000", "164104.869000", "164104.872000", "164104.875000", "164104.879000", "164104.882000", "164104.885000", "164104.889000", "164104.892000", "164104.895000", "164104.898000", "164104.902000", "164104.905000", "164104.908000", "164104.912000", "164144.827000", "164144.830000", "164144.834000", "164144.837000", "164144.840000", "164144.843000", "164144.854000", "164144.858000", "164144.861000", "164144.864000", "164144.868000", "164144.871000", "164144.874000", "164144.877000", "164144.881000", "164144.884000", "164144.887000", "164144.892000", "164144.895000", "164144.899000", "164144.902000", "164144.905000", "164144.923000", "164144.926000", "164144.929000", "164144.933000", "164144.936000", "164224.825000", "164224.829000", "164224.832000", "164224.835000", "164224.839000", "164224.842000", "164224.845000", "164224.849000", "164224.852000", "164224.855000", "164224.858000", "164224.862000", "164224.865000", "164224.869000", "164224.872000", "164224.875000", "164224.879000", "164224.882000", "164224.885000", "164224.889000", "164224.892000", "164224.895000", "164224.898000", "164224.902000", "164224.905000", "164224.908000", "164224.912000", "164304.825000", "164304.829000", "164304.832000", "164304.836000", "164304.839000", "164304.842000", "164304.846000", "164304.849000", "164304.853000", "164304.856000", "164304.859000", "164304.862000", "164304.866000", "164304.869000", "164304.873000", "164304.876000", "164304.879000", "164304.883000", "164304.886000", "164304.889000", "164304.893000", "164304.896000", "164304.899000", "164304.903000", "164304.906000", "164304.909000", "164304.913000", "164344.825000", "164344.829000", "164344.832000", "164344.836000", "164344.839000", "164344.842000", "164344.846000", "164344.849000", "164344.852000", "164344.856000", "164344.859000", "164344.862000", "164344.866000", "164344.869000", "164344.873000", "164344.877000", "164344.880000", "164344.890000", "164344.893000", "164344.896000", "164344.900000", "164344.905000", "164344.908000", "164344.912000", "164344.915000", "164344.918000", "164424.825000", "164424.829000", "164424.832000", "164424.835000", "164424.839000", "164424.842000", "164424.845000", "164424.849000", "164424.852000", "164424.855000", "164424.859000", "164424.862000", "164424.865000", "164424.869000", "164424.872000", "164424.875000", "164424.879000", "164424.882000", "164424.885000", "164424.889000", "164424.892000", "164424.895000", "164424.898000", "164424.902000", "164424.905000", "164424.908000", "164424.912000", "164504.825000", "164504.829000", "164504.832000", "164504.836000", "164504.839000", "164504.842000", "164504.846000", "164504.849000", "164504.852000", "164504.855000", "164504.859000", "164504.862000", "164504.865000", "164504.869000", "164504.872000", "164504.875000", "164504.878000", "164504.882000", "164504.885000", "164504.888000", "164504.892000", "164504.895000", "164504.898000", "164504.902000", "164504.905000", "164504.909000", "164504.912000", "164544.825000", "164544.829000", "164544.832000", "164544.836000", "164544.839000", "164544.842000", "164544.846000", "164544.849000", "164544.852000", "164544.856000", "164544.859000", "164544.862000", "164544.866000", "164544.869000", "164544.872000", "164544.875000", "164544.879000", "164544.882000", "164544.885000", "164544.889000", "164544.892000", "164544.903000", "164544.906000", "164544.909000", "164544.913000", "164544.916000", "164544.919000", "164612.038000", "164612.052000", "164612.055000", "164612.059000", "164612.062000", "164612.065000", "164612.069000", "164612.072000", "164612.075000", "164612.079000", "164612.082000", "164612.085000", "164612.088000", "164612.092000", "164612.095000", "164612.099000", "164612.102000", "164612.105000"],
