{
  "AcquisitionMatrixPE": 104,
  "AcquisitionNumber": 1,
  "AcquisitionTime": "17:36:12.592500",
  "BandwidthPerPixelPhaseEncode": 17.17,
  "BaseResolution": 104,
  "BodyPartExamined": "BRAIN",
  "CoilCombinationMethod": "Sum of Squares",
  "ConsistencyInfo": "N4_VE11C_LATEST_20160120",
  "ConversionSoftware": "dcm2niix",
  "ConversionSoftwareVersion": "v1.0.20211006",
  "DerivedVendorReportedEchoSpacing": 0.000560011,
  "DeviceSerialNumber": "167006",
  "DwellTime": 2.1e-06,
  "EchoTime": 0.037,
  "EchoTime1": 0.037,
  "EchoTime2": 0.001,
  "EchoTrainLength": 104,
  "EffectiveEchoSpacing": 0.000560011,
  "FlipAngle": 52,
  "HeudiconvVersion": "0.11.3.post9+gc939bf8",
  "ImageComments": "Unaliased MB4/PE3/LB",
  "ImageOrientationPatientDICOM": [0.99424, 0.105233, 0.0202948, -0.090133, 0.923488, -0.372889],
  "ImageOrientationText": "Tra>Cor(-21.7)>Sag(3.3)",
  "ImageType": [
    "ORIGINAL",
    "PRIMARY",
    "P",
    "MB",
    "ND",
    "MOSAIC",
    "PHASE"
],
  "ImagingFrequency": 123.259,
  "InPlanePhaseEncodingDirectionDICOM": "COL",
  "InstitutionAddress": "Chemin Queen-Mary 4565,Montreal,District,CA,H3W 1W5",
  "InstitutionName": "IUGM",
  "InstitutionalDepartmentName": "Department",
  "MRAcquisitionType": "2D",
  "MagneticFieldStrength": 3,
  "Manufacturer": "Siemens",
  "ManufacturersModelName": "Prisma_fit",
  "MatrixCoilMode": "SENSE",
  "Modality": "MR",
  "MultibandAccelerationFactor": 4,
  "PartialFourier": 1,
  "PatientPosition": "HFS",
  "PercentPhaseFOV": 100,
  "PercentSampling": 100,
  "PhaseEncodingDirection": "j",
  "PhaseEncodingSteps": 104,
  "PhaseResolution": 1,
  "PixelBandwidth": 2290,
  "ProcedureStepDescription": "games^mariostars",
  "ProtocolName": "func_task-mariostars_run-01",
  "PulseSequenceDetails": "%CustomerSeq%\\cmrr_mbep2d_bold",
  "ReceiveCoilActiveElements": "HC1-7;NC1,2",
  "ReceiveCoilName": "HeadNeck_64",
  "ReconMatrixPE": 104,
  "RepetitionTime": 1.49,
  "SAR": 0.0615729,
  "ScanOptions": "FS",
  "ScanningSequence": "EP",
  "SequenceName": "epfid2d1_104",
  "SequenceVariant": "SK\\SS",
  "SeriesDescription": "func_task-mariostars_run-01",
  "SeriesNumber": 11,
  "ShimSetting": [622, -7192, -8829, 657, 42, 19, -32, -3],
  "SliceThickness": 2,
  "SliceTiming": [0, 0.785, 0.1, 0.8825, 0.1975, 0.98, 0.295, 1.08, 0.3925, 1.1775, 0.49, 1.275, 0.59, 1.3725, 0.6875, 0, 0.785, 0.1, 0.8825, 0.1975, 0.98, 0.295, 1.08, 0.3925, 1.1775, 0.49, 1.275, 0.59, 1.3725, 0.6875, 0, 0.785, 0.1, 0.8825, 0.1975, 0.98, 0.295, 1.08, 0.3925, 1.1775, 0.49, 1.275, 0.59, 1.3725, 0.6875, 0, 0.785, 0.1, 0.8825, 0.1975, 0.98, 0.295, 1.08, 0.3925, 1.1775, 0.49, 1.275, 0.59, 1.3725, 0.6875],
  "SoftwareVersions": "syngo MR E11",
  "SpacingBetweenSlices": 2,
  "StationName": "MRC35049",
  "TaskName": "mariostars",
  "TotalReadoutTime": 0.0576811,
  "TxRefAmp": 297.348,
  "WipMemBlock": "d7b7c1ca-e6d0-4809-b544-ce81cac62062||Sequence: R016 ve11c/master r/e634e98; Dec 19 2017 11:00:25 by eja",
  "dcmmeta_affine": [
    [-1.9884809255599976, -0.18026606738567352, 0.11596474796533585, 111.7729721069336],
    [-0.21046651899814606, 1.8469756841659546, -0.7378243803977966, -48.1483268737793],
    [0.04058968648314476, 0.7457782030105591, 1.8553078174591064, -69.7302474975586],
    [0.0, 0.0, 0.0, 1.0]
],
  "dcmmeta_reorient_transform": [
    [0.0, -1.0, 0.0, 103.0],
    [1.0, 0.0, 0.0, 0.0],
    [0.0, 0.0, 1.0, 0.0],
    [0.0, 0.0, 0.0, 1.0]
],
  "dcmmeta_shape": [104, 104, 60, 472],
  "dcmmeta_slice_dim": 2,
  "dcmmeta_version": 0.6,
  "global": {
    "const": {
      "AcquisitionMatrix": [104, 0, 0, 104],
      "AngioFlag": "N",
      "BitsAllocated": 16,
      "BitsStored": 16,
      "BodyPartExamined": "BRAIN",
      "Columns": 832,
      "EchoNumbers": 1,
      "EchoTime": 37.0,
      "EchoTrainLength": 104,
      "FlipAngle": 52.0,
      "HighBit": 15,
      "ImageOrientationPatient": [0.9942404542456, 0.10523325739845, 0.020294843651, -0.0901330306522, 0.9234878194548, -0.3728891042979],
      "ImagePositionPatient": [-751.39576997251, -890.99910824415, 263.77352686321],
      "ImageType": [
        "ORIGINAL",
        "PRIMARY",
        "P",
        "MB",
        "ND",
        "MOSAIC"
],
      "ImagedNucleus": "1H",
      "ImagingFrequency": 123.258832,
      "InPlanePhaseEncodingDirection": "COL",
      "LargestImagePixelValue": 4095,
      "MRAcquisitionType": "2D",
      "MagneticFieldStrength": 3.0,
      "Manufacturer": "SIEMENS",
      "ManufacturerModelName": "Prisma_fit",
      "Modality": "MR",
      "NumberOfAverages": 1.0,
      "NumberOfPhaseEncodingSteps": 104,
      "PercentPhaseFieldOfView": 100.0,
      "PercentSampling": 100.0,
      "PerformedProcedureStepStartTime": "165600.304000",
      "PhotometricInterpretation": "MONOCHROME2",
      "PixelBandwidth": 2290.0,
      "PixelRepresentation": 0,
      "PixelSpacing": [2.0, 2.0],
      "ProtocolName": "func_task-mariostars_run-01",
      "RepetitionTime": 1490.0,
      "RescaleIntercept": -4096.0,
      "RescaleSlope": 2.0,
      "RescaleType": "US",
      "Rows": 832,
      "SAR": 0.06157288763009,
      "SamplesPerPixel": 1,
      "ScanOptions": "FS",
      "ScanningSequence": "EP",
      "SequenceName": "epfid2d1_104",
      "SequenceVariant": [
        "SK",
        "SS"
],
      "SeriesDescription": "func_task-mariostars_run-01",
      "SeriesNumber": 11,
      "SeriesTime": "173731.278000",
      "SliceLocation": -40.442174333346,
      "SliceThickness": 2.0,
      "SmallestImagePixelValue": 0,
      "SoftwareVersions": "syngo MR E11",
      "SpacingBetweenSlices": 1.9999999789549,
      "SpecificCharacterSet": "ISO_IR 100",
      "StudyID": "1",
      "StudyTime": "165600.251000",
      "TransmitCoilName": "Body",
      "VariableFlipAngleFlag": "N",
      "WindowCenterWidthExplanation": "Algo1",
      "dBdt": 0.0},
    "slices": {}
  },
  "time": {
    "samples": {
      "AcquisitionNumber": [1, 2, 3, 4, 5, 6, 7, 8, 9, 10, 11, 12, 13, 14, 15, 16, 17, 18, 19, 20, 21, 22, 23, 24, 25, 26, 27, 28, 29, 30, 31, 32, 33, 34, 35, 36, 37, 38, 39, 40, 41, 42, 43, 44, 45, 46, 47, 48, 49, 50, 51, 52, 53, 54, 55, 56, 57, 58, 59, 60, 61, 62, 63, 64, 65, 66, 67, 68, 69, 70, 71, 72, 73, 74, 75, 76, 77, 78, 79, 80, 81, 82, 83, 84, 85, 86, 87, 88, 89, 90, 91, 92, 93, 94, 95, 96, 97, 98, 99, 100, 101, 102, 103, 104, 105, 106, 107, 108, 109, 110, 111, 112, 113, 114, 115, 116, 117, 118, 119, 120, 121, 122, 123, 124, 125, 126, 127, 128, 129, 130, 131, 132, 133, 134, 135, 136, 137, 138, 139, 140, 141, 142, 143, 144, 145, 146, 147, 148, 149, 150, 151, 152, 153, 154, 155, 156, 157, 158, 159, 160, 161, 162, 163, 164, 165, 166, 167, 168, 169, 170, 171, 172, 173, 174, 175, 176, 177, 178, 179, 180, 181, 182, 183, 184, 185, 186, 187, 188, 189, 190, 191, 192, 193, 194, 195, 196, 197, 198, 199, 200, 201, 202, 203, 204, 205, 206, 207, 208, 209, 210, 211, 212, 213, 214, 215, 216, 217, 218, 219, 220, 221, 222, 223, 224, 225, 226, 227, 228, 229, 230, 231, 232, 233, 234, 235, 236, 237, 238, 239, 240, 241, 242, 243, 244, 245, 246, 247, 248, 249, 250, 251, 252, 253, 254, 255, 256, 257, 258, 259, 260, 261, 262, 263, 264, 265, 266, 267, 268, 269, 270, 271, 272, 273, 274, 275, 276, 277, 278, 279, 280, 281, 282, 283, 284, 285, 286, 287, 288, 289, 290, 291, 292, 293, 294, 295, 296, 297, 298, 299, 300, 301, 302, 303, 304, 305, 306, 307, 308, 309, 310, 311, 312, 313, 314, 315, 316, 317, 318, 319, 320, 321, 322, 323, 324, 325, 326, 327, 328, 329, 330, 331, 332, 333, 334, 335, 336, 337, 338, 339, 340, 341, 342, 343, 344, 345, 346, 347, 348, 349, 350, 351, 352, 353, 354, 355, 356, 357, 358, 359, 360, 361, 362, 363, 364, 365, 366, 367, 368, 369, 370, 371, 372, 373, 374, 375, 376, 377, 378, 379, 380, 381, 382, 383, 384, 385, 386, 387, 388, 389, 390, 391, 392, 393, 394, 395, 396, 397, 398, 399, 400, 401, 402, 403, 404, 405, 406, 407, 408, 409, 410, 411, 412, 413, 414, 415, 416, 417, 418, 419, 420, 421, 422, 423, 424, 425, 426, 427, 428, 429, 430, 431, 432, 433, 434, 435, 436, 437, 438, 439, 440, 441, 442, 443, 444, 445, 446, 447, 448, 449, 450, 451, 452, 453, 454, 455, 456, 457, 458, 459, 460, 461, 462, 463, 464, 465, 466, 467, 468, 469, 470, 471, 472],
      "AcquisitionTime": ["173612.592500", "173614.082500", "173615.572500", "173617.062500", "173618.552500", "173620.042500", "173621.532500", "173623.022500", "173624.512500", "173626.002500", "173627.492500", "173628.982500", "173630.472500", "173631.962500", "173633.452500", "173634.942500", "173636.432500", "173637.922500", "173639.412500", "173640.902500", "173642.392500", "173643.882500", "173645.372500", "173646.862500", "173648.352500", "173649.842500", "173651.332500", "173652.822500", "173654.312500", "173655.802500", "173657.292500", "173658.782500", "173700.272500", "173701.762500", "173703.252500", "173704.742500", "173706.232500", "173707.722500", "173709.212500", "173710.702500", "173712.192500", "173713.682500", "173715.172500", "173716.662500", "173718.152500", "173719.642500", "173721.132500", "173722.622500", "173724.112500", "173725.602500", "173727.092500", "173728.582500", "173730.072500", "173731.562500", "173733.052500", "173734.542500", "173736.032500", "173737.522500", "173739.012500", "173740.502500", "173741.992500", "173743.482500", "173744.972500", "173746.462500", "173747.952500", "173749.442500", "173750.932500", "173752.422500", "173753.912500", "173755.402500", "173756.892500", "173758.382500", "173759.872500", "173801.362500", "173802.852500", "173804.342500", "173805.832500", "173807.322500", "173808.812500", "173810.302500", "173811.792500", "173813.282500", "173814.772500", "173816.262500", "173817.752500", "173819.242500", "173820.732500", "173822.222500", "173823.712500", "173825.202500", "173826.692500", "173828.182500", "173829.672500", "173831.162500", "173832.652500", "173834.142500", "173835.632500", "173837.122500", "173838.612500", "173840.102500", "173841.592500", "173843.082500", "173844.572500", "173846.062500", "173847.552500", "173849.042500", "173850.532500", "173852.022500", "173853.512500", "173855.002500", "173856.492500", "173857.982500", "173859.472500", "173900.962500", "173902.452500", "173903.942500", "173905.432500", "173906.922500", "173908.412500", "173909.902500", "173911.392500", "173912.882500", "173914.372500", "173915.862500", "173917.352500", "173918.842500", "173920.332500", "173921.822500", "173923.312500", "173924.802500", "173926.292500", "173927.782500", "173929.272500", "173930.762500", "173932.252500", "173933.742500", "173935.232500", "173936.722500", "173938.212500", "173939.702500", "173941.192500", "173942.682500", "173944.172500", "173945.662500", "173947.152500", "173948.642500", "173950.132500", "173951.622500", "173953.112500", "173954.602500", "173956.092500", "173957.582500", "173959.072500", "174000.562500", "174002.052500", "174003.542500", "174005.032500", "174006.522500", "174008.012500", "174009.502500", "174010.992500", "174012.482500", "174013.972500", "174015.462500", "174016.952500", "174018.442500", "174019.932500", "174021.422500", "174022.912500", "174024.402500", "174025.892500", "174027.382500", "174028.872500", "174030.362500", "174031.852500", "174033.342500", "174034.832500", "174036.322500", "174037.812500", "174039.302500", "174040.792500", "174042.282500", "174043.772500", "174045.262500", "174046.752500", "174048.242500", "174049.732500", "174051.222500", "174052.712500", "174054.202500", "174055.692500", "174057.182500", "174058.672500", "174100.162500", "174101.652500", "174103.142500", "174104.632500", "174106.122500", "174107.612500", "174109.102500", "174110.592500", "174112.082500", "174113.572500", "174115.062500", "174116.552500", "174118.042500", "174119.532500", "174121.022500", "174122.512500", "174124.002500", "174125.492500", "174126.982500", "174128.472500", "174129.962500", "174131.452500", "174132.942500", "174134.432500", "174135.922500", "174137.412500", "174138.902500", "174140.392500", "174141.882500", "174143.372500", "174144.862500", "174146.352500", "174147.842500", "174149.332500", "174150.822500", "174152.312500", "174153.802500", "174155.292500", "174156.782500", "174158.272500", "174159.762500", "174201.252500", "174202.742500", "174204.232500", "174205.722500", "174207.212500", "174208.702500", "174210.192500", "174211.682500", "174213.172500", "174214.662500", "174216.152500", "174217.642500", "174219.132500", "174220.622500", "174222.112500", "174223.602500", "174225.092500", "174226.582500", "174228.072500", "174229.562500", "174231.052500", "174232.542500", "174234.032500", "174235.522500", "174237.012500", "174238.502500", "174239.992500", "174241.482500", "174242.972500", "174244.462500", "174245.952500", "174247.442500", "174248.932500", "174250.422500", "174251.912500", "174253.402500", "174254.892500", "174256.382500", "174257.872500", "174259.362500", "174300.852500", "174302.342500", "174303.832500", "174305.322500", "174306.812500", "174308.302500", "174309.792500", "174311.282500", "174312.772500", "174314.262500", "174315.752500", "174317.242500", "174318.732500", "174320.222500", "174321.712500", "174323.202500", "174324.692500", "174326.182500", "174327.672500", "174329.162500", "174330.652500", "174332.142500", "174333.632500", "174335.122500", "174336.612500", "174338.102500", "174339.592500", "174341.082500", "174342.572500", "174344.062500", "174345.552500", "174347.042500", "174348.532500", "174350.022500", "174351.512500", "174353.002500", "174354.492500", "174355.982500", "174357.472500", "174358.962500", "174400.452500", "174401.942500", "174403.432500", "174404.922500", "174406.412500", "174407.902500", "174409.392500", "174410.882500", "174412.372500", "174413.862500", "174415.352500", "174416.842500", "174418.332500", "174419.822500", "174421.312500", "174422.802500", "174424.292500", "174425.782500", "174427.272500", "174428.762500", "174430.252500", "174431.742500", "174433.232500", "174434.722500", "174436.212500", "174437.702500", "174439.192500", "174440.682500", "174442.172500", "174443.662500", "174445.152500", "174446.642500", "174448.132500", "174449.622500", "174451.112500", "174452.602500", "174454.092500", "174455.582500", "174457.072500", "174458.562500", "174500.052500", "174501.542500", "174503.032500", "174504.522500", "174506.012500", "174507.502500", "174508.992500", "174510.482500", "174511.972500", "174513.462500", "174514.952500", "174516.442500", "174517.932500", "174519.422500", "174520.912500", "174522.402500", "174523.892500", "174525.382500", "174526.872500", "174528.362500", "174529.852500", "174531.342500", "174532.832500", "174534.322500", "174535.812500", "174537.302500", "174538.792500", "174540.282500", "174541.772500", "174543.262500", "174544.752500", "174546.242500", "174547.732500", "174549.222500", "174550.712500", "174552.202500", "174553.692500", "174555.182500", "174556.672500", "174558.162500", "174559.652500", "174601.142500", "174602.632500", "174604.122500", "174605.612500", "174607.102500", "174608.592500", "174610.082500", "174611.572500", "174613.062500", "174614.552500", "174616.042500", "174617.532500", "174619.022500", "174620.512500", "174622.002500", "174623.492500", "174624.982500", "174626.472500", "174627.962500", "174629.452500", "174630.942500", "174632.432500", "174633.922500", "174635.412500", "174636.902500", "174638.392500", "174639.882500", "174641.372500", "174642.862500", "174644.352500", "174645.842500", "174647.332500", "174648.822500", "174650.312500", "174651.802500", "174653.292500", "174654.782500", "174656.272500", "174657.762500", "174659.252500", "174700.742500", "174702.232500", "174703.722500", "174705.212500", "174706.702500", "174708.192500", "174709.682500", "174711.172500", "174712.662500", "174714.152500", "174715.642500", "174717.132500", "174718.622500", "174720.112500", "174721.602500", "174723.092500", "174724.582500", "174726.072500", "174727.562500", "174729.052500", "174730.542500", "174732.032500", "174733.522500", "174735.012500", "174736.502500", "174737.992500", "174739.482500", "174740.972500", "174742.462500", "174743.952500", "174745.442500", "174746.932500", "174748.422500", "174749.912500", "174751.402500", "174752.892500", "174754.382500"],
      "ContentTime": ["173731.280000", "173731.283000", "173731.286000", "173731.288000", "173731.291000", "173731.293000", "173731.300000", "173731.302000", "173731.305000", "173731.307000", "173731.310000", "173731.312000", "173731.314000", "173731.317000", "173731.319000", "173731.322000", "173731.324000", "173731.327000", "173731.329000", "173731.332000", "173731.334000", "173731.336000", "173731.339000", "173731.341000", "173731.344000", "173751.695000", "173751.698000", "173751.701000", "173751.703000", "173751.706000", "173751.708000", "173751.711000", "173751.713000", "173751.739000", "173751.741000", "173751.744000", "173751.746000", "173751.749000", "173751.751000", "173751.754000", "173751.756000", "173751.759000", "173751.761000", "173751.764000", "173751.766000", "173811.244000", "173811.246000", "173811.249000", "173811.251000", "173811.254000", "173811.256000", "173811.259000", "173811.261000", "173811.263000", "173811.266000", "173811.268000", "173811.271000", "173811.273000", "173811.276000", "173811.278000", "173811.281000", "173811.283000", "173811.286000", "173811.293000", "173811.295000", "173831.276000", "173831.279000", "173831.282000", "173831.284000", "173831.287000", "173831.289000", "173831.292000", "173831.294000", "173831.297000", "173831.299000", "173831.302000", "173831.304000", "173831.307000", "173831.309000", "173831.312000", "173831.314000", "173831.317000", "173831.347000", "173831.350000", "173831.352000", "173851.202000", "173851.205000", "173851.207000", "173851.210000", "173851.212000", "173851.215000", "173851.217000", "173851.220000", "173851.222000", "173851.225000", "173851.227000", "173851.230000", "173851.232000", "173851.235000", "173851.237000", "173851.240000", "173851.242000", "173851.245000", "173851.247000", "173851.250000", "173931.243000", "173931.246000", "173931.248000", "173931.258000", "173931.260000", "173931.263000", "173931.265000", "173931.267000", "173931.270000", "173931.272000", "173931.275000", "173931.278000", "173931.280000", "173931.283000", "173931.285000", "173931.287000", "173931.290000", "173931.292000", "173931.295000", "173931.297000", "173931.300000", "173931.302000", "173931.305000", "173931.307000", "173931.310000", "173931.312000", "173931.314000", "174011.257000", "174011.260000", "174011.262000", "174011.265000", "174011.267000", "174011.270000", "174011.272000", "174011.275000", "174011.277000", "174011.280000", "174011.282000", "174011.284000", "174011.287000", "174011.289000", "174011.292000", "174011.294000", "174011.297000", "174011.299000", "174011.302000", "174011.304000", "174011.307000", "174011.309000", "174011.312000", "174011.314000", "174011.317000", "174011.319000", "174011.322000", "174051.247000", "174051.250000", "174051.253000", "174051.255000", "174051.258000", "174051.260000", "174051.263000", "174051.265000", "174051.268000", "174051.270000", "174051.272000", "174051.275000", "174051.277000", "174051.280000", "174051.282000", "174051.285000", "174051.287000", "174051.290000", "174051.292000", "174051.295000", "174051.297000", "174051.300000", "174051.302000", "174051.305000", "174051.307000", "174051.310000", "174051.312000", "174131.238000", "174131.241000", "174131.243000", "174131.246000", "174131.248000", "174131.251000", "174131.253000", "174131.256000", "174131.258000", "174131.261000", "174131.263000", "174131.266000", "174131.268000", "174131.270000", "174131.273000", "174131.275000", "174131.278000", "174131.280000", "174131.283000", "174131.285000", "174131.288000", "174131.290000", "174131.293000", "174131.295000", "174131.307000", "174131.309000", "174131.312000", "174211.251000", "174211.253000", "174211.256000", "174211.258000", "174211.261000", "174211.263000", "174211.266000", "174211.268000", "174211.271000", "174211.273000", "174211.276000", "174211.278000", "174211.281000", "174211.283000", "174211.286000", "174211.288000", "174211.290000", "174211.293000", "174211.295000", "174211.298000", "174211.300000", "174211.303000", "174211.305000", "174211.308000", "174211.310000", "174211.313000", "174251.253000", "174251.256000", "174251.258000", "174251.260000", "174251.263000", "174251.266000", "174251.268000", "174251.271000", "174251.273000", "174251.278000", "174251.281000", "174251.283000", "174251.287000", "174251.289000", "174251.292000", "174251.294000", "174251.297000", "174251.299000", "174251.302000", "174251.304000", "174251.307000", "174251.309000", "174251.312000", "174251.314000", "174251.317000", "174251.319000", "174251.322000", "174331.249000", "174331.252000", "174331.254000", "174331.257000", "174331.259000", "174331.262000", "174331.264000", "174331.266000", "174331.269000", "174331.271000", "174331.274000", "174331.276000", "174331.279000", "174331.281000", "174331.284000", "174331.286000", "174331.289000", "174331.291000", "174331.294000", "174331.296000", "174331.299000", "174331.301000", "174331.304000", "174331.306000", "174331.309000", "174331.311000", "174331.314000", "174411.234000", "174411.237000", "174411.239000", "174411.242000", "174411.244000", "174411.247000", "174411.249000", "174411.252000", "174411.254000", "174411.257000", "174411.259000", "174411.261000", "174411.264000", "174411.266000", "174411.269000", "174411.271000", "174411.274000", "174411.276000", "174411.279000", "174411.281000", "174411.284000", "174411.286000", "174411.289000", "174411.291000", "174411.294000", "174411.296000", "174411.299000", "174451.243000", "174451.246000", "174451.248000", "174451.251000", "174451.253000", "174451.256000", "174451.258000", "174451.261000", "174451.263000", "174451.266000", "174451.268000", "174451.270000", "174451.273000", "174451.275000", "174451.278000", "174451.280000", "174451.283000", "174451.285000", "174451.288000", "174451.290000", "174451.293000", "174451.296000", "174451.298000", "174451.301000", "174451.303000", "174451.306000", "174451.308000", "174531.262000", "174531.265000", "174531.268000", "174531.270000", "174531.273000", "174531.275000", "174531.278000", "174531.280000", "174531.283000", "174531.285000", "174531.288000", "174531.290000", "174531.293000", "174531.295000", "174531.298000", "174531.300000", "174531.303000", "174531.305000", "174531.308000", "174531.310000", "174531.313000", "174531.315000", "174531.318000", "174531.320000", "174531.323000", "174531.325000", "174531.328000", "174611.283000", "174611.285000", "174611.288000", "174611.291000", "174611.293000", "174611.296000", "174611.299000", "174611.301000", "174611.304000", "174611.306000", "174611.309000", "174611.311000", "174611.314000", "174611.316000", "174611.319000", "174611.322000", "174611.324000", "174611.327000", "174611.329000", "174611.332000", "174611.334000", "174611.337000", "174611.340000", "174611.342000", "174611.345000", "174611.347000", "174651.284000", "174651.287000", "174651.289000", "174651.292000", "174651.294000", "174651.297000", "174651.299000", "174651.302000", "174651.305000", "174651.308000", "174651.311000", "174651.313000", "174651.316000", "174651.318000", "174651.321000", "174651.323000", "174651.326000", "174651.328000", "174651.331000", "174651.333000", "174651.336000", "174651.338000", "174651.341000", "174651.343000", "174651.346000", "174651.348000", "174651.351000", "174731.236000", "174731.239000", "174731.241000", "174731.244000", "174731.246000", "174731.249000", "174731.251000", "174731.254000", "174731.256000", "174731.259000", "174731.261000", "174731.264000", "174731.267000", "174731.269000", "174731.271000", "174731.274000", "174731.276000", "174731.279000", "174731.281000", "174731.284000", "174731.286000", "174731.289000", "174731.291000", "174731.294000", "174731.296000", "174731.299000", "174731.301000", "174757.407000", "174757.409000", "174757.412000", "174757.415000", "174757.417000", "174757.419000", "174757.422000", "174757.424000", "174757.427000", "174757.429000", "174757.432000", "174757.434000", "174757.437000", "174757.439000", "174757.442000", "174757.444000", "174757.447000", "174757.455000"],
