{
  "AcquisitionMatrixPE": 104,
  "AcquisitionNumber": 1,
  "AcquisitionTime": "18:01:55.470000",
  "BandwidthPerPixelPhaseEncode": 17.17,
  "BaseResolution": 104,
  "BodyPartExamined": "BRAIN",
  "CoilCombinationMethod": "Sum of Squares",
  "ConsistencyInfo": "N4_VE11C_LATEST_20160120",
  "ConversionSoftware": "dcm2niix",
  "ConversionSoftwareVersion": "v1.0.20211006",
  "DerivedVendorReportedEchoSpacing": 0.000560011,
  "DeviceSerialNumber": "167006",
  "DwellTime": 2.1e-06,
  "EchoTime": 0.037,
  "EchoTrainLength": 104,
  "EffectiveEchoSpacing": 0.000560011,
  "FlipAngle": 52,
  "HeudiconvVersion": "0.11.3.post9+gc939bf8",
  "ImageComments": "Unaliased MB4/PE3/LB",
  "ImageOrientationPatientDICOM": [0.99424, 0.105233, 0.0202948, -0.090133, 0.923488, -0.372889],
  "ImageOrientationText": "Tra>Cor(-21.7)>Sag(3.3)",
  "ImageType": [
    "ORIGINAL",
    "PRIMARY",
    "M",
    "MB",
    "ND",
    "MOSAIC"
],
  "ImagingFrequency": 123.259,
  "InPlanePhaseEncodingDirectionDICOM": "COL",
  "InstitutionAddress": "Chemin Queen-Mary 4565,Montreal,District,CA,H3W 1W5",
  "InstitutionName": "IUGM",
  "InstitutionalDepartmentName": "Department",
  "MRAcquisitionType": "2D",
  "MagneticFieldStrength": 3,
  "Manufacturer": "Siemens",
  "ManufacturersModelName": "Prisma_fit",
  "MatrixCoilMode": "SENSE",
  "Modality": "MR",
  "MultibandAccelerationFactor": 4,
  "PartialFourier": 1,
  "PatientPosition": "HFS",
  "PercentPhaseFOV": 100,
  "PercentSampling": 100,
  "PhaseEncodingDirection": "j",
  "PhaseEncodingSteps": 104,
  "PhaseResolution": 1,
  "PixelBandwidth": 2290,
  "ProcedureStepDescription": "games^mariostars",
  "ProtocolName": "func_task-mariostars_run-03",
  "PulseSequenceDetails": "%CustomerSeq%\\cmrr_mbep2d_bold",
  "ReceiveCoilActiveElements": "HC1-7;NC1,2",
  "ReceiveCoilName": "HeadNeck_64",
  "ReconMatrixPE": 104,
  "RepetitionTime": 1.49,
  "SAR": 0.0615729,
  "ScanOptions": "FS",
  "ScanningSequence": "EP",
  "SequenceName": "epfid2d1_104",
  "SequenceVariant": "SK\\SS",
  "SeriesDescription": "func_task-mariostars_run-03",
  "SeriesNumber": 16,
  "ShimSetting": [622, -7192, -8829, 657, 42, 19, -32, -3],
  "SliceThickness": 2,
  "SliceTiming": [0, 0.7825, 0.0975, 0.88, 0.195, 0.98, 0.2925, 1.0775, 0.39, 1.175, 0.49, 1.2725, 0.5875, 1.37, 0.685, 0, 0.7825, 0.0975, 0.88, 0.195, 0.98, 0.2925, 1.0775, 0.39, 1.175, 0.49, 1.2725, 0.5875, 1.37, 0.685, 0, 0.7825, 0.0975, 0.88, 0.195, 0.98, 0.2925, 1.0775, 0.39, 1.175, 0.49, 1.2725, 0.5875, 1.37, 0.685, 0, 0.7825, 0.0975, 0.88, 0.195, 0.98, 0.2925, 1.0775, 0.39, 1.175, 0.49, 1.2725, 0.5875, 1.37, 0.685],
  "SoftwareVersions": "syngo MR E11",
  "SpacingBetweenSlices": 2,
  "StationName": "MRC35049",
  "TaskName": "mariostars",
  "TotalReadoutTime": 0.0576811,
  "TxRefAmp": 297.348,
  "WipMemBlock": "36c5826f-7b34-4365-a5fc-2191ecd75776||Sequence: R016 ve11c/master r/e634e98; Dec 19 2017 11:00:25 by eja",
  "dcmmeta_affine": [
    [-1.9884809255599976, -0.18026606738567352, 0.11596474796533585, 111.7729721069336],
    [-0.21046651899814606, 1.8469756841659546, -0.7378243803977966, -48.1483268737793],
    [0.04058968648314476, 0.7457782030105591, 1.8553078174591064, -69.7302474975586],
    [0.0, 0.0, 0.0, 1.0]
],
  "dcmmeta_reorient_transform": [
    [0.0, -1.0, 0.0, 103.0],
    [1.0, 0.0, 0.0, 0.0],
    [0.0, 0.0, 1.0, 0.0],
    [0.0, 0.0, 0.0, 1.0]
],
  "dcmmeta_shape": [104, 104, 60, 430],
  "dcmmeta_slice_dim": 2,
  "dcmmeta_version": 0.6,
  "global": {
    "const": {
      "AcquisitionMatrix": [104, 0, 0, 104],
      "AngioFlag": "N",
      "BitsAllocated": 16,
      "BitsStored": 16,
      "BodyPartExamined": "BRAIN",
      "Columns": 832,
      "EchoNumbers": 1,
      "EchoTime": 37.0,
      "EchoTrainLength": 104,
      "FlipAngle": 52.0,
      "HighBit": 15,
      "ImageOrientationPatient": [0.9942404542456, 0.10523325739845, 0.020294843651, -0.0901330306522, 0.9234878194548, -0.3728891042979],
      "ImagePositionPatient": [-751.39576997251, -890.99910824415, 263.77352686321],
      "ImageType": [
        "ORIGINAL",
        "PRIMARY",
        "M",
        "MB",
        "ND",
        "MOSAIC"
],
      "ImagedNucleus": "1H",
      "ImagingFrequency": 123.258851,
      "InPlanePhaseEncodingDirection": "COL",
      "MRAcquisitionType": "2D",
      "MagneticFieldStrength": 3.0,
      "Manufacturer": "SIEMENS",
      "ManufacturerModelName": "Prisma_fit",
      "Modality": "MR",
      "NumberOfAverages": 1.0,
      "NumberOfPhaseEncodingSteps": 104,
      "PercentPhaseFieldOfView": 100.0,
      "PercentSampling": 100.0,
      "PerformedProcedureStepStartTime": "165600.304000",
      "PhotometricInterpretation": "MONOCHROME2",
      "PixelBandwidth": 2290.0,
      "PixelRepresentation": 0,
      "PixelSpacing": [2.0, 2.0],
      "ProtocolName": "func_task-mariostars_run-03",
      "RepetitionTime": 1490.0,
      "Rows": 832,
      "SAR": 0.06157288763009,
      "SamplesPerPixel": 1,
      "ScanOptions": "FS",
      "ScanningSequence": "EP",
      "SequenceName": "epfid2d1_104",
      "SequenceVariant": [
        "SK",
        "SS"
],
      "SeriesDescription": "func_task-mariostars_run-03",
      "SeriesNumber": 16,
      "SeriesTime": "180316.419000",
      "SliceLocation": -40.442174333346,
      "SliceThickness": 2.0,
      "SmallestImagePixelValue": 0,
      "SoftwareVersions": "syngo MR E11",
      "SpacingBetweenSlices": 1.9999999789549,
      "SpecificCharacterSet": "ISO_IR 100",
      "StudyID": "1",
      "StudyTime": "165600.251000",
      "TransmitCoilName": "Body",
      "VariableFlipAngleFlag": "N",
      "WindowCenterWidthExplanation": "Algo1",
      "dBdt": 0.0},
    "slices": {}
  },
  "time": {
    "samples": {
      "AcquisitionNumber": [1, 2, 3, 4, 5, 6, 7, 8, 9, 10, 11, 12, 13, 14, 15, 16, 17, 18, 19, 20, 21, 22, 23, 24, 25, 26, 27, 28, 29, 30, 31, 32, 33, 34, 35, 36, 37, 38, 39, 40, 41, 42, 43, 44, 45, 46, 47, 48, 49, 50, 51, 52, 53, 54, 55, 56, 57, 58, 59, 60, 61, 62, 63, 64, 65, 66, 67, 68, 69, 70, 71, 72, 73, 74, 75, 76, 77, 78, 79, 80, 81, 82, 83, 84, 85, 86, 87, 88, 89, 90, 91, 92, 93, 94, 95, 96, 97, 98, 99, 100, 101, 102, 103, 104, 105, 106, 107, 108, 109, 110, 111, 112, 113, 114, 115, 116, 117, 118, 119, 120, 121, 122, 123, 124, 125, 126, 127, 128, 129, 130, 131, 132, 133, 134, 135, 136, 137, 138, 139, 140, 141, 142, 143, 144, 145, 146, 147, 148, 149, 150, 151, 152, 153, 154, 155, 156, 157, 158, 159, 160, 161, 162, 163, 164, 165, 166, 167, 168, 169, 170, 171, 172, 173, 174, 175, 176, 177, 178, 179, 180, 181, 182, 183, 184, 185, 186, 187, 188, 189, 190, 191, 192, 193, 194, 195, 196, 197, 198, 199, 200, 201, 202, 203, 204, 205, 206, 207, 208, 209, 210, 211, 212, 213, 214, 215, 216, 217, 218, 219, 220, 221, 222, 223, 224, 225, 226, 227, 228, 229, 230, 231, 232, 233, 234, 235, 236, 237, 238, 239, 240, 241, 242, 243, 244, 245, 246, 247, 248, 249, 250, 251, 252, 253, 254, 255, 256, 257, 258, 259, 260, 261, 262, 263, 264, 265, 266, 267, 268, 269, 270, 271, 272, 273, 274, 275, 276, 277, 278, 279, 280, 281, 282, 283, 284, 285, 286, 287, 288, 289, 290, 291, 292, 293, 294, 295, 296, 297, 298, 299, 300, 301, 302, 303, 304, 305, 306, 307, 308, 309, 310, 311, 312, 313, 314, 315, 316, 317, 318, 319, 320, 321, 322, 323, 324, 325, 326, 327, 328, 329, 330, 331, 332, 333, 334, 335, 336, 337, 338, 339, 340, 341, 342, 343, 344, 345, 346, 347, 348, 349, 350, 351, 352, 353, 354, 355, 356, 357, 358, 359, 360, 361, 362, 363, 364, 365, 366, 367, 368, 369, 370, 371, 372, 373, 374, 375, 376, 377, 378, 379, 380, 381, 382, 383, 384, 385, 386, 387, 388, 389, 390, 391, 392, 393, 394, 395, 396, 397, 398, 399, 400, 401, 402, 403, 404, 405, 406, 407, 408, 409, 410, 411, 412, 413, 414, 415, 416, 417, 418, 419, 420, 421, 422, 423, 424, 425, 426, 427, 428, 429, 430],
      "AcquisitionTime": ["180155.470000", "180156.960000", "180158.450000", "180159.940000", "180201.430000", "180202.920000", "180204.410000", "180205.900000", "180207.390000", "180208.880000", "180210.370000", "180211.860000", "180213.350000", "180214.840000", "180216.330000", "180217.820000", "180219.310000", "180220.800000", "180222.290000", "180223.780000", "180225.270000", "180226.760000", "180228.250000", "180229.740000", "180231.230000", "180232.720000", "180234.210000", "180235.700000", "180237.190000", "180238.680000", "180240.170000", "180241.660000", "180243.150000", "180244.640000", "180246.130000", "180247.620000", "180249.110000", "180250.600000", "180252.090000", "180253.580000", "180255.070000", "180256.560000", "180258.050000", "180259.540000", "180301.030000", "180302.520000", "180304.010000", "180305.500000", "180306.990000", "180308.480000", "180309.970000", "180311.460000", "180312.950000", "180314.440000", "180315.930000", "180317.420000", "180318.910000", "180320.400000", "180321.890000", "180323.380000", "180324.870000", "180326.360000", "180327.850000", "180329.340000", "180330.830000", "180332.320000", "180333.810000", "180335.300000", "180336.790000", "180338.280000", "180339.770000", "180341.260000", "180342.750000", "180344.240000", "180345.730000", "180347.220000", "180348.710000", "180350.200000", "180351.690000", "180353.180000", "180354.670000", "180356.160000", "180357.650000", "180359.140000", "180400.630000", "180402.120000", "180403.610000", "180405.100000", "180406.590000", "180408.080000", "180409.570000", "180411.060000", "180412.550000", "180414.040000", "180415.530000", "180417.020000", "180418.510000", "180420.000000", "180421.490000", "180422.980000", "180424.470000", "180425.960000", "180427.450000", "180428.940000", "180430.430000", "180431.920000", "180433.410000", "180434.900000", "180436.390000", "180437.880000", "180439.370000", "180440.860000", "180442.350000", "180443.840000", "180445.330000", "180446.820000", "180448.310000", "180449.800000", "180451.290000", "180452.780000", "180454.270000", "180455.760000", "180457.250000", "180458.740000", "180500.230000", "180501.720000", "180503.210000", "180504.700000", "180506.190000", "180507.680000", "180509.170000", "180510.660000", "180512.150000", "180513.640000", "180515.130000", "180516.620000", "180518.110000", "180519.600000", "180521.090000", "180522.580000", "180524.070000", "180525.560000", "180527.050000", "180528.540000", "180530.030000", "180531.520000", "180533.010000", "180534.500000", "180535.990000", "180537.480000", "180538.970000", "180540.460000", "180541.950000", "180543.440000", "180544.930000", "180546.420000", "180547.910000", "180549.400000", "180550.890000", "180552.380000", "180553.870000", "180555.360000", "180556.850000", "180558.340000", "180559.830000", "180601.320000", "180602.810000", "180604.300000", "180605.790000", "180607.280000", "180608.770000", "180610.260000", "180611.750000", "180613.240000", "180614.730000", "180616.220000", "180617.710000", "180619.200000", "180620.690000", "180622.180000", "180623.670000", "180625.160000", "180626.650000", "180628.140000", "180629.630000", "180631.120000", "180632.610000", "180634.100000", "180635.590000", "180637.080000", "180638.570000", "180640.060000", "180641.550000", "180643.040000", "180644.530000", "180646.020000", "180647.510000", "180649.000000", "180650.490000", "180651.980000", "180653.470000", "180654.960000", "180656.450000", "180657.940000", "180659.430000", "180700.920000", "180702.410000", "180703.900000", "180705.390000", "180706.880000", "180708.370000", "180709.860000", "180711.350000", "180712.840000", "180714.330000", "180715.820000", "180717.310000", "180718.800000", "180720.290000", "180721.780000", "180723.270000", "180724.760000", "180726.250000", "180727.740000", "180729.230000", "180730.720000", "180732.210000", "180733.700000", "180735.190000", "180736.680000", "180738.170000", "180739.660000", "180741.150000", "180742.640000", "180744.130000", "180745.620000", "180747.110000", "180748.600000", "180750.090000", "180751.580000", "180753.070000", "180754.560000", "180756.050000", "180757.540000", "180759.030000", "180800.520000", "180802.010000", "180803.500000", "180804.990000", "180806.480000", "180807.970000", "180809.460000", "180810.950000", "180812.440000", "180813.930000", "180815.420000", "180816.910000", "180818.400000", "180819.890000", "180821.380000", "180822.870000", "180824.360000", "180825.850000", "180827.340000", "180828.830000", "180830.320000", "180831.810000", "180833.300000", "180834.790000", "180836.280000", "180837.770000", "180839.260000", "180840.750000", "180842.240000", "180843.730000", "180845.220000", "180846.710000", "180848.200000", "180849.690000", "180851.180000", "180852.670000", "180854.160000", "180855.650000", "180857.140000", "180858.630000", "180900.120000", "180901.610000", "180903.100000", "180904.590000", "180906.080000", "180907.570000", "180909.060000", "180910.550000", "180912.040000", "180913.530000", "180915.020000", "180916.510000", "180918.000000", "180919.490000", "180920.980000", "180922.470000", "180923.960000", "180925.450000", "180926.940000", "180928.430000", "180929.920000", "180931.410000", "180932.900000", "180934.390000", "180935.880000", "180937.370000", "180938.860000", "180940.350000", "180941.840000", "180943.330000", "180944.820000", "180946.310000", "180947.800000", "180949.290000", "180950.780000", "180952.270000", "180953.760000", "180955.250000", "180956.740000", "180958.230000", "180959.720000", "181001.210000", "181002.700000", "181004.190000", "181005.680000", "181007.170000", "181008.660000", "181010.150000", "181011.640000", "181013.130000", "181014.620000", "181016.110000", "181017.600000", "181019.090000", "181020.580000", "181022.070000", "181023.560000", "181025.050000", "181026.540000", "181028.030000", "181029.520000", "181031.010000", "181032.500000", "181033.990000", "181035.480000", "181036.970000", "181038.460000", "181039.950000", "181041.440000", "181042.930000", "181044.420000", "181045.910000", "181047.400000", "181048.890000", "181050.380000", "181051.870000", "181053.360000", "181054.850000", "181056.340000", "181057.830000", "181059.320000", "181100.810000", "181102.300000", "181103.790000", "181105.280000", "181106.770000", "181108.260000", "181109.750000", "181111.240000", "181112.730000", "181114.220000", "181115.710000", "181117.200000", "181118.690000", "181120.180000", "181121.670000", "181123.160000", "181124.650000", "181126.140000", "181127.630000", "181129.120000", "181130.610000", "181132.100000", "181133.590000", "181135.080000", "181136.570000", "181138.060000", "181139.550000", "181141.040000", "181142.530000", "181144.020000", "181145.510000", "181147.000000", "181148.490000", "181149.980000", "181151.470000", "181152.960000", "181154.450000", "181155.940000", "181157.430000", "181158.920000", "181200.410000", "181201.900000", "181203.390000", "181204.880000", "181206.370000", "181207.860000", "181209.350000", "181210.840000", "181212.330000", "181213.820000", "181215.310000", "181216.800000", "181218.290000", "181219.780000", "181221.270000", "181222.760000", "181224.250000", "181225.740000", "181227.230000", "181228.720000", "181230.210000", "181231.700000", "181233.190000", "181234.680000"],
      "ContentTime": ["180316.422000", "180316.426000", "180316.430000", "180316.433000", "180316.437000", "180316.440000", "180316.443000", "180316.447000", "180316.450000", "180316.454000", "180316.457000", "180316.461000", "180316.464000", "180316.467000", "180316.471000", "180316.474000", "180316.477000", "180316.480000", "180316.484000", "180316.487000", "180316.490000", "180316.494000", "180316.497000", "180316.500000", "180336.374000", "180336.378000", "180336.381000", "180336.384000", "180336.388000", "180336.391000", "180336.394000", "180336.398000", "180336.401000", "180336.404000", "180336.408000", "180336.411000", "180336.414000", "180336.417000", "180336.421000", "180336.424000", "180336.427000", "180336.431000", "180336.434000", "180336.437000", "180336.440000", "180356.374000", "180356.378000", "180356.381000", "180356.384000", "180356.388000", "180356.391000", "180356.394000", "180356.397000", "180356.401000", "180356.404000", "180356.407000", "180356.411000", "180356.414000", "180356.417000", "180356.420000", "180356.424000", "180356.427000", "180356.430000", "180356.434000", "180356.437000", "180416.374000", "180416.378000", "180416.381000", "180416.384000", "180416.387000", "180416.391000", "180416.394000", "180416.397000", "180416.401000", "180416.404000", "180416.407000", "180416.411000", "180416.414000", "180416.417000", "180416.420000", "180416.424000", "180416.427000", "180416.430000", "180416.434000", "180416.437000", "180436.389000", "180436.393000", "180436.396000", "180436.399000", "180436.402000", "180436.406000", "180436.409000", "180436.412000", "180436.416000", "180436.419000", "180436.422000", "180436.425000", "180436.429000", "180436.432000", "180436.435000", "180436.439000", "180436.442000", "180436.445000", "180436.449000", "180436.452000", "180436.455000", "180516.375000", "180516.379000", "180516.382000", "180516.385000", "180516.389000", "180516.392000", "180516.395000", "180516.399000", "180516.402000", "180516.405000", "180516.409000", "180516.412000", "180516.415000", "180516.419000", "180516.422000", "180516.425000", "180516.429000", "180516.432000", "180516.435000", "180516.439000", "180516.442000", "180516.445000", "180516.448000", "180516.452000", "180516.455000", "180516.465000", "180516.468000", "180516.471000", "180556.374000", "180556.378000", "180556.381000", "180556.384000", "180556.388000", "180556.391000", "180556.394000", "180556.398000", "180556.401000", "180556.404000", "180556.408000", "180556.411000", "180556.416000", "180556.419000", "180556.422000", "180556.426000", "180556.429000", "180556.433000", "180556.436000", "180556.439000", "180556.443000", "180556.446000", "180556.449000", "180556.453000", "180556.456000", "180556.459000", "180636.374000", "180636.378000", "180636.381000", "180636.384000", "180636.388000", "180636.391000", "180636.394000", "180636.398000", "180636.401000", "180636.404000", "180636.408000", "180636.411000", "180636.414000", "180636.418000", "180636.421000", "180636.424000", "180636.428000", "180636.431000", "180636.434000", "180636.438000", "180636.441000", "180636.444000", "180636.448000", "180636.451000", "180636.454000", "180636.458000", "180636.461000", "180716.375000", "180716.379000", "180716.382000", "180716.385000", "180716.389000", "180716.392000", "180716.395000", "180716.399000", "180716.402000", "180716.405000", "180716.408000", "180716.412000", "180716.415000", "180716.418000", "180716.422000", "180716.425000", "180716.429000", "180716.432000", "180716.435000", "180716.439000", "180716.442000", "180716.445000", "180716.449000", "180716.452000", "180716.455000", "180716.459000", "180716.462000", "180756.374000", "180756.378000", "180756.381000", "180756.385000", "180756.388000", "180756.391000", "180756.395000", "180756.398000", "180756.401000", "180756.405000", "180756.408000", "180756.411000", "180756.415000", "180756.418000", "180756.421000", "180756.425000", "180756.428000", "180756.431000", "180756.434000", "180756.438000", "180756.441000", "180756.445000", "180756.448000", "180756.451000", "180756.455000", "180756.458000", "180756.461000", "180836.374000", "180836.378000", "180836.381000", "180836.385000", "180836.388000", "180836.391000", "180836.395000", "180836.398000", "180836.401000", "180836.405000", "180836.408000", "180836.411000", "180836.414000", "180836.418000", "180836.421000", "180836.425000", "180836.428000", "180836.431000", "180836.434000", "180836.438000", "180836.441000", "180836.445000", "180836.448000", "180836.451000", "180836.455000", "180836.458000", "180836.461000", "180916.374000", "180916.378000", "180916.381000", "180916.384000", "180916.388000", "180916.391000", "180916.395000", "180916.398000", "180916.401000", "180916.404000", "180916.408000", "180916.411000", "180916.424000", "180916.428000", "180916.431000", "180916.434000", "180916.438000", "180916.441000", "180916.444000", "180916.448000", "180916.451000", "180916.454000", "180916.458000", "180916.461000", "180916.464000", "180916.467000", "180916.471000", "180956.375000", "180956.379000", "180956.382000", "180956.385000", "180956.389000", "180956.392000", "180956.396000", "180956.399000", "180956.402000", "180956.405000", "180956.409000", "180956.412000", "180956.416000", "180956.419000", "180956.422000", "180956.425000", "180956.429000", "180956.432000", "180956.435000", "180956.439000", "180956.442000", "180956.445000", "180956.449000", "180956.452000", "180956.455000", "180956.458000", "180956.462000", "181036.374000", "181036.378000", "181036.381000", "181036.384000", "181036.388000", "181036.391000", "181036.395000", "181036.398000", "181036.401000", "181036.406000", "181036.409000", "181036.413000", "181036.416000", "181036.419000", "181036.423000", "181036.426000", "181036.429000", "181036.433000", "181036.436000", "181036.439000", "181036.443000", "181036.446000", "181036.449000", "181036.453000", "181036.456000", "181036.460000", "181116.374000", "181116.378000", "181116.381000", "181116.385000", "181116.388000", "181116.391000", "181116.394000", "181116.398000", "181116.401000", "181116.405000", "181116.408000", "181116.411000", "181116.415000", "181116.418000", "181116.421000", "181116.425000", "181116.428000", "181116.431000", "181116.435000", "181116.438000", "181116.441000", "181116.445000", "181116.448000", "181116.451000", "181116.455000", "181116.458000", "181116.461000", "181156.375000", "181156.379000", "181156.382000", "181156.386000", "181156.389000", "181156.392000", "181156.396000", "181156.399000", "181156.402000", "181156.406000", "181156.409000", "181156.412000", "181156.415000", "181156.419000", "181156.422000", "181156.425000", "181156.429000", "181156.433000", "181156.436000", "181156.439000", "181156.443000", "181156.446000", "181156.449000", "181156.453000", "181156.456000", "181156.459000", "181156.463000", "181236.374000", "181236.378000", "181236.381000", "181236.385000", "181236.388000", "181236.391000", "181236.395000", "181236.398000", "181236.401000", "181236.404000", "181236.408000", "181236.411000", "181236.414000", "181236.418000", "181236.421000", "181236.424000", "181236.428000", "181236.431000", "181236.434000", "181236.438000", "181236.441000", "181236.444000", "181236.448000", "181236.451000", "181236.454000", "181236.457000", "181236.461000", "181237.643000"],
      "InstanceCreationTime": ["180316.422000", "180316.426000", "180316.430000", "180316.433000", "180316.437000", "180316.440000", "180316.443000", "180316.447000", "180316.450000", "180316.454000", "180316.457000", "180316.461000", "180316.464000", "180316.467000", "180316.471000", "180316.474000", "180316.477000", "180316.480000", "180316.484000", "180316.487000", "180316.490000", "180316.494000", "180316.497000", "180316.500000", "180336.374000", "180336.378000", "180336.381000", "180336.384000", "180336.388000", "180336.391000", "180336.394000", "180336.398000", "180336.401000", "180336.404000", "180336.408000", "180336.411000", "180336.414000", "180336.417000", "180336.421000", "180336.424000", "180336.427000", "180336.431000", "180336.434000", "180336.437000", "180336.440000", "180356.374000", "180356.378000", "180356.381000", "180356.384000", "180356.388000", "180356.391000", "180356.394000", "180356.397000", "180356.401000", "180356.404000", "180356.407000", "180356.411000", "180356.414000", "180356.417000", "180356.420000", "180356.424000", "180356.427000", "180356.430000", "180356.434000", "180356.437000", "180416.374000", "180416.378000", "180416.381000", "180416.384000", "180416.387000", "180416.391000", "180416.394000", "180416.397000", "180416.401000", "180416.404000", "180416.407000", "180416.411000", "180416.414000", "180416.417000", "180416.420000", "180416.424000", "180416.427000", "180416.430000", "180416.434000", "180416.437000", "180436.389000", "180436.393000", "180436.396000", "180436.399000", "180436.402000", "180436.406000", "180436.409000", "180436.412000", "180436.416000", "180436.419000", "180436.422000", "180436.425000", "180436.429000", "180436.432000", "180436.435000", "180436.439000", "180436.442000", "180436.445000", "180436.449000", "180436.452000", "180436.455000", "180516.375000", "180516.379000", "180516.382000", "180516.385000", "180516.389000", "180516.392000", "180516.395000", "180516.399000", "180516.402000", "180516.405000", "180516.409000", "180516.412000", "180516.415000", "180516.419000", "180516.422000", "180516.425000", "180516.429000", "180516.432000", "180516.435000", "180516.439000", "180516.442000", "180516.445000", "180516.448000", "180516.452000", "180516.455000", "180516.465000", "180516.468000", "180516.471000", "180556.374000", "180556.378000", "180556.381000", "180556.384000", "180556.388000", "180556.391000", "180556.394000", "180556.398000", "180556.401000", "180556.404000", "180556.408000", "180556.411000", "180556.416000", "180556.419000", "180556.422000", "180556.426000", "180556.429000", "180556.433000", "180556.436000", "180556.439000", "180556.443000", "180556.446000", "180556.449000", "180556.453000", "180556.456000", "180556.459000", "180636.374000", "180636.378000", "180636.381000", "180636.384000", "180636.388000", "180636.391000", "180636.394000", "180636.398000", "180636.401000", "180636.404000", "180636.408000", "180636.411000", "180636.414000", "180636.418000", "180636.421000", "180636.424000", "180636.428000", "180636.431000", "180636.434000", "180636.438000", "180636.441000", "180636.444000", "180636.448000", "180636.451000", "180636.454000", "180636.458000", "180636.461000", "180716.375000", "180716.379000", "180716.382000", "180716.385000", "180716.389000", "180716.392000", "180716.395000", "180716.399000", "180716.402000", "180716.405000", "180716.408000", "180716.412000", "180716.415000", "180716.418000", "180716.422000", "180716.425000", "180716.429000", "180716.432000", "180716.435000", "180716.439000", "180716.442000", "180716.445000", "180716.449000", "180716.452000", "180716.455000", "180716.459000", "180716.462000", "180756.374000", "180756.378000", "180756.381000", "180756.385000", "180756.388000", "180756.391000", "180756.395000", "180756.398000", "180756.401000", "180756.405000", "180756.408000", "180756.411000", "180756.415000", "180756.418000", "180756.421000", "180756.425000", "180756.428000", "180756.431000", "180756.434000", "180756.438000", "180756.441000", "180756.445000", "180756.448000", "180756.451000", "180756.455000", "180756.458000", "180756.461000", "180836.374000", "180836.378000", "180836.381000", "180836.385000", "180836.388000", "180836.391000", "180836.395000", "180836.398000", "180836.401000", "180836.405000", "180836.408000", "180836.411000", "180836.414000", "180836.418000", "180836.421000", "180836.425000", "180836.428000", "180836.431000", "180836.434000", "180836.438000", "180836.441000", "180836.445000", "180836.448000", "180836.451000", "180836.455000", "180836.458000", "180836.461000", "180916.374000", "180916.378000", "180916.381000", "180916.384000", "180916.388000", "180916.391000", "180916.395000", "180916.398000", "180916.401000", "180916.404000", "180916.408000", "180916.411000", "180916.424000", "180916.428000", "180916.431000", "180916.434000", "180916.438000", "180916.441000", "180916.444000", "180916.448000", "180916.451000", "180916.454000", "180916.458000", "180916.461000", "180916.464000", "180916.467000", "180916.471000", "180956.375000", "180956.379000", "180956.382000", "180956.385000", "180956.389000", "180956.392000", "180956.396000", "180956.399000", "180956.402000", "180956.405000", "180956.409000", "180956.412000", "180956.416000", "180956.419000", "180956.422000", "180956.425000", "180956.429000", "180956.432000", "180956.435000", "180956.439000", "180956.442000", "180956.445000", "180956.449000", "180956.452000", "180956.455000", "180956.458000", "180956.462000", "181036.374000", "181036.378000", "181036.381000", "181036.384000", "181036.388000", "181036.391000", "181036.395000", "181036.398000", "181036.401000", "181036.406000", "181036.409000", "181036.413000", "181036.416000", "181036.419000", "181036.423000", "181036.426000", "181036.429000", "181036.433000", "181036.436000", "181036.439000", "181036.443000", "181036.446000", "181036.449000", "181036.453000", "181036.456000", "181036.460000", "181116.374000", "181116.378000", "181116.381000", "181116.385000", "181116.388000", "181116.391000", "181116.394000", "181116.398000", "181116.401000", "181116.405000", "181116.408000", "181116.411000", "181116.415000", "181116.418000", "181116.421000", "181116.425000", "181116.428000", "181116.431000", "181116.435000", "181116.438000", "181116.441000", "181116.445000", "181116.448000", "181116.451000", "181116.455000", "181116.458000", "181116.461000", "181156.375000", "181156.379000", "181156.382000", "181156.386000", "181156.389000", "181156.392000", "181156.396000", "181156.399000", "181156.402000", "181156.406000", "181156.409000", "181156.412000", "181156.415000", "181156.419000", "181156.422000", "181156.425000", "181156.429000", "181156.433000", "181156.436000", "181156.439000", "181156.443000", "181156.446000", "181156.449000", "181156.453000", "181156.456000", "181156.459000", "181156.463000", "181236.374000", "181236.378000", "181236.381000", "181236.385000", "181236.388000", "181236.391000", "181236.395000", "181236.398000", "181236.401000", "181236.404000", "181236.408000", "181236.411000", "181236.414000", "181236.418000", "181236.421000", "181236.424000", "181236.428000", "181236.431000", "181236.434000", "181236.438000", "181236.441000", "181236.444000", "181236.448000", "181236.451000", "181236.454000", "181236.457000", "181236.461000", "181237.643000"],
