{
  "AcquisitionMatrixPE": 104,
  "AcquisitionNumber": 1,
  "AcquisitionTime": "18:14:5.710000",
  "BandwidthPerPixelPhaseEncode": 17.17,
  "BaseResolution": 104,
  "BodyPartExamined": "BRAIN",
  "CoilCombinationMethod": "Sum of Squares",
  "ConsistencyInfo": "N4_VE11C_LATEST_20160120",
  "ConversionSoftware": "dcm2niix",
  "ConversionSoftwareVersion": "v1.0.20211006",
  "DerivedVendorReportedEchoSpacing": 0.000560011,
  "DeviceSerialNumber": "167006",
  "DwellTime": 2.1e-06,
  "EchoTime": 0.037,
  "EchoTrainLength": 104,
  "EffectiveEchoSpacing": 0.000560011,
  "FlipAngle": 52,
  "HeudiconvVersion": "0.11.3.post9+gc939bf8",
  "ImageComments": "Unaliased MB4/PE3/LB",
  "ImageOrientationPatientDICOM": [0.99424, 0.105233, 0.0202948, -0.090133, 0.923488, -0.372889],
  "ImageOrientationText": "Tra>Cor(-21.7)>Sag(3.3)",
  "ImageType": [
    "ORIGINAL",
    "PRIMARY",
    "M",
    "MB",
    "ND",
    "MOSAIC"
],
  "ImagingFrequency": 123.259,
  "InPlanePhaseEncodingDirectionDICOM": "COL",
  "InstitutionAddress": "Chemin Queen-Mary 4565,Montreal,District,CA,H3W 1W5",
  "InstitutionName": "IUGM",
  "InstitutionalDepartmentName": "Department",
  "MRAcquisitionType": "2D",
  "MagneticFieldStrength": 3,
  "Manufacturer": "Siemens",
  "ManufacturersModelName": "Prisma_fit",
  "MatrixCoilMode": "SENSE",
  "Modality": "MR",
  "MultibandAccelerationFactor": 4,
  "PartialFourier": 1,
  "PatientPosition": "HFS",
  "PercentPhaseFOV": 100,
  "PercentSampling": 100,
  "PhaseEncodingDirection": "j",
  "PhaseEncodingSteps": 104,
  "PhaseResolution": 1,
  "PixelBandwidth": 2290,
  "ProcedureStepDescription": "games^mariostars",
  "ProtocolName": "func_task-mariostars_run-04",
  "PulseSequenceDetails": "%CustomerSeq%\\cmrr_mbep2d_bold",
  "ReceiveCoilActiveElements": "HC1-7;NC1,2",
  "ReceiveCoilName": "HeadNeck_64",
  "ReconMatrixPE": 104,
  "RepetitionTime": 1.49,
  "SAR": 0.0615729,
  "ScanOptions": "FS",
  "ScanningSequence": "EP",
  "SequenceName": "epfid2d1_104",
  "SequenceVariant": "SK\\SS",
  "SeriesDescription": "func_task-mariostars_run-04",
  "SeriesNumber": 19,
  "ShimSetting": [622, -7192, -8829, 657, 42, 19, -32, -3],
  "SliceThickness": 2,
  "SliceTiming": [0, 0.7825, 0.0975, 0.8825, 0.195, 0.98, 0.2925, 1.0775, 0.3925, 1.175, 0.49, 1.2725, 0.5875, 1.3725, 0.685, 0, 0.7825, 0.0975, 0.8825, 0.195, 0.98, 0.2925, 1.0775, 0.3925, 1.175, 0.49, 1.2725, 0.5875, 1.3725, 0.685, 0, 0.7825, 0.0975, 0.8825, 0.195, 0.98, 0.2925, 1.0775, 0.3925, 1.175, 0.49, 1.2725, 0.5875, 1.3725, 0.685, 0, 0.7825, 0.0975, 0.8825, 0.195, 0.98, 0.2925, 1.0775, 0.3925, 1.175, 0.49, 1.2725, 0.5875, 1.3725, 0.685],
  "SoftwareVersions": "syngo MR E11",
  "SpacingBetweenSlices": 2,
  "StationName": "MRC35049",
  "TaskName": "mariostars",
  "TotalReadoutTime": 0.0576811,
  "TxRefAmp": 297.348,
  "WipMemBlock": "6cbf3bb2-e5c6-46cf-9455-555da5280c3e||Sequence: R016 ve11c/master r/e634e98; Dec 19 2017 11:00:25 by eja",
  "dcmmeta_affine": [
    [-1.9884809255599976, -0.18026606738567352, 0.11596474796533585, 111.7729721069336],
    [-0.21046651899814606, 1.8469756841659546, -0.7378243803977966, -48.1483268737793],
    [0.04058968648314476, 0.7457782030105591, 1.8553078174591064, -69.7302474975586],
    [0.0, 0.0, 0.0, 1.0]
],
  "dcmmeta_reorient_transform": [
    [0.0, -1.0, 0.0, 103.0],
    [1.0, 0.0, 0.0, 0.0],
    [0.0, 0.0, 1.0, 0.0],
    [0.0, 0.0, 0.0, 1.0]
],
  "dcmmeta_shape": [104, 104, 60, 456],
  "dcmmeta_slice_dim": 2,
  "dcmmeta_version": 0.6,
  "global": {
    "const": {
      "AcquisitionMatrix": [104, 0, 0, 104],
      "AngioFlag": "N",
      "BitsAllocated": 16,
      "BitsStored": 16,
      "BodyPartExamined": "BRAIN",
      "Columns": 832,
      "EchoNumbers": 1,
      "EchoTime": 37.0,
      "EchoTrainLength": 104,
      "FlipAngle": 52.0,
      "HighBit": 15,
      "ImageOrientationPatient": [0.9942404542456, 0.10523325739845, 0.020294843651, -0.0901330306522, 0.9234878194548, -0.3728891042979],
      "ImagePositionPatient": [-751.39576997251, -890.99910824415, 263.77352686321],
      "ImageType": [
        "ORIGINAL",
        "PRIMARY",
        "M",
        "MB",
        "ND",
        "MOSAIC"
],
      "ImagedNucleus": "1H",
      "ImagingFrequency": 123.258856,
      "InPlanePhaseEncodingDirection": "COL",
      "MRAcquisitionType": "2D",
      "MagneticFieldStrength": 3.0,
      "Manufacturer": "SIEMENS",
      "ManufacturerModelName": "Prisma_fit",
      "Modality": "MR",
      "NumberOfAverages": 1.0,
      "NumberOfPhaseEncodingSteps": 104,
      "PercentPhaseFieldOfView": 100.0,
      "PercentSampling": 100.0,
      "PerformedProcedureStepStartTime": "165600.304000",
      "PhotometricInterpretation": "MONOCHROME2",
      "PixelBandwidth": 2290.0,
      "PixelRepresentation": 0,
      "PixelSpacing": [2.0, 2.0],
      "ProtocolName": "func_task-mariostars_run-04",
      "RepetitionTime": 1490.0,
      "Rows": 832,
      "SAR": 0.06157288763009,
      "SamplesPerPixel": 1,
      "ScanOptions": "FS",
      "ScanningSequence": "EP",
      "SequenceName": "epfid2d1_104",
      "SequenceVariant": [
        "SK",
        "SS"
],
      "SeriesDescription": "func_task-mariostars_run-04",
      "SeriesNumber": 19,
      "SeriesTime": "181531.123000",
      "SliceLocation": -40.442174333346,
      "SliceThickness": 2.0,
      "SmallestImagePixelValue": 0,
      "SoftwareVersions": "syngo MR E11",
      "SpacingBetweenSlices": 1.9999999789549,
      "SpecificCharacterSet": "ISO_IR 100",
      "StudyID": "1",
      "StudyTime": "165600.251000",
      "TransmitCoilName": "Body",
      "VariableFlipAngleFlag": "N",
      "WindowCenterWidthExplanation": "Algo1",
      "dBdt": 0.0},
    "slices": {}
  },
  "time": {
    "samples": {
      "AcquisitionNumber": [1, 2, 3, 4, 5, 6, 7, 8, 9, 10, 11, 12, 13, 14, 15, 16, 17, 18, 19, 20, 21, 22, 23, 24, 25, 26, 27, 28, 29, 30, 31, 32, 33, 34, 35, 36, 37, 38, 39, 40, 41, 42, 43, 44, 45, 46, 47, 48, 49, 50, 51, 52, 53, 54, 55, 56, 57, 58, 59, 60, 61, 62, 63, 64, 65, 66, 67, 68, 69, 70, 71, 72, 73, 74, 75, 76, 77, 78, 79, 80, 81, 82, 83, 84, 85, 86, 87, 88, 89, 90, 91, 92, 93, 94, 95, 96, 97, 98, 99, 100, 101, 102, 103, 104, 105, 106, 107, 108, 109, 110, 111, 112, 113, 114, 115, 116, 117, 118, 119, 120, 121, 122, 123, 124, 125, 126, 127, 128, 129, 130, 131, 132, 133, 134, 135, 136, 137, 138, 139, 140, 141, 142, 143, 144, 145, 146, 147, 148, 149, 150, 151, 152, 153, 154, 155, 156, 157, 158, 159, 160, 161, 162, 163, 164, 165, 166, 167, 168, 169, 170, 171, 172, 173, 174, 175, 176, 177, 178, 179, 180, 181, 182, 183, 184, 185, 186, 187, 188, 189, 190, 191, 192, 193, 194, 195, 196, 197, 198, 199, 200, 201, 202, 203, 204, 205, 206, 207, 208, 209, 210, 211, 212, 213, 214, 215, 216, 217, 218, 219, 220, 221, 222, 223, 224, 225, 226, 227, 228, 229, 230, 231, 232, 233, 234, 235, 236, 237, 238, 239, 240, 241, 242, 243, 244, 245, 246, 247, 248, 249, 250, 251, 252, 253, 254, 255, 256, 257, 258, 259, 260, 261, 262, 263, 264, 265, 266, 267, 268, 269, 270, 271, 272, 273, 274, 275, 276, 277, 278, 279, 280, 281, 282, 283, 284, 285, 286, 287, 288, 289, 290, 291, 292, 293, 294, 295, 296, 297, 298, 299, 300, 301, 302, 303, 304, 305, 306, 307, 308, 309, 310, 311, 312, 313, 314, 315, 316, 317, 318, 319, 320, 321, 322, 323, 324, 325, 326, 327, 328, 329, 330, 331, 332, 333, 334, 335, 336, 337, 338, 339, 340, 341, 342, 343, 344, 345, 346, 347, 348, 349, 350, 351, 352, 353, 354, 355, 356, 357, 358, 359, 360, 361, 362, 363, 364, 365, 366, 367, 368, 369, 370, 371, 372, 373, 374, 375, 376, 377, 378, 379, 380, 381, 382, 383, 384, 385, 386, 387, 388, 389, 390, 391, 392, 393, 394, 395, 396, 397, 398, 399, 400, 401, 402, 403, 404, 405, 406, 407, 408, 409, 410, 411, 412, 413, 414, 415, 416, 417, 418, 419, 420, 421, 422, 423, 424, 425, 426, 427, 428, 429, 430, 431, 432, 433, 434, 435, 436, 437, 438, 439, 440, 441, 442, 443, 444, 445, 446, 447, 448, 449, 450, 451, 452, 453, 454, 455, 456],
      "AcquisitionTime": ["181405.710000", "181407.200000", "181408.690000", "181410.180000", "181411.670000", "181413.160000", "181414.650000", "181416.140000", "181417.630000", "181419.120000", "181420.610000", "181422.100000", "181423.590000", "181425.080000", "181426.570000", "181428.060000", "181429.550000", "181431.040000", "181432.530000", "181434.020000", "181435.510000", "181437.000000", "181438.490000", "181439.980000", "181441.470000", "181442.960000", "181444.450000", "181445.940000", "181447.430000", "181448.920000", "181450.410000", "181451.900000", "181453.390000", "181454.880000", "181456.370000", "181457.860000", "181459.350000", "181500.840000", "181502.330000", "181503.820000", "181505.310000", "181506.800000", "181508.290000", "181509.780000", "181511.270000", "181512.760000", "181514.250000", "181515.740000", "181517.230000", "181518.720000", "181520.210000", "181521.700000", "181523.190000", "181524.680000", "181526.170000", "181527.660000", "181529.150000", "181530.640000", "181532.130000", "181533.620000", "181535.110000", "181536.600000", "181538.090000", "181539.580000", "181541.070000", "181542.560000", "181544.050000", "181545.540000", "181547.030000", "181548.520000", "181550.010000", "181551.500000", "181552.990000", "181554.480000", "181555.970000", "181557.460000", "181558.950000", "181600.440000", "181601.930000", "181603.420000", "181604.910000", "181606.400000", "181607.890000", "181609.380000", "181610.870000", "181612.360000", "181613.850000", "181615.340000", "181616.830000", "181618.320000", "181619.810000", "181621.300000", "181622.790000", "181624.280000", "181625.770000", "181627.260000", "181628.750000", "181630.240000", "181631.730000", "181633.220000", "181634.710000", "181636.200000", "181637.690000", "181639.180000", "181640.670000", "181642.160000", "181643.650000", "181645.140000", "181646.630000", "181648.120000", "181649.610000", "181651.100000", "181652.590000", "181654.080000", "181655.570000", "181657.060000", "181658.550000", "181700.040000", "181701.530000", "181703.020000", "181704.510000", "181706.000000", "181707.490000", "181708.980000", "181710.470000", "181711.960000", "181713.450000", "181714.940000", "181716.430000", "181717.920000", "181719.410000", "181720.900000", "181722.390000", "181723.880000", "181725.370000", "181726.860000", "181728.350000", "181729.840000", "181731.330000", "181732.820000", "181734.310000", "181735.800000", "181737.290000", "181738.780000", "181740.270000", "181741.760000", "181743.250000", "181744.740000", "181746.230000", "181747.720000", "181749.210000", "181750.700000", "181752.190000", "181753.680000", "181755.170000", "181756.660000", "181758.150000", "181759.640000", "181801.130000", "181802.620000", "181804.110000", "181805.600000", "181807.090000", "181808.580000", "181810.070000", "181811.560000", "181813.050000", "181814.540000", "181816.030000", "181817.520000", "181819.010000", "181820.500000", "181821.990000", "181823.480000", "181824.970000", "181826.460000", "181827.950000", "181829.440000", "181830.930000", "181832.420000", "181833.910000", "181835.400000", "181836.890000", "181838.380000", "181839.870000", "181841.360000", "181842.850000", "181844.340000", "181845.830000", "181847.320000", "181848.810000", "181850.300000", "181851.790000", "181853.280000", "181854.770000", "181856.260000", "181857.750000", "181859.240000", "181900.730000", "181902.220000", "181903.710000", "181905.200000", "181906.690000", "181908.180000", "181909.670000", "181911.160000", "181912.650000", "181914.140000", "181915.630000", "181917.120000", "181918.610000", "181920.100000", "181921.590000", "181923.080000", "181924.570000", "181926.060000", "181927.550000", "181929.040000", "181930.530000", "181932.020000", "181933.510000", "181935.000000", "181936.490000", "181937.980000", "181939.470000", "181940.960000", "181942.450000", "181943.940000", "181945.430000", "181946.920000", "181948.410000", "181949.900000", "181951.390000", "181952.880000", "181954.370000", "181955.860000", "181957.350000", "181958.840000", "182000.330000", "182001.820000", "182003.310000", "182004.800000", "182006.290000", "182007.780000", "182009.270000", "182010.760000", "182012.250000", "182013.740000", "182015.230000", "182016.720000", "182018.210000", "182019.700000", "182021.190000", "182022.680000", "182024.170000", "182025.660000", "182027.150000", "182028.640000", "182030.130000", "182031.620000", "182033.110000", "182034.600000", "182036.090000", "182037.580000", "182039.070000", "182040.560000", "182042.050000", "182043.540000", "182045.030000", "182046.520000", "182048.010000", "182049.500000", "182050.990000", "182052.480000", "182053.970000", "182055.460000", "182056.950000", "182058.440000", "182059.930000", "182101.420000", "182102.910000", "182104.400000", "182105.890000", "182107.380000", "182108.870000", "182110.360000", "182111.850000", "182113.340000", "182114.830000", "182116.320000", "182117.810000", "182119.300000", "182120.790000", "182122.280000", "182123.770000", "182125.260000", "182126.750000", "182128.240000", "182129.730000", "182131.220000", "182132.710000", "182134.200000", "182135.690000", "182137.180000", "182138.670000", "182140.160000", "182141.650000", "182143.140000", "182144.630000", "182146.120000", "182147.610000", "182149.100000", "182150.590000", "182152.080000", "182153.570000", "182155.060000", "182156.550000", "182158.040000", "182159.530000", "182201.020000", "182202.510000", "182204.000000", "182205.490000", "182206.980000", "182208.470000", "182209.960000", "182211.450000", "182212.940000", "182214.430000", "182215.920000", "182217.410000", "182218.900000", "182220.390000", "182221.880000", "182223.370000", "182224.860000", "182226.350000", "182227.840000", "182229.330000", "182230.820000", "182232.310000", "182233.800000", "182235.290000", "182236.780000", "182238.270000", "182239.760000", "182241.250000", "182242.740000", "182244.230000", "182245.720000", "182247.210000", "182248.700000", "182250.190000", "182251.680000", "182253.170000", "182254.660000", "182256.150000", "182257.640000", "182259.130000", "182300.620000", "182302.110000", "182303.600000", "182305.090000", "182306.580000", "182308.070000", "182309.560000", "182311.050000", "182312.540000", "182314.030000", "182315.520000", "182317.010000", "182318.500000", "182319.990000", "182321.480000", "182322.970000", "182324.460000", "182325.950000", "182327.440000", "182328.930000", "182330.420000", "182331.910000", "182333.400000", "182334.890000", "182336.380000", "182337.870000", "182339.360000", "182340.850000", "182342.340000", "182343.830000", "182345.320000", "182346.810000", "182348.300000", "182349.790000", "182351.280000", "182352.770000", "182354.260000", "182355.750000", "182357.240000", "182358.730000", "182400.220000", "182401.710000", "182403.200000", "182404.690000", "182406.180000", "182407.670000", "182409.160000", "182410.650000", "182412.140000", "182413.630000", "182415.120000", "182416.610000", "182418.100000", "182419.590000", "182421.080000", "182422.570000", "182424.060000", "182425.550000", "182427.040000", "182428.530000", "182430.020000", "182431.510000", "182433.000000", "182434.490000", "182435.980000", "182437.470000", "182438.960000", "182440.450000", "182441.940000", "182443.430000", "182444.920000", "182446.410000", "182447.900000", "182449.390000", "182450.880000", "182452.370000", "182453.860000", "182455.350000", "182456.840000", "182458.330000", "182459.820000", "182501.310000", "182502.800000", "182504.290000", "182505.780000", "182507.270000", "182508.760000", "182510.250000", "182511.740000", "182513.230000", "182514.720000", "182516.210000", "182517.700000", "182519.190000", "182520.680000", "182522.170000", "182523.660000"],
      "ContentTime": ["181531.126000", "181531.130000", "181531.134000", "181531.137000", "181531.140000", "181531.143000", "181531.147000", "181531.150000", "181531.153000", "181531.157000", "181531.160000", "181531.163000", "181531.167000", "181531.170000", "181531.173000", "181531.177000", "181531.180000", "181531.183000", "181531.186000", "181531.190000", "181531.193000", "181531.196000", "181531.200000", "181531.203000", "181531.206000", "181531.209000", "181531.213000", "181531.221000", "181531.224000", "181531.241000", "181531.245000", "181531.248000", "181531.251000", "181551.089000", "181551.093000", "181551.096000", "181551.099000", "181551.103000", "181551.106000", "181551.109000", "181551.113000", "181551.116000", "181551.119000", "181551.122000", "181551.126000", "181551.129000", "181551.132000", "181551.136000", "181551.139000", "181551.142000", "181551.146000", "181551.149000", "181551.153000", "181611.089000", "181611.093000", "181611.096000", "181611.099000", "181611.103000", "181611.106000", "181611.109000", "181611.113000", "181611.116000", "181611.120000", "181611.123000", "181611.126000", "181611.130000", "181611.133000", "181611.136000", "181611.140000", "181611.143000", "181611.146000", "181611.150000", "181611.153000", "181631.089000", "181631.093000", "181631.096000", "181631.099000", "181631.108000", "181631.112000", "181631.115000", "181631.118000", "181631.122000", "181631.125000", "181631.128000", "181631.131000", "181631.135000", "181631.138000", "181631.142000", "181631.145000", "181631.148000", "181631.152000", "181631.155000", "181631.158000", "181631.162000", "181711.090000", "181711.094000", "181711.097000", "181711.100000", "181711.104000", "181711.107000", "181711.110000", "181711.114000", "181711.117000", "181711.120000", "181711.123000", "181711.127000", "181711.130000", "181711.133000", "181711.137000", "181711.140000", "181711.144000", "181711.147000", "181711.150000", "181711.153000", "181711.157000", "181711.160000", "181711.163000", "181711.167000", "181711.170000", "181711.173000", "181711.177000", "181711.180000", "181711.184000", "181711.187000", "181751.089000", "181751.105000", "181751.109000", "181751.112000", "181751.115000", "181751.119000", "181751.122000", "181751.125000", "181751.129000", "181751.132000", "181751.135000", "181751.139000", "181751.142000", "181751.145000", "181751.148000", "181751.152000", "181751.155000", "181751.158000", "181751.162000", "181751.165000", "181751.168000", "181751.172000", "181751.175000", "181751.178000", "181751.182000", "181751.185000", "181751.188000", "181831.089000", "181831.093000", "181831.096000", "181831.100000", "181831.103000", "181831.106000", "181831.110000", "181831.118000", "181831.122000", "181831.125000", "181831.128000", "181831.132000", "181831.135000", "181831.139000", "181831.142000", "181831.146000", "181831.149000", "181831.153000", "181831.156000", "181831.159000", "181831.163000", "181831.166000", "181831.169000", "181831.173000", "181831.176000", "181831.179000", "181851.089000", "181851.093000", "181851.096000", "181851.099000", "181851.103000", "181851.106000", "181851.109000", "181851.113000", "181851.116000", "181851.119000", "181851.122000", "181851.126000", "181851.129000", "181851.132000", "181931.090000", "181931.094000", "181931.097000", "181931.101000", "181931.104000", "181931.107000", "181931.111000", "181931.114000", "181931.117000", "181931.121000", "181931.124000", "181931.127000", "181931.131000", "181931.134000", "181931.137000", "181931.140000", "181931.144000", "181931.147000", "181931.151000", "181931.154000", "181931.157000", "181931.160000", "181931.164000", "181931.167000", "181931.170000", "181931.174000", "181931.177000", "182011.089000", "182011.093000", "182011.096000", "182011.099000", "182011.103000", "182011.106000", "182011.109000", "182011.113000", "182011.116000", "182011.128000", "182011.131000", "182011.135000", "182011.138000", "182011.141000", "182011.145000", "182011.148000", "182011.151000", "182011.155000", "182011.158000", "182011.161000", "182011.164000", "182011.168000", "182011.171000", "182011.174000", "182011.178000", "182011.181000", "182011.184000", "182051.089000", "182051.093000", "182051.096000", "182051.100000", "182051.103000", "182051.106000", "182051.109000", "182051.113000", "182051.116000", "182051.120000", "182051.123000", "182051.127000", "182051.130000", "182051.133000", "182051.137000", "182051.140000", "182051.143000", "182051.147000", "182051.150000", "182051.153000", "182051.157000", "182051.160000", "182051.163000", "182051.167000", "182051.170000", "182051.173000", "182131.089000", "182131.093000", "182131.097000", "182131.100000", "182131.103000", "182131.106000", "182131.110000", "182131.113000", "182131.116000", "182131.120000", "182131.123000", "182131.126000", "182131.130000", "182131.133000", "182131.136000", "182131.140000", "182131.143000", "182131.146000", "182131.150000", "182131.153000", "182131.156000", "182131.160000", "182131.163000", "182131.166000", "182131.170000", "182131.173000", "182131.226000", "182211.090000", "182211.094000", "182211.097000", "182211.100000", "182211.104000", "182211.107000", "182211.110000", "182211.113000", "182211.117000", "182211.120000", "182211.123000", "182211.127000", "182211.130000", "182211.133000", "182211.137000", "182211.140000", "182211.143000", "182211.147000", "182211.150000", "182211.155000", "182211.168000", "182211.171000", "182211.175000", "182211.178000", "182211.196000", "182211.199000", "182211.203000", "182251.089000", "182251.097000", "182251.100000", "182251.103000", "182251.107000", "182251.110000", "182251.113000", "182251.117000", "182251.120000", "182251.124000", "182251.127000", "182251.130000", "182251.134000", "182251.137000", "182251.140000", "182251.144000", "182251.147000", "182251.151000", "182251.154000", "182251.157000", "182251.160000", "182251.164000", "182251.167000", "182251.170000", "182251.174000", "182251.177000", "182251.181000", "182331.089000", "182331.093000", "182331.096000", "182331.100000", "182331.103000", "182331.106000", "182331.110000", "182331.113000", "182331.116000", "182331.120000", "182331.123000", "182331.126000", "182331.130000", "182331.133000", "182331.136000", "182331.140000", "182331.143000", "182331.148000", "182331.151000", "182331.154000", "182331.158000", "182331.161000", "182331.165000", "182331.168000", "182331.172000", "182331.221000", "182331.225000", "182411.090000", "182411.094000", "182411.097000", "182411.101000", "182411.104000", "182411.107000", "182411.111000", "182411.114000", "182411.117000", "182411.120000", "182411.124000", "182411.127000", "182411.130000", "182411.134000", "182411.137000", "182411.140000", "182411.144000", "182411.147000", "182411.150000", "182411.154000", "182411.157000", "182411.160000", "182411.164000", "182411.167000", "182411.170000", "182411.174000", "182411.177000", "182451.098000", "182451.102000", "182451.105000", "182451.108000", "182451.112000", "182451.115000", "182451.133000", "182451.136000", "182451.139000", "182451.143000", "182451.146000", "182451.149000", "182451.153000", "182451.156000", "182451.159000", "182451.163000", "182451.166000", "182451.169000", "182451.173000", "182451.176000", "182451.179000", "182451.183000", "182451.186000", "182451.189000", "182451.193000", "182451.196000", "182451.199000", "182525.583000", "182525.587000", "182525.590000", "182525.593000", "182525.597000", "182525.600000", "182525.603000", "182525.607000", "182525.610000", "182525.613000", "182525.616000", "182525.620000", "182525.623000", "182525.626000", "182525.630000", "182525.633000", "182525.636000", "182525.640000", "182525.643000", "182525.646000", "182525.649000", "182525.653000", "182525.656000"],
