{
  "AcquisitionMatrixPE": 104,
  "AcquisitionNumber": 1,
  "AcquisitionTime": "18:14:5.710000",
  "BandwidthPerPixelPhaseEncode": 17.17,
  "BaseResolution": 104,
  "BodyPartExamined": "BRAIN",
  "CoilCombinationMethod": "Sum of Squares",
  "ConsistencyInfo": "N4_VE11C_LATEST_20160120",
  "ConversionSoftware": "dcm2niix",
  "ConversionSoftwareVersion": "v1.0.20211006",
  "DerivedVendorReportedEchoSpacing": 0.000560011,
  "DeviceSerialNumber": "167006",
  "DwellTime": 2.1e-06,
  "EchoTime": 0.037,
  "EchoTime1": 0.037,
  "EchoTime2": 0.001,
  "EchoTrainLength": 104,
  "EffectiveEchoSpacing": 0.000560011,
  "FlipAngle": 52,
  "HeudiconvVersion": "0.11.3.post9+gc939bf8",
  "ImageComments": "Unaliased MB4/PE3/LB",
  "ImageOrientationPatientDICOM": [0.99424, 0.105233, 0.0202948, -0.090133, 0.923488, -0.372889],
  "ImageOrientationText": "Tra>Cor(-21.7)>Sag(3.3)",
  "ImageType": [
    "ORIGINAL",
    "PRIMARY",
    "P",
    "MB",
    "ND",
    "MOSAIC",
    "PHASE"
],
  "ImagingFrequency": 123.259,
  "InPlanePhaseEncodingDirectionDICOM": "COL",
  "InstitutionAddress": "Chemin Queen-Mary 4565,Montreal,District,CA,H3W 1W5",
  "InstitutionName": "IUGM",
  "InstitutionalDepartmentName": "Department",
  "MRAcquisitionType": "2D",
  "MagneticFieldStrength": 3,
  "Manufacturer": "Siemens",
  "ManufacturersModelName": "Prisma_fit",
  "MatrixCoilMode": "SENSE",
  "Modality": "MR",
  "MultibandAccelerationFactor": 4,
  "PartialFourier": 1,
  "PatientPosition": "HFS",
  "PercentPhaseFOV": 100,
  "PercentSampling": 100,
  "PhaseEncodingDirection": "j",
  "PhaseEncodingSteps": 104,
  "PhaseResolution": 1,
  "PixelBandwidth": 2290,
  "ProcedureStepDescription": "games^mariostars",
  "ProtocolName": "func_task-mariostars_run-04",
  "PulseSequenceDetails": "%CustomerSeq%\\cmrr_mbep2d_bold",
  "ReceiveCoilActiveElements": "HC1-7;NC1,2",
  "ReceiveCoilName": "HeadNeck_64",
  "ReconMatrixPE": 104,
  "RepetitionTime": 1.49,
  "SAR": 0.0615729,
  "ScanOptions": "FS",
  "ScanningSequence": "EP",
  "SequenceName": "epfid2d1_104",
  "SequenceVariant": "SK\\SS",
  "SeriesDescription": "func_task-mariostars_run-04",
  "SeriesNumber": 20,
  "ShimSetting": [622, -7192, -8829, 657, 42, 19, -32, -3],
  "SliceThickness": 2,
  "SliceTiming": [0, 0.7825, 0.0975, 0.8825, 0.195, 0.98, 0.2925, 1.0775, 0.3925, 1.175, 0.49, 1.2725, 0.5875, 1.3725, 0.685, 0, 0.7825, 0.0975, 0.8825, 0.195, 0.98, 0.2925, 1.0775, 0.3925, 1.175, 0.49, 1.2725, 0.5875, 1.3725, 0.685, 0, 0.7825, 0.0975, 0.8825, 0.195, 0.98, 0.2925, 1.0775, 0.3925, 1.175, 0.49, 1.2725, 0.5875, 1.3725, 0.685, 0, 0.7825, 0.0975, 0.8825, 0.195, 0.98, 0.2925, 1.0775, 0.3925, 1.175, 0.49, 1.2725, 0.5875, 1.3725, 0.685],
  "SoftwareVersions": "syngo MR E11",
  "SpacingBetweenSlices": 2,
  "StationName": "MRC35049",
  "TaskName": "mariostars",
  "TotalReadoutTime": 0.0576811,
  "TxRefAmp": 297.348,
  "WipMemBlock": "6cbf3bb2-e5c6-46cf-9455-555da5280c3e||Sequence: R016 ve11c/master r/e634e98; Dec 19 2017 11:00:25 by eja",
  "dcmmeta_affine": [
    [-1.9884809255599976, -0.18026606738567352, 0.11596474796533585, 111.7729721069336],
    [-0.21046651899814606, 1.8469756841659546, -0.7378243803977966, -48.1483268737793],
    [0.04058968648314476, 0.7457782030105591, 1.8553078174591064, -69.7302474975586],
    [0.0, 0.0, 0.0, 1.0]
],
  "dcmmeta_reorient_transform": [
    [0.0, -1.0, 0.0, 103.0],
    [1.0, 0.0, 0.0, 0.0],
    [0.0, 0.0, 1.0, 0.0],
    [0.0, 0.0, 0.0, 1.0]
],
  "dcmmeta_shape": [104, 104, 60, 456],
  "dcmmeta_slice_dim": 2,
  "dcmmeta_version": 0.6,
  "global": {
    "const": {
      "AcquisitionMatrix": [104, 0, 0, 104],
      "AngioFlag": "N",
      "BitsAllocated": 16,
      "BitsStored": 16,
      "BodyPartExamined": "BRAIN",
      "Columns": 832,
      "EchoNumbers": 1,
      "EchoTime": 37.0,
      "EchoTrainLength": 104,
      "FlipAngle": 52.0,
      "HighBit": 15,
      "ImageOrientationPatient": [0.9942404542456, 0.10523325739845, 0.020294843651, -0.0901330306522, 0.9234878194548, -0.3728891042979],
      "ImagePositionPatient": [-751.39576997251, -890.99910824415, 263.77352686321],
      "ImageType": [
        "ORIGINAL",
        "PRIMARY",
        "P",
        "MB",
        "ND",
        "MOSAIC"
],
      "ImagedNucleus": "1H",
      "ImagingFrequency": 123.258856,
      "InPlanePhaseEncodingDirection": "COL",
      "LargestImagePixelValue": 4095,
      "MRAcquisitionType": "2D",
      "MagneticFieldStrength": 3.0,
      "Manufacturer": "SIEMENS",
      "ManufacturerModelName": "Prisma_fit",
      "Modality": "MR",
      "NumberOfAverages": 1.0,
      "NumberOfPhaseEncodingSteps": 104,
      "PercentPhaseFieldOfView": 100.0,
      "PercentSampling": 100.0,
      "PerformedProcedureStepStartTime": "165600.304000",
      "PhotometricInterpretation": "MONOCHROME2",
      "PixelBandwidth": 2290.0,
      "PixelRepresentation": 0,
      "PixelSpacing": [2.0, 2.0],
      "ProtocolName": "func_task-mariostars_run-04",
      "RepetitionTime": 1490.0,
      "RescaleIntercept": -4096.0,
      "RescaleSlope": 2.0,
      "RescaleType": "US",
      "Rows": 832,
      "SAR": 0.06157288763009,
      "SamplesPerPixel": 1,
      "ScanOptions": "FS",
      "ScanningSequence": "EP",
      "SequenceName": "epfid2d1_104",
      "SequenceVariant": [
        "SK",
        "SS"
],
      "SeriesDescription": "func_task-mariostars_run-04",
      "SeriesNumber": 20,
      "SeriesTime": "181531.293000",
      "SliceLocation": -40.442174333346,
      "SliceThickness": 2.0,
      "SmallestImagePixelValue": 0,
      "SoftwareVersions": "syngo MR E11",
      "SpacingBetweenSlices": 1.9999999789549,
      "SpecificCharacterSet": "ISO_IR 100",
      "StudyID": "1",
      "StudyTime": "165600.251000",
      "TransmitCoilName": "Body",
      "VariableFlipAngleFlag": "N",
      "WindowCenterWidthExplanation": "Algo1",
      "dBdt": 0.0},
    "slices": {}
  },
  "time": {
    "samples": {
      "AcquisitionNumber": [1, 2, 3, 4, 5, 6, 7, 8, 9, 10, 11, 12, 13, 14, 15, 16, 17, 18, 19, 20, 21, 22, 23, 24, 25, 26, 27, 28, 29, 30, 31, 32, 33, 34, 35, 36, 37, 38, 39, 40, 41, 42, 43, 44, 45, 46, 47, 48, 49, 50, 51, 52, 53, 54, 55, 56, 57, 58, 59, 60, 61, 62, 63, 64, 65, 66, 67, 68, 69, 70, 71, 72, 73, 74, 75, 76, 77, 78, 79, 80, 81, 82, 83, 84, 85, 86, 87, 88, 89, 90, 91, 92, 93, 94, 95, 96, 97, 98, 99, 100, 101, 102, 103, 104, 105, 106, 107, 108, 109, 110, 111, 112, 113, 114, 115, 116, 117, 118, 119, 120, 121, 122, 123, 124, 125, 126, 127, 128, 129, 130, 131, 132, 133, 134, 135, 136, 137, 138, 139, 140, 141, 142, 143, 144, 145, 146, 147, 148, 149, 150, 151, 152, 153, 154, 155, 156, 157, 158, 159, 160, 161, 162, 163, 164, 165, 166, 167, 168, 169, 170, 171, 172, 173, 174, 175, 176, 177, 178, 179, 180, 181, 182, 183, 184, 185, 186, 187, 188, 189, 190, 191, 192, 193, 194, 195, 196, 197, 198, 199, 200, 201, 202, 203, 204, 205, 206, 207, 208, 209, 210, 211, 212, 213, 214, 215, 216, 217, 218, 219, 220, 221, 222, 223, 224, 225, 226, 227, 228, 229, 230, 231, 232, 233, 234, 235, 236, 237, 238, 239, 240, 241, 242, 243, 244, 245, 246, 247, 248, 249, 250, 251, 252, 253, 254, 255, 256, 257, 258, 259, 260, 261, 262, 263, 264, 265, 266, 267, 268, 269, 270, 271, 272, 273, 274, 275, 276, 277, 278, 279, 280, 281, 282, 283, 284, 285, 286, 287, 288, 289, 290, 291, 292, 293, 294, 295, 296, 297, 298, 299, 300, 301, 302, 303, 304, 305, 306, 307, 308, 309, 310, 311, 312, 313, 314, 315, 316, 317, 318, 319, 320, 321, 322, 323, 324, 325, 326, 327, 328, 329, 330, 331, 332, 333, 334, 335, 336, 337, 338, 339, 340, 341, 342, 343, 344, 345, 346, 347, 348, 349, 350, 351, 352, 353, 354, 355, 356, 357, 358, 359, 360, 361, 362, 363, 364, 365, 366, 367, 368, 369, 370, 371, 372, 373, 374, 375, 376, 377, 378, 379, 380, 381, 382, 383, 384, 385, 386, 387, 388, 389, 390, 391, 392, 393, 394, 395, 396, 397, 398, 399, 400, 401, 402, 403, 404, 405, 406, 407, 408, 409, 410, 411, 412, 413, 414, 415, 416, 417, 418, 419, 420, 421, 422, 423, 424, 425, 426, 427, 428, 429, 430, 431, 432, 433, 434, 435, 436, 437, 438, 439, 440, 441, 442, 443, 444, 445, 446, 447, 448, 449, 450, 451, 452, 453, 454, 455, 456],
      "AcquisitionTime": ["181405.710000", "181407.200000", "181408.690000", "181410.180000", "181411.670000", "181413.160000", "181414.650000", "181416.140000", "181417.630000", "181419.120000", "181420.610000", "181422.100000", "181423.590000", "181425.080000", "181426.570000", "181428.060000", "181429.550000", "181431.040000", "181432.530000", "181434.020000", "181435.510000", "181437.000000", "181438.490000", "181439.980000", "181441.470000", "181442.960000", "181444.450000", "181445.940000", "181447.430000", "181448.920000", "181450.410000", "181451.900000", "181453.390000", "181454.880000", "181456.370000", "181457.860000", "181459.350000", "181500.840000", "181502.330000", "181503.820000", "181505.310000", "181506.800000", "181508.290000", "181509.780000", "181511.270000", "181512.760000", "181514.250000", "181515.740000", "181517.230000", "181518.720000", "181520.210000", "181521.700000", "181523.190000", "181524.680000", "181526.170000", "181527.660000", "181529.150000", "181530.640000", "181532.130000", "181533.620000", "181535.110000", "181536.600000", "181538.090000", "181539.580000", "181541.070000", "181542.560000", "181544.050000", "181545.540000", "181547.030000", "181548.520000", "181550.010000", "181551.500000", "181552.990000", "181554.480000", "181555.970000", "181557.460000", "181558.950000", "181600.440000", "181601.930000", "181603.420000", "181604.910000", "181606.400000", "181607.890000", "181609.380000", "181610.870000", "181612.360000", "181613.850000", "181615.340000", "181616.830000", "181618.320000", "181619.810000", "181621.300000", "181622.790000", "181624.280000", "181625.770000", "181627.260000", "181628.750000", "181630.240000", "181631.730000", "181633.220000", "181634.710000", "181636.200000", "181637.690000", "181639.180000", "181640.670000", "181642.160000", "181643.650000", "181645.140000", "181646.630000", "181648.120000", "181649.610000", "181651.100000", "181652.590000", "181654.080000", "181655.570000", "181657.060000", "181658.550000", "181700.040000", "181701.530000", "181703.020000", "181704.510000", "181706.000000", "181707.490000", "181708.980000", "181710.470000", "181711.960000", "181713.450000", "181714.940000", "181716.430000", "181717.920000", "181719.410000", "181720.900000", "181722.390000", "181723.880000", "181725.370000", "181726.860000", "181728.350000", "181729.840000", "181731.330000", "181732.820000", "181734.310000", "181735.800000", "181737.290000", "181738.780000", "181740.270000", "181741.760000", "181743.250000", "181744.740000", "181746.230000", "181747.720000", "181749.210000", "181750.700000", "181752.190000", "181753.680000", "181755.170000", "181756.660000", "181758.150000", "181759.640000", "181801.130000", "181802.620000", "181804.110000", "181805.600000", "181807.090000", "181808.580000", "181810.070000", "181811.560000", "181813.050000", "181814.540000", "181816.030000", "181817.520000", "181819.010000", "181820.500000", "181821.990000", "181823.480000", "181824.970000", "181826.460000", "181827.950000", "181829.440000", "181830.930000", "181832.420000", "181833.910000", "181835.400000", "181836.890000", "181838.380000", "181839.870000", "181841.360000", "181842.850000", "181844.340000", "181845.830000", "181847.320000", "181848.810000", "181850.300000", "181851.790000", "181853.280000", "181854.770000", "181856.260000", "181857.750000", "181859.240000", "181900.730000", "181902.220000", "181903.710000", "181905.200000", "181906.690000", "181908.180000", "181909.670000", "181911.160000", "181912.650000", "181914.140000", "181915.630000", "181917.120000", "181918.610000", "181920.100000", "181921.590000", "181923.080000", "181924.570000", "181926.060000", "181927.550000", "181929.040000", "181930.530000", "181932.020000", "181933.510000", "181935.000000", "181936.490000", "181937.980000", "181939.470000", "181940.960000", "181942.450000", "181943.940000", "181945.430000", "181946.920000", "181948.410000", "181949.900000", "181951.390000", "181952.880000", "181954.370000", "181955.860000", "181957.350000", "181958.840000", "182000.330000", "182001.820000", "182003.310000", "182004.800000", "182006.290000", "182007.780000", "182009.270000", "182010.760000", "182012.250000", "182013.740000", "182015.230000", "182016.720000", "182018.210000", "182019.700000", "182021.190000", "182022.680000", "182024.170000", "182025.660000", "182027.150000", "182028.640000", "182030.130000", "182031.620000", "182033.110000", "182034.600000", "182036.090000", "182037.580000", "182039.070000", "182040.560000", "182042.050000", "182043.540000", "182045.030000", "182046.520000", "182048.010000", "182049.500000", "182050.990000", "182052.480000", "182053.970000", "182055.460000", "182056.950000", "182058.440000", "182059.930000", "182101.420000", "182102.910000", "182104.400000", "182105.890000", "182107.380000", "182108.870000", "182110.360000", "182111.850000", "182113.340000", "182114.830000", "182116.320000", "182117.810000", "182119.300000", "182120.790000", "182122.280000", "182123.770000", "182125.260000", "182126.750000", "182128.240000", "182129.730000", "182131.220000", "182132.710000", "182134.200000", "182135.690000", "182137.180000", "182138.670000", "182140.160000", "182141.650000", "182143.140000", "182144.630000", "182146.120000", "182147.610000", "182149.100000", "182150.590000", "182152.080000", "182153.570000", "182155.060000", "182156.550000", "182158.040000", "182159.530000", "182201.020000", "182202.510000", "182204.000000", "182205.490000", "182206.980000", "182208.470000", "182209.960000", "182211.450000", "182212.940000", "182214.430000", "182215.920000", "182217.410000", "182218.900000", "182220.390000", "182221.880000", "182223.370000", "182224.860000", "182226.350000", "182227.840000", "182229.330000", "182230.820000", "182232.310000", "182233.800000", "182235.290000", "182236.780000", "182238.270000", "182239.760000", "182241.250000", "182242.740000", "182244.230000", "182245.720000", "182247.210000", "182248.700000", "182250.190000", "182251.680000", "182253.170000", "182254.660000", "182256.150000", "182257.640000", "182259.130000", "182300.620000", "182302.110000", "182303.600000", "182305.090000", "182306.580000", "182308.070000", "182309.560000", "182311.050000", "182312.540000", "182314.030000", "182315.520000", "182317.010000", "182318.500000", "182319.990000", "182321.480000", "182322.970000", "182324.460000", "182325.950000", "182327.440000", "182328.930000", "182330.420000", "182331.910000", "182333.400000", "182334.890000", "182336.380000", "182337.870000", "182339.360000", "182340.850000", "182342.340000", "182343.830000", "182345.320000", "182346.810000", "182348.300000", "182349.790000", "182351.280000", "182352.770000", "182354.260000", "182355.750000", "182357.240000", "182358.730000", "182400.220000", "182401.710000", "182403.200000", "182404.690000", "182406.180000", "182407.670000", "182409.160000", "182410.650000", "182412.140000", "182413.630000", "182415.120000", "182416.610000", "182418.100000", "182419.590000", "182421.080000", "182422.570000", "182424.060000", "182425.550000", "182427.040000", "182428.530000", "182430.020000", "182431.510000", "182433.000000", "182434.490000", "182435.980000", "182437.470000", "182438.960000", "182440.450000", "182441.940000", "182443.430000", "182444.920000", "182446.410000", "182447.900000", "182449.390000", "182450.880000", "182452.370000", "182453.860000", "182455.350000", "182456.840000", "182458.330000", "182459.820000", "182501.310000", "182502.800000", "182504.290000", "182505.780000", "182507.270000", "182508.760000", "182510.250000", "182511.740000", "182513.230000", "182514.720000", "182516.210000", "182517.700000", "182519.190000", "182520.680000", "182522.170000", "182523.660000"],
      "ContentTime": ["181531.295000", "181531.298000", "181531.301000", "181531.303000", "181531.308000", "181531.311000", "181531.313000", "181531.316000", "181531.318000", "181531.321000", "181531.323000", "181531.326000", "181531.328000", "181531.331000", "181531.333000", "181531.338000", "181531.340000", "181531.343000", "181531.345000", "181531.348000", "181531.350000", "181531.353000", "181531.355000", "181531.358000", "181531.360000", "181531.363000", "181531.365000", "181531.368000", "181531.370000", "181531.373000", "181531.375000", "181531.378000", "181531.380000", "181551.207000", "181551.210000", "181551.212000", "181551.215000", "181551.217000", "181551.220000", "181551.222000", "181551.225000", "181551.227000", "181551.229000", "181551.232000", "181551.234000", "181551.237000", "181551.239000", "181551.242000", "181551.244000", "181551.247000", "181551.249000", "181551.252000", "181551.254000", "181611.200000", "181611.203000", "181611.205000", "181611.208000", "181611.211000", "181611.213000", "181611.216000", "181611.218000", "181611.221000", "181611.223000", "181611.226000", "181611.228000", "181611.230000", "181611.233000", "181611.235000", "181611.238000", "181611.240000", "181611.243000", "181611.245000", "181611.248000", "181631.199000", "181631.202000", "181631.204000", "181631.207000", "181631.210000", "181631.212000", "181631.215000", "181631.217000", "181631.220000", "181631.222000", "181631.225000", "181631.227000", "181631.230000", "181631.232000", "181631.235000", "181631.237000", "181631.240000", "181631.242000", "181631.245000", "181631.247000", "181631.250000", "181711.265000", "181711.268000", "181711.270000", "181711.273000", "181711.275000", "181711.278000", "181711.280000", "181711.283000", "181711.285000", "181711.288000", "181711.290000", "181711.293000", "181711.295000", "181711.298000", "181711.300000", "181711.303000", "181711.305000", "181711.308000", "181711.310000", "181711.313000", "181711.319000", "181711.322000", "181711.324000", "181711.326000", "181711.329000", "181711.332000", "181711.334000", "181711.336000", "181711.339000", "181711.342000", "181751.250000", "181751.252000", "181751.255000", "181751.257000", "181751.260000", "181751.262000", "181751.265000", "181751.267000", "181751.270000", "181751.272000", "181751.275000", "181751.277000", "181751.280000", "181751.282000", "181751.285000", "181751.287000", "181751.290000", "181751.292000", "181751.295000", "181751.297000", "181751.300000", "181751.302000", "181751.305000", "181751.308000", "181751.310000", "181751.313000", "181751.315000", "181831.223000", "181831.225000", "181831.228000", "181831.231000", "181831.233000", "181831.236000", "181831.238000", "181831.241000", "181831.243000", "181831.246000", "181831.248000", "181831.251000", "181831.253000", "181831.256000", "181831.258000", "181831.261000", "181831.263000", "181831.266000", "181831.268000", "181831.271000", "181831.273000", "181831.276000", "181831.279000", "181831.281000", "181831.284000", "181831.286000", "181851.169000", "181851.172000", "181851.175000", "181851.177000", "181851.180000", "181851.182000", "181851.185000", "181851.187000", "181851.190000", "181851.192000", "181851.195000", "181851.197000", "181851.199000", "181851.202000", "181931.235000", "181931.238000", "181931.241000", "181931.243000", "181931.245000", "181931.248000", "181931.250000", "181931.253000", "181931.255000", "181931.258000", "181931.260000", "181931.263000", "181931.265000", "181931.268000", "181931.270000", "181931.273000", "181931.275000", "181931.278000", "181931.280000", "181931.282000", "181931.285000", "181931.287000", "181931.290000", "181931.293000", "181931.295000", "181931.297000", "181931.300000", "182011.236000", "182011.239000", "182011.241000", "182011.244000", "182011.246000", "182011.249000", "182011.251000", "182011.254000", "182011.256000", "182011.259000", "182011.261000", "182011.264000", "182011.266000", "182011.268000", "182011.271000", "182011.273000", "182011.276000", "182011.278000", "182011.281000", "182011.283000", "182011.286000", "182011.288000", "182011.291000", "182011.293000", "182011.296000", "182011.298000", "182011.301000", "182051.244000", "182051.246000", "182051.249000", "182051.251000", "182051.254000", "182051.256000", "182051.259000", "182051.261000", "182051.264000", "182051.266000", "182051.269000", "182051.271000", "182051.274000", "182051.276000", "182051.279000", "182051.281000", "182051.284000", "182051.286000", "182051.289000", "182051.291000", "182051.293000", "182051.296000", "182051.298000", "182051.301000", "182051.303000", "182051.306000", "182131.280000", "182131.283000", "182131.285000", "182131.288000", "182131.290000", "182131.292000", "182131.296000", "182131.299000", "182131.301000", "182131.304000", "182131.306000", "182131.309000", "182131.311000", "182131.314000", "182131.316000", "182131.319000", "182131.321000", "182131.324000", "182131.326000", "182131.328000", "182131.331000", "182131.333000", "182131.336000", "182131.338000", "182131.341000", "182131.343000", "182131.346000", "182211.255000", "182211.257000", "182211.260000", "182211.262000", "182211.265000", "182211.268000", "182211.270000", "182211.272000", "182211.275000", "182211.277000", "182211.280000", "182211.282000", "182211.285000", "182211.287000", "182211.290000", "182211.292000", "182211.295000", "182211.297000", "182211.300000", "182211.302000", "182211.305000", "182211.307000", "182211.310000", "182211.312000", "182211.315000", "182211.317000", "182211.319000", "182251.240000", "182251.242000", "182251.245000", "182251.248000", "182251.250000", "182251.253000", "182251.255000", "182251.258000", "182251.260000", "182251.263000", "182251.265000", "182251.268000", "182251.270000", "182251.273000", "182251.275000", "182251.278000", "182251.280000", "182251.283000", "182251.285000", "182251.287000", "182251.290000", "182251.292000", "182251.295000", "182251.297000", "182251.300000", "182251.302000", "182251.305000", "182331.270000", "182331.273000", "182331.276000", "182331.278000", "182331.280000", "182331.283000", "182331.285000", "182331.288000", "182331.290000", "182331.293000", "182331.295000", "182331.298000", "182331.300000", "182331.303000", "182331.305000", "182331.308000", "182331.310000", "182331.313000", "182331.315000", "182331.318000", "182331.320000", "182331.322000", "182331.325000", "182331.327000", "182331.330000", "182331.332000", "182331.335000", "182411.251000", "182411.254000", "182411.256000", "182411.259000", "182411.261000", "182411.263000", "182411.266000", "182411.269000", "182411.271000", "182411.273000", "182411.276000", "182411.278000", "182411.281000", "182411.283000", "182411.286000", "182411.288000", "182411.291000", "182411.293000", "182411.296000", "182411.298000", "182411.301000", "182411.303000", "182411.306000", "182411.308000", "182411.311000", "182411.313000", "182411.316000", "182451.664000", "182451.667000", "182451.670000", "182451.672000", "182451.675000", "182451.677000", "182451.679000", "182451.682000", "182451.684000", "182451.687000", "182451.689000", "182451.692000", "182451.694000", "182451.697000", "182451.699000", "182451.702000", "182451.704000", "182451.707000", "182451.709000", "182451.712000", "182451.714000", "182451.717000", "182451.719000", "182451.722000", "182451.724000", "182451.727000", "182525.701000", "182525.704000", "182525.706000", "182525.709000", "182525.711000", "182525.714000", "182525.716000", "182525.719000", "182525.721000", "182525.724000", "182525.726000", "182525.729000", "182525.731000", "182525.734000", "182525.736000", "182525.738000", "182525.741000", "182525.743000", "182525.746000", "182525.748000", "182525.751000", "182525.753000", "182525.756000", "182525.758000"],
