{
  "AcquisitionMatrixPE": 104,
  "AcquisitionNumber": 1,
  "AcquisitionTime": "17:49:40.585000",
  "BandwidthPerPixelPhaseEncode": 17.17,
  "BaseResolution": 104,
  "BodyPartExamined": "BRAIN",
  "CoilCombinationMethod": "Sum of Squares",
  "ConsistencyInfo": "N4_VE11C_LATEST_20160120",
  "ConversionSoftware": "dcm2niix",
  "ConversionSoftwareVersion": "v1.0.20211006",
  "DerivedVendorReportedEchoSpacing": 0.000560011,
  "DeviceSerialNumber": "167006",
  "DwellTime": 2.1e-06,
  "EchoTime": 0.037,
  "EchoTime1": 0.037,
  "EchoTime2": 0.001,
  "EchoTrainLength": 104,
  "EffectiveEchoSpacing": 0.000560011,
  "FlipAngle": 52,
  "HeudiconvVersion": "0.11.3.post9+gc939bf8",
  "ImageComments": "Unaliased MB4/PE3/LB",
  "ImageOrientationPatientDICOM": [0.99424, 0.105233, 0.0202948, -0.090133, 0.923488, -0.372889],
  "ImageOrientationText": "Tra>Cor(-21.7)>Sag(3.3)",
  "ImageType": [
    "ORIGINAL",
    "PRIMARY",
    "P",
    "MB",
    "ND",
    "MOSAIC",
    "PHASE"
],
  "ImagingFrequency": 123.259,
  "InPlanePhaseEncodingDirectionDICOM": "COL",
  "InstitutionAddress": "Chemin Queen-Mary 4565,Montreal,District,CA,H3W 1W5",
  "InstitutionName": "IUGM",
  "InstitutionalDepartmentName": "Department",
  "MRAcquisitionType": "2D",
  "MagneticFieldStrength": 3,
  "Manufacturer": "Siemens",
  "ManufacturersModelName": "Prisma_fit",
  "MatrixCoilMode": "SENSE",
  "Modality": "MR",
  "MultibandAccelerationFactor": 4,
  "PartialFourier": 1,
  "PatientPosition": "HFS",
  "PercentPhaseFOV": 100,
  "PercentSampling": 100,
  "PhaseEncodingDirection": "j",
  "PhaseEncodingSteps": 104,
  "PhaseResolution": 1,
  "PixelBandwidth": 2290,
  "ProcedureStepDescription": "games^mariostars",
  "ProtocolName": "func_task-mariostars_run-02",
  "PulseSequenceDetails": "%CustomerSeq%\\cmrr_mbep2d_bold",
  "ReceiveCoilActiveElements": "HC1-7;NC1,2",
  "ReceiveCoilName": "HeadNeck_64",
  "ReconMatrixPE": 104,
  "RepetitionTime": 1.49,
  "SAR": 0.0615729,
  "ScanOptions": "FS",
  "ScanningSequence": "EP",
  "SequenceName": "epfid2d1_104",
  "SequenceVariant": "SK\\SS",
  "SeriesDescription": "func_task-mariostars_run-02",
  "SeriesNumber": 14,
  "ShimSetting": [622, -7192, -8829, 657, 42, 19, -32, -3],
  "SliceThickness": 2,
  "SliceTiming": [0, 0.785, 0.0975, 0.8825, 0.1975, 0.98, 0.295, 1.0775, 0.3925, 1.175, 0.49, 1.275, 0.5875, 1.3725, 0.685, 0, 0.785, 0.0975, 0.8825, 0.1975, 0.98, 0.295, 1.0775, 0.3925, 1.175, 0.49, 1.275, 0.5875, 1.3725, 0.685, 0, 0.785, 0.0975, 0.8825, 0.1975, 0.98, 0.295, 1.0775, 0.3925, 1.175, 0.49, 1.275, 0.5875, 1.3725, 0.685, 0, 0.785, 0.0975, 0.8825, 0.1975, 0.98, 0.295, 1.0775, 0.3925, 1.175, 0.49, 1.275, 0.5875, 1.3725, 0.685],
  "SoftwareVersions": "syngo MR E11",
  "SpacingBetweenSlices": 2,
  "StationName": "MRC35049",
  "TaskName": "mariostars",
  "TotalReadoutTime": 0.0576811,
  "TxRefAmp": 297.348,
  "WipMemBlock": "3af9a554-1b75-4652-9e4b-4175fd1a1546||Sequence: R016 ve11c/master r/e634e98; Dec 19 2017 11:00:25 by eja",
  "dcmmeta_affine": [
    [-1.9884809255599976, -0.18026606738567352, 0.11596474796533585, 111.7729721069336],
    [-0.21046651899814606, 1.8469756841659546, -0.7378243803977966, -48.1483268737793],
    [0.04058968648314476, 0.7457782030105591, 1.8553078174591064, -69.7302474975586],
    [0.0, 0.0, 0.0, 1.0]
],
  "dcmmeta_reorient_transform": [
    [0.0, -1.0, 0.0, 103.0],
    [1.0, 0.0, 0.0, 0.0],
    [0.0, 0.0, 1.0, 0.0],
    [0.0, 0.0, 0.0, 1.0]
],
  "dcmmeta_shape": [104, 104, 60, 434],
  "dcmmeta_slice_dim": 2,
  "dcmmeta_version": 0.6,
  "global": {
    "const": {
      "AcquisitionMatrix": [104, 0, 0, 104],
      "AngioFlag": "N",
      "BitsAllocated": 16,
      "BitsStored": 16,
      "BodyPartExamined": "BRAIN",
      "Columns": 832,
      "EchoNumbers": 1,
      "EchoTime": 37.0,
      "EchoTrainLength": 104,
      "FlipAngle": 52.0,
      "HighBit": 15,
      "ImageOrientationPatient": [0.9942404542456, 0.10523325739845, 0.020294843651, -0.0901330306522, 0.9234878194548, -0.3728891042979],
      "ImagePositionPatient": [-751.39576997251, -890.99910824415, 263.77352686321],
      "ImageType": [
        "ORIGINAL",
        "PRIMARY",
        "P",
        "MB",
        "ND",
        "MOSAIC"
],
      "ImagedNucleus": "1H",
      "ImagingFrequency": 123.258845,
      "InPlanePhaseEncodingDirection": "COL",
      "LargestImagePixelValue": 4095,
      "MRAcquisitionType": "2D",
      "MagneticFieldStrength": 3.0,
      "Manufacturer": "SIEMENS",
      "ManufacturerModelName": "Prisma_fit",
      "Modality": "MR",
      "NumberOfAverages": 1.0,
      "NumberOfPhaseEncodingSteps": 104,
      "PercentPhaseFieldOfView": 100.0,
      "PercentSampling": 100.0,
      "PerformedProcedureStepStartTime": "165600.304000",
      "PhotometricInterpretation": "MONOCHROME2",
      "PixelBandwidth": 2290.0,
      "PixelRepresentation": 0,
      "PixelSpacing": [2.0, 2.0],
      "ProtocolName": "func_task-mariostars_run-02",
      "RepetitionTime": 1490.0,
      "RescaleIntercept": -4096.0,
      "RescaleSlope": 2.0,
      "RescaleType": "US",
      "Rows": 832,
      "SAR": 0.06157288763009,
      "SamplesPerPixel": 1,
      "ScanOptions": "FS",
      "ScanningSequence": "EP",
      "SequenceName": "epfid2d1_104",
      "SequenceVariant": [
        "SK",
        "SS"
],
      "SeriesDescription": "func_task-mariostars_run-02",
      "SeriesNumber": 14,
      "SeriesTime": "175055.344000",
      "SliceLocation": -40.442174333346,
      "SliceThickness": 2.0,
      "SmallestImagePixelValue": 0,
      "SoftwareVersions": "syngo MR E11",
      "SpacingBetweenSlices": 1.9999999789549,
      "SpecificCharacterSet": "ISO_IR 100",
      "StudyID": "1",
      "StudyTime": "165600.251000",
      "TransmitCoilName": "Body",
      "VariableFlipAngleFlag": "N",
      "WindowCenterWidthExplanation": "Algo1",
      "dBdt": 0.0},
    "slices": {}
  },
  "time": {
    "samples": {
      "AcquisitionNumber": [1, 2, 3, 4, 5, 6, 7, 8, 9, 10, 11, 12, 13, 14, 15, 16, 17, 18, 19, 20, 21, 22, 23, 24, 25, 26, 27, 28, 29, 30, 31, 32, 33, 34, 35, 36, 37, 38, 39, 40, 41, 42, 43, 44, 45, 46, 47, 48, 49, 50, 51, 52, 53, 54, 55, 56, 57, 58, 59, 60, 61, 62, 63, 64, 65, 66, 67, 68, 69, 70, 71, 72, 73, 74, 75, 76, 77, 78, 79, 80, 81, 82, 83, 84, 85, 86, 87, 88, 89, 90, 91, 92, 93, 94, 95, 96, 97, 98, 99, 100, 101, 102, 103, 104, 105, 106, 107, 108, 109, 110, 111, 112, 113, 114, 115, 116, 117, 118, 119, 120, 121, 122, 123, 124, 125, 126, 127, 128, 129, 130, 131, 132, 133, 134, 135, 136, 137, 138, 139, 140, 141, 142, 143, 144, 145, 146, 147, 148, 149, 150, 151, 152, 153, 154, 155, 156, 157, 158, 159, 160, 161, 162, 163, 164, 165, 166, 167, 168, 169, 170, 171, 172, 173, 174, 175, 176, 177, 178, 179, 180, 181, 182, 183, 184, 185, 186, 187, 188, 189, 190, 191, 192, 193, 194, 195, 196, 197, 198, 199, 200, 201, 202, 203, 204, 205, 206, 207, 208, 209, 210, 211, 212, 213, 214, 215, 216, 217, 218, 219, 220, 221, 222, 223, 224, 225, 226, 227, 228, 229, 230, 231, 232, 233, 234, 235, 236, 237, 238, 239, 240, 241, 242, 243, 244, 245, 246, 247, 248, 249, 250, 251, 252, 253, 254, 255, 256, 257, 258, 259, 260, 261, 262, 263, 264, 265, 266, 267, 268, 269, 270, 271, 272, 273, 274, 275, 276, 277, 278, 279, 280, 281, 282, 283, 284, 285, 286, 287, 288, 289, 290, 291, 292, 293, 294, 295, 296, 297, 298, 299, 300, 301, 302, 303, 304, 305, 306, 307, 308, 309, 310, 311, 312, 313, 314, 315, 316, 317, 318, 319, 320, 321, 322, 323, 324, 325, 326, 327, 328, 329, 330, 331, 332, 333, 334, 335, 336, 337, 338, 339, 340, 341, 342, 343, 344, 345, 346, 347, 348, 349, 350, 351, 352, 353, 354, 355, 356, 357, 358, 359, 360, 361, 362, 363, 364, 365, 366, 367, 368, 369, 370, 371, 372, 373, 374, 375, 376, 377, 378, 379, 380, 381, 382, 383, 384, 385, 386, 387, 388, 389, 390, 391, 392, 393, 394, 395, 396, 397, 398, 399, 400, 401, 402, 403, 404, 405, 406, 407, 408, 409, 410, 411, 412, 413, 414, 415, 416, 417, 418, 419, 420, 421, 422, 423, 424, 425, 426, 427, 428, 429, 430, 431, 432, 433, 434],
      "AcquisitionTime": ["174940.585000", "174942.075000", "174943.565000", "174945.055000", "174946.545000", "174948.035000", "174949.525000", "174951.015000", "174952.505000", "174953.995000", "174955.485000", "174956.975000", "174958.465000", "174959.955000", "175001.445000", "175002.935000", "175004.425000", "175005.915000", "175007.405000", "175008.895000", "175010.385000", "175011.875000", "175013.365000", "175014.855000", "175016.345000", "175017.835000", "175019.325000", "175020.815000", "175022.305000", "175023.795000", "175025.285000", "175026.775000", "175028.265000", "175029.755000", "175031.245000", "175032.735000", "175034.225000", "175035.715000", "175037.205000", "175038.695000", "175040.185000", "175041.675000", "175043.165000", "175044.655000", "175046.145000", "175047.635000", "175049.125000", "175050.615000", "175052.105000", "175053.595000", "175055.085000", "175056.575000", "175058.065000", "175059.555000", "175101.045000", "175102.535000", "175104.025000", "175105.515000", "175107.005000", "175108.495000", "175109.985000", "175111.475000", "175112.965000", "175114.455000", "175115.945000", "175117.435000", "175118.925000", "175120.415000", "175121.905000", "175123.395000", "175124.885000", "175126.375000", "175127.865000", "175129.355000", "175130.845000", "175132.335000", "175133.825000", "175135.315000", "175136.805000", "175138.295000", "175139.785000", "175141.275000", "175142.765000", "175144.255000", "175145.745000", "175147.235000", "175148.725000", "175150.215000", "175151.705000", "175153.195000", "175154.685000", "175156.175000", "175157.665000", "175159.155000", "175200.645000", "175202.135000", "175203.625000", "175205.115000", "175206.605000", "175208.095000", "175209.585000", "175211.075000", "175212.565000", "175214.055000", "175215.545000", "175217.035000", "175218.525000", "175220.015000", "175221.505000", "175222.995000", "175224.485000", "175225.975000", "175227.465000", "175228.955000", "175230.445000", "175231.935000", "175233.425000", "175234.915000", "175236.405000", "175237.895000", "175239.385000", "175240.875000", "175242.365000", "175243.855000", "175245.345000", "175246.835000", "175248.325000", "175249.815000", "175251.305000", "175252.795000", "175254.285000", "175255.775000", "175257.265000", "175258.755000", "175300.245000", "175301.735000", "175303.225000", "175304.715000", "175306.205000", "175307.695000", "175309.185000", "175310.675000", "175312.165000", "175313.655000", "175315.145000", "175316.635000", "175318.125000", "175319.615000", "175321.105000", "175322.595000", "175324.085000", "175325.575000", "175327.065000", "175328.555000", "175330.045000", "175331.535000", "175333.025000", "175334.515000", "175336.005000", "175337.495000", "175338.985000", "175340.475000", "175341.965000", "175343.455000", "175344.945000", "175346.435000", "175347.925000", "175349.415000", "175350.905000", "175352.395000", "175353.885000", "175355.375000", "175356.865000", "175358.355000", "175359.845000", "175401.335000", "175402.825000", "175404.315000", "175405.805000", "175407.295000", "175408.785000", "175410.275000", "175411.765000", "175413.255000", "175414.745000", "175416.235000", "175417.725000", "175419.215000", "175420.705000", "175422.195000", "175423.685000", "175425.175000", "175426.665000", "175428.155000", "175429.645000", "175431.135000", "175432.625000", "175434.115000", "175435.605000", "175437.095000", "175438.585000", "175440.075000", "175441.565000", "175443.055000", "175444.545000", "175446.035000", "175447.525000", "175449.015000", "175450.505000", "175451.995000", "175453.485000", "175454.975000", "175456.465000", "175457.955000", "175459.445000", "175500.935000", "175502.425000", "175503.915000", "175505.405000", "175506.895000", "175508.385000", "175509.875000", "175511.365000", "175512.855000", "175514.345000", "175515.835000", "175517.325000", "175518.815000", "175520.305000", "175521.795000", "175523.285000", "175524.775000", "175526.265000", "175527.755000", "175529.245000", "175530.735000", "175532.225000", "175533.715000", "175535.205000", "175536.695000", "175538.185000", "175539.675000", "175541.165000", "175542.655000", "175544.145000", "175545.635000", "175547.125000", "175548.615000", "175550.105000", "175551.595000", "175553.085000", "175554.575000", "175556.065000", "175557.555000", "175559.045000", "175600.535000", "175602.025000", "175603.515000", "175605.005000", "175606.495000", "175607.985000", "175609.475000", "175610.965000", "175612.455000", "175613.945000", "175615.435000", "175616.925000", "175618.415000", "175619.905000", "175621.395000", "175622.885000", "175624.375000", "175625.865000", "175627.355000", "175628.845000", "175630.335000", "175631.825000", "175633.315000", "175634.805000", "175636.295000", "175637.785000", "175639.275000", "175640.765000", "175642.255000", "175643.745000", "175645.235000", "175646.725000", "175648.215000", "175649.705000", "175651.195000", "175652.685000", "175654.175000", "175655.665000", "175657.155000", "175658.645000", "175700.135000", "175701.625000", "175703.115000", "175704.605000", "175706.095000", "175707.585000", "175709.075000", "175710.565000", "175712.055000", "175713.545000", "175715.035000", "175716.525000", "175718.015000", "175719.505000", "175720.995000", "175722.485000", "175723.975000", "175725.465000", "175726.955000", "175728.445000", "175729.935000", "175731.425000", "175732.915000", "175734.405000", "175735.895000", "175737.385000", "175738.875000", "175740.365000", "175741.855000", "175743.345000", "175744.835000", "175746.325000", "175747.815000", "175749.305000", "175750.795000", "175752.285000", "175753.775000", "175755.265000", "175756.755000", "175758.245000", "175759.735000", "175801.225000", "175802.715000", "175804.205000", "175805.695000", "175807.185000", "175808.675000", "175810.165000", "175811.655000", "175813.145000", "175814.635000", "175816.125000", "175817.615000", "175819.105000", "175820.595000", "175822.085000", "175823.575000", "175825.065000", "175826.555000", "175828.045000", "175829.535000", "175831.025000", "175832.515000", "175834.005000", "175835.495000", "175836.985000", "175838.475000", "175839.965000", "175841.455000", "175842.945000", "175844.435000", "175845.925000", "175847.415000", "175848.905000", "175850.395000", "175851.885000", "175853.375000", "175854.865000", "175856.355000", "175857.845000", "175859.335000", "175900.825000", "175902.315000", "175903.805000", "175905.295000", "175906.785000", "175908.275000", "175909.765000", "175911.255000", "175912.745000", "175914.235000", "175915.725000", "175917.215000", "175918.705000", "175920.195000", "175921.685000", "175923.175000", "175924.665000", "175926.155000", "175927.645000", "175929.135000", "175930.625000", "175932.115000", "175933.605000", "175935.095000", "175936.585000", "175938.075000", "175939.565000", "175941.055000", "175942.545000", "175944.035000", "175945.525000", "175947.015000", "175948.505000", "175949.995000", "175951.485000", "175952.975000", "175954.465000", "175955.955000", "175957.445000", "175958.935000", "180000.425000", "180001.915000", "180003.405000", "180004.895000", "180006.385000", "180007.875000", "180009.365000", "180010.855000", "180012.345000", "180013.835000", "180015.325000", "180016.815000", "180018.305000", "180019.795000", "180021.285000", "180022.775000", "180024.265000", "180025.755000"],
      "ContentTime": ["175055.346000", "175055.349000", "175055.351000", "175055.354000", "175055.356000", "175055.359000", "175055.361000", "175055.364000", "175055.366000", "175055.369000", "175055.378000", "175055.380000", "175055.383000", "175055.385000", "175055.388000", "175055.390000", "175055.392000", "175055.395000", "175055.397000", "175055.400000", "175055.402000", "175115.287000", "175115.290000", "175115.292000", "175115.295000", "175115.297000", "175115.300000", "175115.302000", "175115.305000", "175115.307000", "175115.309000", "175115.312000", "175115.314000", "175115.317000", "175115.319000", "175115.322000", "175115.324000", "175115.327000", "175115.329000", "175115.332000", "175115.334000", "175135.303000", "175135.306000", "175135.308000", "175135.311000", "175135.313000", "175135.316000", "175135.318000", "175135.321000", "175135.323000", "175135.326000", "175135.328000", "175135.331000", "175135.333000", "175135.336000", "175135.338000", "175135.344000", "175135.346000", "175135.348000", "175135.351000", "175135.353000", "175155.319000", "175155.322000", "175155.324000", "175155.327000", "175155.329000", "175155.332000", "175155.334000", "175155.337000", "175155.339000", "175155.342000", "175155.344000", "175155.347000", "175155.349000", "175155.351000", "175155.354000", "175155.356000", "175155.359000", "175155.369000", "175155.371000", "175155.374000", "175215.284000", "175215.287000", "175215.289000", "175215.292000", "175215.294000", "175215.297000", "175215.299000", "175215.302000", "175215.304000", "175215.306000", "175215.309000", "175215.311000", "175215.314000", "175215.316000", "175215.319000", "175215.321000", "175215.324000", "175215.326000", "175215.329000", "175215.331000", "175215.333000", "175255.332000", "175255.334000", "175255.337000", "175255.339000", "175255.342000", "175255.344000", "175255.346000", "175255.349000", "175255.351000", "175255.354000", "175255.356000", "175255.359000", "175255.361000", "175255.364000", "175255.366000", "175255.369000", "175255.371000", "175255.374000", "175255.376000", "175255.379000", "175255.381000", "175255.384000", "175255.386000", "175255.389000", "175255.391000", "175255.394000", "175255.396000", "175255.399000", "175335.317000", "175335.320000", "175335.322000", "175335.325000", "175335.327000", "175335.330000", "175335.332000", "175335.335000", "175335.337000", "175335.340000", "175335.342000", "175335.345000", "175335.347000", "175335.350000", "175335.352000", "175335.354000", "175335.357000", "175335.359000", "175335.362000", "175335.364000", "175335.367000", "175335.369000", "175335.372000", "175335.374000", "175335.377000", "175335.379000", "175335.381000", "175415.575000", "175415.578000", "175415.581000", "175415.583000", "175415.586000", "175415.588000", "175415.590000", "175415.593000", "175415.595000", "175415.598000", "175415.600000", "175415.603000", "175415.605000", "175415.608000", "175415.610000", "175415.613000", "175415.615000", "175415.618000", "175415.620000", "175415.623000", "175415.625000", "175415.628000", "175415.630000", "175415.632000", "175415.635000", "175415.637000", "175455.313000", "175455.316000", "175455.318000", "175455.321000", "175455.323000", "175455.326000", "175455.328000", "175455.331000", "175455.333000", "175455.336000", "175455.338000", "175455.341000", "175455.343000", "175455.346000", "175455.348000", "175455.357000", "175455.360000", "175455.362000", "175455.365000", "175455.367000", "175455.369000", "175455.372000", "175455.374000", "175455.377000", "175455.379000", "175455.382000", "175455.384000", "175535.315000", "175535.318000", "175535.321000", "175535.323000", "175535.326000", "175535.328000", "175535.331000", "175535.333000", "175535.335000", "175535.338000", "175535.340000", "175535.343000", "175535.345000", "175535.348000", "175535.350000", "175535.353000", "175535.355000", "175535.358000", "175535.360000", "175535.363000", "175535.365000", "175535.367000", "175535.370000", "175535.372000", "175535.375000", "175535.377000", "175535.380000", "175615.307000", "175615.310000", "175615.312000", "175615.315000", "175615.317000", "175615.320000", "175615.322000", "175615.325000", "175615.327000", "175615.330000", "175615.332000", "175615.335000", "175615.337000", "175615.339000", "175615.342000", "175615.344000", "175615.347000", "175615.349000", "175615.352000", "175615.354000", "175615.357000", "175615.359000", "175615.362000", "175615.364000", "175615.367000", "175615.369000", "175615.372000", "175655.315000", "175655.317000", "175655.320000", "175655.322000", "175655.325000", "175655.327000", "175655.330000", "175655.332000", "175655.335000", "175655.337000", "175655.340000", "175655.342000", "175655.345000", "175655.347000", "175655.350000", "175655.352000", "175655.355000", "175655.357000", "175655.360000", "175655.362000", "175655.365000", "175655.367000", "175655.370000", "175655.372000", "175655.375000", "175655.377000", "175655.380000", "175735.380000", "175735.382000", "175735.385000", "175735.387000", "175735.390000", "175735.392000", "175735.395000", "175735.397000", "175735.400000", "175735.402000", "175735.405000", "175735.407000", "175735.410000", "175735.412000", "175735.415000", "175735.417000", "175735.420000", "175735.422000", "175735.425000", "175735.427000", "175735.430000", "175735.432000", "175735.434000", "175735.437000", "175735.439000", "175735.442000", "175735.444000", "175815.331000", "175815.334000", "175815.337000", "175815.339000", "175815.342000", "175815.344000", "175815.347000", "175815.349000", "175815.351000", "175815.354000", "175815.357000", "175815.359000", "175815.361000", "175815.364000", "175815.366000", "175815.369000", "175815.371000", "175815.374000", "175815.376000", "175815.379000", "175815.381000", "175815.384000", "175815.386000", "175815.389000", "175815.391000", "175815.394000", "175835.244000", "175835.247000", "175835.249000", "175835.252000", "175835.254000", "175835.257000", "175835.259000", "175835.262000", "175835.264000", "175835.267000", "175835.269000", "175835.272000", "175835.274000", "175835.277000", "175915.310000", "175915.313000", "175915.315000", "175915.317000", "175915.320000", "175915.322000", "175915.325000", "175915.327000", "175915.330000", "175915.332000", "175915.335000", "175915.337000", "175915.340000", "175915.342000", "175915.345000", "175915.347000", "175915.350000", "175915.352000", "175915.355000", "175915.357000", "175915.360000", "175915.362000", "175915.365000", "175915.367000", "175915.370000", "175915.372000", "175915.375000", "175955.352000", "175955.355000", "175955.357000", "175955.360000", "175955.362000", "175955.365000", "175955.367000", "175955.370000", "175955.372000", "175955.375000", "175955.377000", "175955.379000", "175955.382000", "175955.384000", "175955.387000", "175955.389000", "175955.392000", "175955.394000", "175955.397000", "175955.399000", "175955.402000", "175955.404000", "175955.407000", "175955.409000", "175955.412000", "175955.414000", "175955.417000", "180029.018000", "180029.021000", "180029.023000", "180029.026000", "180029.028000", "180029.031000", "180029.033000", "180029.036000", "180029.038000", "180029.041000", "180029.043000", "180029.045000", "180029.048000", "180029.050000", "180029.066000", "180029.069000", "180029.071000", "180029.074000", "180029.076000", "180029.093000", "180029.096000", "180029.098000"],
