{
  "AcquisitionMatrixPE": 104,
  "AcquisitionNumber": 1,
  "AcquisitionTime": "14:06:49.645000",
  "BandwidthPerPixelPhaseEncode": 17.17,
  "BaseResolution": 104,
  "BodyPartExamined": "BRAIN",
  "CoilCombinationMethod": "Sum of Squares",
  "ConsistencyInfo": "N4_VE11C_LATEST_20160120",
  "ConversionSoftware": "dcm2niix",
  "ConversionSoftwareVersion": "v1.0.20211006",
  "DerivedVendorReportedEchoSpacing": 0.000560011,
  "DeviceSerialNumber": "167006",
  "DwellTime": 2.1e-06,
  "EchoTime": 0.037,
  "EchoTrainLength": 104,
  "EffectiveEchoSpacing": 0.000560011,
  "FlipAngle": 52,
  "HeudiconvVersion": "0.11.3.post9+gc939bf8",
  "ImageComments": "Unaliased MB4/PE3/LB",
  "ImageOrientationPatientDICOM": [0.99967, 0.00696836, 0.0247151, -0.00139577, 0.975798, -0.218669],
  "ImageOrientationText": "Tra>Cor(-12.6)>Sag(1.5)",
  "ImageType": [
    "ORIGINAL",
    "PRIMARY",
    "M",
    "MB",
    "ND",
    "MOSAIC"
],
  "ImagingFrequency": 123.259,
  "InPlanePhaseEncodingDirectionDICOM": "COL",
  "InstitutionAddress": "Chemin Queen-Mary 4565,Montreal,District,CA,H3W 1W5",
  "InstitutionName": "IUGM",
  "InstitutionalDepartmentName": "Department",
  "MRAcquisitionType": "2D",
  "MagneticFieldStrength": 3,
  "Manufacturer": "Siemens",
  "ManufacturersModelName": "Prisma_fit",
  "MatrixCoilMode": "SENSE",
  "Modality": "MR",
  "MultibandAccelerationFactor": 4,
  "PartialFourier": 1,
  "PatientPosition": "HFS",
  "PercentPhaseFOV": 100,
  "PercentSampling": 100,
  "PhaseEncodingDirection": "j",
  "PhaseEncodingSteps": 104,
  "PhaseResolution": 1,
  "PixelBandwidth": 2290,
  "ProcedureStepDescription": "games^mariostars",
  "ProtocolName": "func_task-mariostars_run-02",
  "PulseSequenceDetails": "%CustomerSeq%\\cmrr_mbep2d_bold",
  "ReceiveCoilActiveElements": "HC1-7;NC1,2",
  "ReceiveCoilName": "HeadNeck_64",
  "ReconMatrixPE": 104,
  "RepetitionTime": 1.49,
  "SAR": 0.0647001,
  "ScanOptions": "FS",
  "ScanningSequence": "EP",
  "SequenceName": "epfid2d1_104",
  "SequenceVariant": "SK\\SS",
  "SeriesDescription": "func_task-mariostars_run-02",
  "SeriesNumber": 14,
  "ShimSetting": [639, -7229, -8773, 723, 70, -38, 90, -8],
  "SliceThickness": 2,
  "SliceTiming": [0, 0.785, 0.0975, 0.8825, 0.195, 0.98, 0.295, 1.0775, 0.3925, 1.175, 0.49, 1.275, 0.5875, 1.3725, 0.685, 0, 0.785, 0.0975, 0.8825, 0.195, 0.98, 0.295, 1.0775, 0.3925, 1.175, 0.49, 1.275, 0.5875, 1.3725, 0.685, 0, 0.785, 0.0975, 0.8825, 0.195, 0.98, 0.295, 1.0775, 0.3925, 1.175, 0.49, 1.275, 0.5875, 1.3725, 0.685, 0, 0.785, 0.0975, 0.8825, 0.195, 0.98, 0.295, 1.0775, 0.3925, 1.175, 0.49, 1.275, 0.5875, 1.3725, 0.685],
  "SoftwareVersions": "syngo MR E11",
  "SpacingBetweenSlices": 2,
  "StationName": "MRC35049",
  "TaskName": "mariostars",
  "TotalReadoutTime": 0.0576811,
  "TxRefAmp": 235.255,
  "WipMemBlock": "1e8d0c99-6ba6-4d3d-ad61-434864094a99||Sequence: R017 ve11c/master r/75a17815+; Jun 28 2022 16:32:11 by eja",
  "dcmmeta_affine": [
    [-1.999340534210205, -0.0027915379032492638, 0.05128132924437523, 107.58290100097656],
    [-0.013936718925833702, 1.9515963792800903, -0.4371238648891449, -76.14666748046875],
    [0.04943010210990906, 0.43733707070350647, 1.950972318649292, -54.796180725097656],
    [0.0, 0.0, 0.0, 1.0]
],
  "dcmmeta_reorient_transform": [
    [0.0, -1.0, 0.0, 103.0],
    [1.0, 0.0, 0.0, 0.0],
    [0.0, 0.0, 1.0, 0.0],
    [0.0, 0.0, 0.0, 1.0]
],
  "dcmmeta_shape": [104, 104, 60, 428],
  "dcmmeta_slice_dim": 2,
  "dcmmeta_version": 0.6,
  "global": {
    "const": {
      "AcquisitionMatrix": [104, 0, 0, 104],
      "AngioFlag": "N",
      "BitsAllocated": 16,
      "BitsStored": 16,
      "BodyPartExamined": "BRAIN",
      "Columns": 832,
      "EchoNumbers": 1,
      "EchoTime": 37.0,
      "EchoTrainLength": 104,
      "FlipAngle": 52.0,
      "HighBit": 15,
      "ImageOrientationPatient": [0.99967024973707, 0.00696835953501, 0.02471505120408, -0.0013957689737, 0.97579819888406, -0.2186685319921],
      "ImagePositionPatient": [-834.03919123157, -840.3218165064, 131.44767278569],
      "ImageType": [
        "ORIGINAL",
        "PRIMARY",
        "M",
        "MB",
        "ND",
        "MOSAIC"
],
      "ImagedNucleus": "1H",
      "ImagingFrequency": 123.258808,
      "InPlanePhaseEncodingDirection": "COL",
      "MRAcquisitionType": "2D",
      "MagneticFieldStrength": 3.0,
      "Manufacturer": "SIEMENS",
      "ManufacturerModelName": "Prisma_fit",
      "Modality": "MR",
      "NumberOfAverages": 1.0,
      "NumberOfPhaseEncodingSteps": 104,
      "PercentPhaseFieldOfView": 100.0,
      "PercentSampling": 100.0,
      "PerformedProcedureStepStartTime": "134826.129000",
      "PhotometricInterpretation": "MONOCHROME2",
      "PixelBandwidth": 2290.0,
      "PixelRepresentation": 0,
      "PixelSpacing": [2.0, 2.0],
      "ProtocolName": "func_task-mariostars_run-02",
      "RepetitionTime": 1490.0,
      "Rows": 832,
      "SAR": 0.06470007571428,
      "SamplesPerPixel": 1,
      "ScanOptions": "FS",
      "ScanningSequence": "EP",
      "SequenceName": "epfid2d1_104",
      "SequenceVariant": [
        "SK",
        "SS"
],
      "SeriesDescription": "func_task-mariostars_run-02",
      "SeriesNumber": 14,
      "SeriesTime": "140810.007000",
      "SliceLocation": -34.051654477824,
      "SliceThickness": 2.0,
      "SmallestImagePixelValue": 0,
      "SoftwareVersions": "syngo MR E11",
      "SpacingBetweenSlices": 2.0000000357774,
      "SpecificCharacterSet": "ISO_IR 100",
      "StudyID": "1",
      "StudyTime": "134826.052000",
      "TransmitCoilName": "Body",
      "VariableFlipAngleFlag": "N",
      "WindowCenterWidthExplanation": "Algo1",
      "dBdt": 0.0},
    "slices": {}
  },
  "time": {
    "samples": {
      "AcquisitionNumber": [1, 2, 3, 4, 5, 6, 7, 8, 9, 10, 11, 12, 13, 14, 15, 16, 17, 18, 19, 20, 21, 22, 23, 24, 25, 26, 27, 28, 29, 30, 31, 32, 33, 34, 35, 36, 37, 38, 39, 40, 41, 42, 43, 44, 45, 46, 47, 48, 49, 50, 51, 52, 53, 54, 55, 56, 57, 58, 59, 60, 61, 62, 63, 64, 65, 66, 67, 68, 69, 70, 71, 72, 73, 74, 75, 76, 77, 78, 79, 80, 81, 82, 83, 84, 85, 86, 87, 88, 89, 90, 91, 92, 93, 94, 95, 96, 97, 98, 99, 100, 101, 102, 103, 104, 105, 106, 107, 108, 109, 110, 111, 112, 113, 114, 115, 116, 117, 118, 119, 120, 121, 122, 123, 124, 125, 126, 127, 128, 129, 130, 131, 132, 133, 134, 135, 136, 137, 138, 139, 140, 141, 142, 143, 144, 145, 146, 147, 148, 149, 150, 151, 152, 153, 154, 155, 156, 157, 158, 159, 160, 161, 162, 163, 164, 165, 166, 167, 168, 169, 170, 171, 172, 173, 174, 175, 176, 177, 178, 179, 180, 181, 182, 183, 184, 185, 186, 187, 188, 189, 190, 191, 192, 193, 194, 195, 196, 197, 198, 199, 200, 201, 202, 203, 204, 205, 206, 207, 208, 209, 210, 211, 212, 213, 214, 215, 216, 217, 218, 219, 220, 221, 222, 223, 224, 225, 226, 227, 228, 229, 230, 231, 232, 233, 234, 235, 236, 237, 238, 239, 240, 241, 242, 243, 244, 245, 246, 247, 248, 249, 250, 251, 252, 253, 254, 255, 256, 257, 258, 259, 260, 261, 262, 263, 264, 265, 266, 267, 268, 269, 270, 271, 272, 273, 274, 275, 276, 277, 278, 279, 280, 281, 282, 283, 284, 285, 286, 287, 288, 289, 290, 291, 292, 293, 294, 295, 296, 297, 298, 299, 300, 301, 302, 303, 304, 305, 306, 307, 308, 309, 310, 311, 312, 313, 314, 315, 316, 317, 318, 319, 320, 321, 322, 323, 324, 325, 326, 327, 328, 329, 330, 331, 332, 333, 334, 335, 336, 337, 338, 339, 340, 341, 342, 343, 344, 345, 346, 347, 348, 349, 350, 351, 352, 353, 354, 355, 356, 357, 358, 359, 360, 361, 362, 363, 364, 365, 366, 367, 368, 369, 370, 371, 372, 373, 374, 375, 376, 377, 378, 379, 380, 381, 382, 383, 384, 385, 386, 387, 388, 389, 390, 391, 392, 393, 394, 395, 396, 397, 398, 399, 400, 401, 402, 403, 404, 405, 406, 407, 408, 409, 410, 411, 412, 413, 414, 415, 416, 417, 418, 419, 420, 421, 422, 423, 424, 425, 426, 427, 428],
      "AcquisitionTime": ["140649.645000", "140651.135000", "140652.625000", "140654.115000", "140655.605000", "140657.095000", "140658.585000", "140700.075000", "140701.565000", "140703.055000", "140704.545000", "140706.035000", "140707.525000", "140709.015000", "140710.505000", "140711.995000", "140713.485000", "140714.975000", "140716.465000", "140717.955000", "140719.445000", "140720.935000", "140722.425000", "140723.915000", "140725.405000", "140726.895000", "140728.385000", "140729.875000", "140731.365000", "140732.855000", "140734.345000", "140735.835000", "140737.325000", "140738.815000", "140740.305000", "140741.795000", "140743.285000", "140744.775000", "140746.265000", "140747.755000", "140749.245000", "140750.735000", "140752.225000", "140753.715000", "140755.205000", "140756.695000", "140758.185000", "140759.675000", "140801.165000", "140802.655000", "140804.145000", "140805.635000", "140807.125000", "140808.615000", "140810.105000", "140811.595000", "140813.085000", "140814.575000", "140816.065000", "140817.555000", "140819.045000", "140820.535000", "140822.025000", "140823.515000", "140825.005000", "140826.495000", "140827.985000", "140829.475000", "140830.965000", "140832.455000", "140833.945000", "140835.435000", "140836.925000", "140838.415000", "140839.905000", "140841.395000", "140842.885000", "140844.375000", "140845.865000", "140847.355000", "140848.845000", "140850.335000", "140851.825000", "140853.315000", "140854.805000", "140856.295000", "140857.785000", "140859.275000", "140900.765000", "140902.255000", "140903.745000", "140905.235000", "140906.725000", "140908.215000", "140909.705000", "140911.195000", "140912.685000", "140914.175000", "140915.665000", "140917.155000", "140918.645000", "140920.135000", "140921.625000", "140923.115000", "140924.605000", "140926.095000", "140927.585000", "140929.075000", "140930.565000", "140932.055000", "140933.545000", "140935.035000", "140936.525000", "140938.015000", "140939.505000", "140940.995000", "140942.485000", "140943.975000", "140945.465000", "140946.955000", "140948.445000", "140949.935000", "140951.425000", "140952.915000", "140954.405000", "140955.895000", "140957.385000", "140958.875000", "141000.365000", "141001.855000", "141003.345000", "141004.835000", "141006.325000", "141007.815000", "141009.305000", "141010.795000", "141012.285000", "141013.775000", "141015.265000", "141016.755000", "141018.245000", "141019.735000", "141021.225000", "141022.715000", "141024.205000", "141025.695000", "141027.185000", "141028.675000", "141030.165000", "141031.655000", "141033.145000", "141034.635000", "141036.125000", "141037.615000", "141039.105000", "141040.595000", "141042.085000", "141043.575000", "141045.065000", "141046.555000", "141048.045000", "141049.535000", "141051.025000", "141052.515000", "141054.005000", "141055.495000", "141056.985000", "141058.475000", "141059.965000", "141101.455000", "141102.945000", "141104.435000", "141105.925000", "141107.415000", "141108.905000", "141110.395000", "141111.885000", "141113.375000", "141114.865000", "141116.355000", "141117.845000", "141119.335000", "141120.825000", "141122.315000", "141123.805000", "141125.295000", "141126.785000", "141128.275000", "141129.765000", "141131.255000", "141132.745000", "141134.235000", "141135.725000", "141137.215000", "141138.705000", "141140.195000", "141141.685000", "141143.175000", "141144.665000", "141146.155000", "141147.645000", "141149.135000", "141150.625000", "141152.115000", "141153.605000", "141155.095000", "141156.585000", "141158.075000", "141159.565000", "141201.055000", "141202.545000", "141204.035000", "141205.525000", "141207.015000", "141208.505000", "141209.995000", "141211.485000", "141212.975000", "141214.465000", "141215.955000", "141217.445000", "141218.935000", "141220.425000", "141221.915000", "141223.405000", "141224.895000", "141226.385000", "141227.875000", "141229.365000", "141230.855000", "141232.345000", "141233.835000", "141235.325000", "141236.815000", "141238.305000", "141239.795000", "141241.285000", "141242.775000", "141244.265000", "141245.755000", "141247.245000", "141248.735000", "141250.225000", "141251.715000", "141253.205000", "141254.695000", "141256.185000", "141257.675000", "141259.165000", "141300.655000", "141302.145000", "141303.635000", "141305.125000", "141306.615000", "141308.105000", "141309.595000", "141311.085000", "141312.575000", "141314.065000", "141315.555000", "141317.045000", "141318.535000", "141320.025000", "141321.515000", "141323.005000", "141324.495000", "141325.985000", "141327.475000", "141328.965000", "141330.455000", "141331.945000", "141333.435000", "141334.925000", "141336.415000", "141337.905000", "141339.395000", "141340.885000", "141342.375000", "141343.865000", "141345.355000", "141346.845000", "141348.335000", "141349.825000", "141351.315000", "141352.805000", "141354.295000", "141355.785000", "141357.275000", "141358.765000", "141400.255000", "141401.745000", "141403.235000", "141404.725000", "141406.215000", "141407.705000", "141409.195000", "141410.685000", "141412.175000", "141413.665000", "141415.155000", "141416.645000", "141418.135000", "141419.625000", "141421.115000", "141422.605000", "141424.095000", "141425.585000", "141427.075000", "141428.565000", "141430.055000", "141431.545000", "141433.035000", "141434.525000", "141436.015000", "141437.505000", "141438.995000", "141440.485000", "141441.975000", "141443.465000", "141444.955000", "141446.445000", "141447.935000", "141449.425000", "141450.915000", "141452.405000", "141453.895000", "141455.385000", "141456.875000", "141458.365000", "141459.855000", "141501.345000", "141502.835000", "141504.325000", "141505.815000", "141507.305000", "141508.795000", "141510.285000", "141511.775000", "141513.265000", "141514.755000", "141516.245000", "141517.735000", "141519.225000", "141520.715000", "141522.205000", "141523.695000", "141525.185000", "141526.675000", "141528.165000", "141529.655000", "141531.145000", "141532.635000", "141534.125000", "141535.615000", "141537.105000", "141538.595000", "141540.085000", "141541.575000", "141543.065000", "141544.555000", "141546.045000", "141547.535000", "141549.025000", "141550.515000", "141552.005000", "141553.495000", "141554.985000", "141556.475000", "141557.965000", "141559.455000", "141600.945000", "141602.435000", "141603.925000", "141605.415000", "141606.905000", "141608.395000", "141609.885000", "141611.375000", "141612.865000", "141614.355000", "141615.845000", "141617.335000", "141618.825000", "141620.315000", "141621.805000", "141623.295000", "141624.785000", "141626.275000", "141627.765000", "141629.255000", "141630.745000", "141632.235000", "141633.725000", "141635.215000", "141636.705000", "141638.195000", "141639.685000", "141641.175000", "141642.665000", "141644.155000", "141645.645000", "141647.135000", "141648.625000", "141650.115000", "141651.605000", "141653.095000", "141654.585000", "141656.075000", "141657.565000", "141659.055000", "141700.545000", "141702.035000", "141703.525000", "141705.015000", "141706.505000", "141707.995000", "141709.485000", "141710.975000", "141712.465000", "141713.955000", "141715.445000", "141716.935000", "141718.425000", "141719.915000", "141721.405000", "141722.895000", "141724.385000", "141725.875000"],
      "ContentTime": ["140810.010000", "140810.014000", "140810.017000", "140810.021000", "140810.024000", "140810.027000", "140810.031000", "140810.034000", "140810.037000", "140810.041000", "140810.044000", "140810.047000", "140810.050000", "140810.054000", "140810.057000", "140810.060000", "140810.064000", "140810.067000", "140810.070000", "140810.074000", "140810.077000", "140810.080000", "140810.091000", "140810.094000", "140810.097000", "140810.100000", "140810.104000", "140810.107000", "140810.110000", "140829.952000", "140829.956000", "140829.959000", "140829.962000", "140829.966000", "140829.969000", "140829.977000", "140829.980000", "140829.984000", "140829.987000", "140829.990000", "140829.994000", "140830.005000", "140830.008000", "140830.012000", "140830.015000", "140830.018000", "140830.045000", "140830.048000", "140830.051000", "140849.952000", "140849.956000", "140849.959000", "140849.963000", "140849.966000", "140849.969000", "140849.973000", "140849.976000", "140849.979000", "140849.983000", "140849.987000", "140849.998000", "140850.003000", "140850.007000", "140850.010000", "140850.014000", "140850.017000", "140850.021000", "140850.024000", "140850.027000", "140909.952000", "140909.956000", "140909.959000", "140909.962000", "140909.966000", "140909.969000", "140909.972000", "140909.976000", "140909.979000", "140909.982000", "140909.986000", "140909.989000", "140909.992000", "140909.995000", "140910.000000", "140910.003000", "140910.007000", "140910.010000", "140910.013000", "140910.025000", "140910.028000", "140949.952000", "140949.956000", "140949.959000", "140949.962000", "140949.966000", "140949.969000", "140949.972000", "140949.976000", "140949.979000", "140949.982000", "140949.986000", "140949.989000", "140949.992000", "140949.996000", "140950.000000", "140950.003000", "140950.007000", "140950.010000", "140950.013000", "140950.016000", "140950.020000", "140950.023000", "140950.026000", "140950.030000", "140950.033000", "140950.036000", "140950.040000", "140950.043000", "140950.046000", "140950.049000", "141029.952000", "141029.956000", "141029.959000", "141029.963000", "141029.966000", "141029.969000", "141029.972000", "141029.976000", "141029.979000", "141029.982000", "141029.986000", "141029.989000", "141029.992000", "141029.996000", "141030.000000", "141030.003000", "141030.007000", "141030.010000", "141030.013000", "141030.017000", "141030.020000", "141030.023000", "141030.027000", "141030.030000", "141030.033000", "141030.047000", "141030.050000", "141109.952000", "141109.956000", "141109.959000", "141109.963000", "141109.966000", "141109.969000", "141109.973000", "141109.976000", "141109.979000", "141109.983000", "141109.986000", "141109.989000", "141109.993000", "141109.996000", "141110.000000", "141110.004000", "141110.007000", "141110.010000", "141110.014000", "141110.017000", "141110.020000", "141110.024000", "141110.027000", "141110.030000", "141110.034000", "141110.037000", "141110.040000", "141149.952000", "141149.956000", "141149.959000", "141149.963000", "141149.966000", "141149.969000", "141149.973000", "141149.976000", "141149.979000", "141149.983000", "141149.986000", "141149.989000", "141149.993000", "141149.996000", "141150.000000", "141150.004000", "141150.008000", "141150.011000", "141150.014000", "141150.017000", "141150.021000", "141150.024000", "141150.027000", "141150.031000", "141150.034000", "141150.037000", "141229.952000", "141229.956000", "141229.959000", "141229.963000", "141229.966000", "141229.969000", "141229.973000", "141229.976000", "141229.980000", "141229.983000", "141229.986000", "141229.989000", "141229.993000", "141229.996000", "141230.000000", "141230.004000", "141230.007000", "141230.011000", "141230.014000", "141230.017000", "141230.020000", "141230.024000", "141230.027000", "141230.031000", "141230.034000", "141230.037000", "141230.041000", "141309.952000", "141309.956000", "141309.959000", "141309.963000", "141309.966000", "141309.970000", "141309.973000", "141309.976000", "141309.980000", "141309.983000", "141309.986000", "141309.990000", "141309.993000", "141309.997000", "141310.015000", "141310.018000", "141310.021000", "141310.025000", "141310.028000", "141310.031000", "141310.035000", "141310.038000", "141310.041000", "141310.045000", "141310.048000", "141310.052000", "141310.055000", "141349.952000", "141349.956000", "141349.959000", "141349.963000", "141349.966000", "141349.969000", "141349.973000", "141349.976000", "141349.979000", "141349.983000", "141349.986000", "141349.989000", "141349.993000", "141349.996000", "141350.001000", "141350.004000", "141350.007000", "141350.010000", "141350.014000", "141350.017000", "141350.020000", "141350.024000", "141350.027000", "141350.030000", "141350.034000", "141350.037000", "141350.040000", "141429.952000", "141429.956000", "141429.959000", "141429.963000", "141429.966000", "141429.969000", "141429.980000", "141429.983000", "141429.986000", "141429.990000", "141429.993000", "141429.996000", "141430.001000", "141430.004000", "141430.007000", "141430.011000", "141430.014000", "141430.018000", "141430.021000", "141430.024000", "141430.028000", "141430.031000", "141430.034000", "141430.038000", "141430.041000", "141430.044000", "141430.048000", "141509.952000", "141509.956000", "141509.959000", "141509.963000", "141509.966000", "141509.969000", "141509.973000", "141509.976000", "141509.980000", "141509.983000", "141509.986000", "141509.990000", "141509.993000", "141509.996000", "141510.001000", "141510.004000", "141510.007000", "141510.011000", "141510.014000", "141510.017000", "141510.021000", "141510.024000", "141510.027000", "141510.031000", "141510.034000", "141510.037000", "141510.045000", "141549.953000", "141549.956000", "141549.960000", "141549.963000", "141549.967000", "141549.971000", "141549.975000", "141549.978000", "141549.982000", "141549.986000", "141549.990000", "141549.993000", "141549.997000", "141550.001000", "141550.005000", "141550.008000", "141550.011000", "141550.015000", "141550.018000", "141550.021000", "141550.025000", "141550.028000", "141550.031000", "141550.035000", "141550.038000", "141550.041000", "141629.952000", "141629.956000", "141629.959000", "141629.963000", "141629.966000", "141629.969000", "141629.974000", "141629.978000", "141629.981000", "141629.984000", "141629.988000", "141629.991000", "141629.994000", "141629.998000", "141630.002000", "141630.005000", "141630.009000", "141630.012000", "141630.015000", "141630.019000", "141630.022000", "141630.025000", "141630.029000", "141630.032000", "141630.035000", "141630.039000", "141630.042000", "141709.952000", "141709.956000", "141709.959000", "141709.963000", "141709.966000", "141709.969000", "141709.973000", "141709.976000", "141709.979000", "141709.982000", "141709.986000", "141709.989000", "141709.993000", "141709.996000", "141710.000000", "141710.004000", "141710.007000", "141710.010000", "141710.013000", "141710.017000", "141710.020000", "141710.023000", "141710.040000", "141710.044000", "141710.047000", "141710.050000", "141710.054000", "141729.182000", "141729.186000", "141729.190000", "141729.193000", "141729.197000", "141729.201000", "141729.204000", "141729.208000", "141729.212000", "141729.216000", "141729.219000", "141729.223000", "141729.227000"],
      "InstanceCreationTime": ["140810.010000", "140810.014000", "140810.017000", "140810.021000", "140810.024000", "140810.027000", "140810.031000", "140810.034000", "140810.037000", "140810.041000", "140810.044000", "140810.047000", "140810.050000", "140810.054000", "140810.057000", "140810.060000", "140810.064000", "140810.067000", "140810.070000", "140810.074000", "140810.077000", "140810.080000", "140810.091000", "140810.094000", "140810.097000", "140810.100000", "140810.104000", "140810.107000", "140810.110000", "140829.952000", "140829.956000", "140829.959000", "140829.962000", "140829.966000", "140829.969000", "140829.977000", "140829.980000", "140829.984000", "140829.987000", "140829.990000", "140829.994000", "140830.005000", "140830.008000", "140830.012000", "140830.015000", "140830.018000", "140830.045000", "140830.048000", "140830.051000", "140849.952000", "140849.956000", "140849.959000", "140849.963000", "140849.966000", "140849.969000", "140849.973000", "140849.976000", "140849.979000", "140849.983000", "140849.987000", "140849.998000", "140850.003000", "140850.007000", "140850.010000", "140850.014000", "140850.017000", "140850.021000", "140850.024000", "140850.027000", "140909.952000", "140909.956000", "140909.959000", "140909.962000", "140909.966000", "140909.969000", "140909.972000", "140909.976000", "140909.979000", "140909.982000", "140909.986000", "140909.989000", "140909.992000", "140909.995000", "140910.000000", "140910.003000", "140910.007000", "140910.010000", "140910.013000", "140910.025000", "140910.028000", "140949.952000", "140949.956000", "140949.959000", "140949.962000", "140949.966000", "140949.969000", "140949.972000", "140949.976000", "140949.979000", "140949.982000", "140949.986000", "140949.989000", "140949.992000", "140949.996000", "140950.000000", "140950.003000", "140950.007000", "140950.010000", "140950.013000", "140950.016000", "140950.020000", "140950.023000", "140950.026000", "140950.030000", "140950.033000", "140950.036000", "140950.040000", "140950.043000", "140950.046000", "140950.049000", "141029.952000", "141029.956000", "141029.959000", "141029.963000", "141029.966000", "141029.969000", "141029.972000", "141029.976000", "141029.979000", "141029.982000", "141029.986000", "141029.989000", "141029.992000", "141029.996000", "141030.000000", "141030.003000", "141030.007000", "141030.010000", "141030.013000", "141030.017000", "141030.020000", "141030.023000", "141030.027000", "141030.030000", "141030.033000", "141030.047000", "141030.050000", "141109.952000", "141109.956000", "141109.959000", "141109.963000", "141109.966000", "141109.969000", "141109.973000", "141109.976000", "141109.979000", "141109.983000", "141109.986000", "141109.989000", "141109.993000", "141109.996000", "141110.000000", "141110.004000", "141110.007000", "141110.010000", "141110.014000", "141110.017000", "141110.020000", "141110.024000", "141110.027000", "141110.030000", "141110.034000", "141110.037000", "141110.040000", "141149.952000", "141149.956000", "141149.959000", "141149.963000", "141149.966000", "141149.969000", "141149.973000", "141149.976000", "141149.979000", "141149.983000", "141149.986000", "141149.989000", "141149.993000", "141149.996000", "141150.000000", "141150.004000", "141150.008000", "141150.011000", "141150.014000", "141150.017000", "141150.021000", "141150.024000", "141150.027000", "141150.031000", "141150.034000", "141150.037000", "141229.952000", "141229.956000", "141229.959000", "141229.963000", "141229.966000", "141229.969000", "141229.973000", "141229.976000", "141229.980000", "141229.983000", "141229.986000", "141229.989000", "141229.993000", "141229.996000", "141230.000000", "141230.004000", "141230.007000", "141230.011000", "141230.014000", "141230.017000", "141230.020000", "141230.024000", "141230.027000", "141230.031000", "141230.034000", "141230.037000", "141230.041000", "141309.952000", "141309.956000", "141309.959000", "141309.963000", "141309.966000", "141309.970000", "141309.973000", "141309.976000", "141309.980000", "141309.983000", "141309.986000", "141309.990000", "141309.993000", "141309.997000", "141310.015000", "141310.018000", "141310.021000", "141310.025000", "141310.028000", "141310.031000", "141310.035000", "141310.038000", "141310.041000", "141310.045000", "141310.048000", "141310.052000", "141310.055000", "141349.952000", "141349.956000", "141349.959000", "141349.963000", "141349.966000", "141349.969000", "141349.973000", "141349.976000", "141349.979000", "141349.983000", "141349.986000", "141349.989000", "141349.993000", "141349.996000", "141350.001000", "141350.004000", "141350.007000", "141350.010000", "141350.014000", "141350.017000", "141350.020000", "141350.024000", "141350.027000", "141350.030000", "141350.034000", "141350.037000", "141350.040000", "141429.952000", "141429.956000", "141429.959000", "141429.963000", "141429.966000", "141429.969000", "141429.980000", "141429.983000", "141429.986000", "141429.990000", "141429.993000", "141429.996000", "141430.001000", "141430.004000", "141430.007000", "141430.011000", "141430.014000", "141430.018000", "141430.021000", "141430.024000", "141430.028000", "141430.031000", "141430.034000", "141430.038000", "141430.041000", "141430.044000", "141430.048000", "141509.952000", "141509.956000", "141509.959000", "141509.963000", "141509.966000", "141509.969000", "141509.973000", "141509.976000", "141509.980000", "141509.983000", "141509.986000", "141509.990000", "141509.993000", "141509.996000", "141510.001000", "141510.004000", "141510.007000", "141510.011000", "141510.014000", "141510.017000", "141510.021000", "141510.024000", "141510.027000", "141510.031000", "141510.034000", "141510.037000", "141510.045000", "141549.953000", "141549.956000", "141549.960000", "141549.963000", "141549.967000", "141549.971000", "141549.975000", "141549.978000", "141549.982000", "141549.986000", "141549.990000", "141549.993000", "141549.997000", "141550.001000", "141550.005000", "141550.008000", "141550.011000", "141550.015000", "141550.018000", "141550.021000", "141550.025000", "141550.028000", "141550.031000", "141550.035000", "141550.038000", "141550.041000", "141629.952000", "141629.956000", "141629.959000", "141629.963000", "141629.966000", "141629.969000", "141629.974000", "141629.978000", "141629.981000", "141629.984000", "141629.988000", "141629.991000", "141629.994000", "141629.998000", "141630.002000", "141630.005000", "141630.009000", "141630.012000", "141630.015000", "141630.019000", "141630.022000", "141630.025000", "141630.029000", "141630.032000", "141630.035000", "141630.039000", "141630.042000", "141709.952000", "141709.956000", "141709.959000", "141709.963000", "141709.966000", "141709.969000", "141709.973000", "141709.976000", "141709.979000", "141709.982000", "141709.986000", "141709.989000", "141709.993000", "141709.996000", "141710.000000", "141710.004000", "141710.007000", "141710.010000", "141710.013000", "141710.017000", "141710.020000", "141710.023000", "141710.040000", "141710.044000", "141710.047000", "141710.050000", "141710.054000", "141729.182000", "141729.186000", "141729.190000", "141729.193000", "141729.197000", "141729.201000", "141729.204000", "141729.208000", "141729.212000", "141729.216000", "141729.219000", "141729.223000", "141729.227000"],
