{
  "AcquisitionMatrixPE": 104,
  "AcquisitionNumber": 1,
  "AcquisitionTime": "13:52:34.330000",
  "BandwidthPerPixelPhaseEncode": 17.17,
  "BaseResolution": 104,
  "BodyPartExamined": "BRAIN",
  "CoilCombinationMethod": "Sum of Squares",
  "ConsistencyInfo": "N4_VE11C_LATEST_20160120",
  "ConversionSoftware": "dcm2niix",
  "ConversionSoftwareVersion": "v1.0.20211006",
  "DerivedVendorReportedEchoSpacing": 0.000560011,
  "DeviceSerialNumber": "167006",
  "DwellTime": 2.1e-06,
  "EchoTime": 0.037,
  "EchoTime1": 0.037,
  "EchoTime2": 0.001,
  "EchoTrainLength": 104,
  "EffectiveEchoSpacing": 0.000560011,
  "FlipAngle": 52,
  "HeudiconvVersion": "0.11.3.post9+gc939bf8",
  "ImageComments": "Unaliased MB4/PE3/LB",
  "ImageOrientationPatientDICOM": [0.99967, 0.00696836, 0.0247151, -0.00139577, 0.975798, -0.218669],
  "ImageOrientationText": "Tra>Cor(-12.6)>Sag(1.5)",
  "ImageType": [
    "ORIGINAL",
    "PRIMARY",
    "P",
    "MB",
    "ND",
    "MOSAIC",
    "PHASE"
],
  "ImagingFrequency": 123.259,
  "InPlanePhaseEncodingDirectionDICOM": "COL",
  "InstitutionAddress": "Chemin Queen-Mary 4565,Montreal,District,CA,H3W 1W5",
  "InstitutionName": "IUGM",
  "InstitutionalDepartmentName": "Department",
  "MRAcquisitionType": "2D",
  "MagneticFieldStrength": 3,
  "Manufacturer": "Siemens",
  "ManufacturersModelName": "Prisma_fit",
  "MatrixCoilMode": "SENSE",
  "Modality": "MR",
  "MultibandAccelerationFactor": 4,
  "PartialFourier": 1,
  "PatientPosition": "HFS",
  "PercentPhaseFOV": 100,
  "PercentSampling": 100,
  "PhaseEncodingDirection": "j",
  "PhaseEncodingSteps": 104,
  "PhaseResolution": 1,
  "PixelBandwidth": 2290,
  "ProcedureStepDescription": "games^mariostars",
  "ProtocolName": "func_task-mariostars_run-01",
  "PulseSequenceDetails": "%CustomerSeq%\\cmrr_mbep2d_bold",
  "ReceiveCoilActiveElements": "HC1-7;NC1,2",
  "ReceiveCoilName": "HeadNeck_64",
  "ReconMatrixPE": 104,
  "RepetitionTime": 1.49,
  "SAR": 0.0647001,
  "ScanOptions": "FS",
  "ScanningSequence": "EP",
  "SequenceName": "epfid2d1_104",
  "SequenceVariant": "SK\\SS",
  "SeriesDescription": "func_task-mariostars_run-01",
  "SeriesNumber": 12,
  "ShimSetting": [639, -7229, -8773, 723, 70, -38, 90, -8],
  "SliceThickness": 2,
  "SliceTiming": [0, 0.785, 0.1, 0.8825, 0.1975, 0.98, 0.295, 1.08, 0.3925, 1.1775, 0.49, 1.275, 0.59, 1.3725, 0.6875, 0, 0.785, 0.1, 0.8825, 0.1975, 0.98, 0.295, 1.08, 0.3925, 1.1775, 0.49, 1.275, 0.59, 1.3725, 0.6875, 0, 0.785, 0.1, 0.8825, 0.1975, 0.98, 0.295, 1.08, 0.3925, 1.1775, 0.49, 1.275, 0.59, 1.3725, 0.6875, 0, 0.785, 0.1, 0.8825, 0.1975, 0.98, 0.295, 1.08, 0.3925, 1.1775, 0.49, 1.275, 0.59, 1.3725, 0.6875],
  "SoftwareVersions": "syngo MR E11",
  "SpacingBetweenSlices": 2,
  "StationName": "MRC35049",
  "TaskName": "mariostars",
  "TotalReadoutTime": 0.0576811,
  "TxRefAmp": 235.255,
  "WipMemBlock": "e8705d38-235a-492d-a684-116d7bd689b9||Sequence: R017 ve11c/master r/75a17815+; Jun 28 2022 16:32:11 by eja",
  "dcmmeta_affine": [
    [-1.999340534210205, -0.0027915379032492638, 0.05128132924437523, 107.58290100097656],
    [-0.013936718925833702, 1.9515963792800903, -0.4371238648891449, -76.14666748046875],
    [0.04943010210990906, 0.43733707070350647, 1.950972318649292, -54.796180725097656],
    [0.0, 0.0, 0.0, 1.0]
],
  "dcmmeta_reorient_transform": [
    [0.0, -1.0, 0.0, 103.0],
    [1.0, 0.0, 0.0, 0.0],
    [0.0, 0.0, 1.0, 0.0],
    [0.0, 0.0, 0.0, 1.0]
],
  "dcmmeta_shape": [104, 104, 60, 510],
  "dcmmeta_slice_dim": 2,
  "dcmmeta_version": 0.6,
  "global": {
    "const": {
      "AcquisitionMatrix": [104, 0, 0, 104],
      "AngioFlag": "N",
      "BitsAllocated": 16,
      "BitsStored": 16,
      "BodyPartExamined": "BRAIN",
      "Columns": 832,
      "EchoNumbers": 1,
      "EchoTime": 37.0,
      "EchoTrainLength": 104,
      "FlipAngle": 52.0,
      "HighBit": 15,
      "ImageOrientationPatient": [0.99967024973707, 0.00696835953501, 0.02471505120408, -0.0013957689737, 0.97579819888406, -0.2186685319921],
      "ImagePositionPatient": [-834.03919123157, -840.3218165064, 131.44767278569],
      "ImageType": [
        "ORIGINAL",
        "PRIMARY",
        "P",
        "MB",
        "ND",
        "MOSAIC"
],
      "ImagedNucleus": "1H",
      "ImagingFrequency": 123.258798,
      "InPlanePhaseEncodingDirection": "COL",
      "LargestImagePixelValue": 4095,
      "MRAcquisitionType": "2D",
      "MagneticFieldStrength": 3.0,
      "Manufacturer": "SIEMENS",
      "ManufacturerModelName": "Prisma_fit",
      "Modality": "MR",
      "NumberOfAverages": 1.0,
      "NumberOfPhaseEncodingSteps": 104,
      "PercentPhaseFieldOfView": 100.0,
      "PercentSampling": 100.0,
      "PerformedProcedureStepStartTime": "134826.129000",
      "PhotometricInterpretation": "MONOCHROME2",
      "PixelBandwidth": 2290.0,
      "PixelRepresentation": 0,
      "PixelSpacing": [2.0, 2.0],
      "ProtocolName": "func_task-mariostars_run-01",
      "RepetitionTime": 1490.0,
      "RescaleIntercept": -4096.0,
      "RescaleSlope": 2.0,
      "RescaleType": "US",
      "Rows": 832,
      "SAR": 0.06470007571428,
      "SamplesPerPixel": 1,
      "ScanOptions": "FS",
      "ScanningSequence": "EP",
      "SequenceName": "epfid2d1_104",
      "SequenceVariant": [
        "SK",
        "SS"
],
      "SeriesDescription": "func_task-mariostars_run-01",
      "SeriesNumber": 12,
      "SeriesTime": "135332.914000",
      "SliceLocation": -34.051654477824,
      "SliceThickness": 2.0,
      "SmallestImagePixelValue": 0,
      "SoftwareVersions": "syngo MR E11",
      "SpacingBetweenSlices": 2.0000000357774,
      "SpecificCharacterSet": "ISO_IR 100",
      "StudyID": "1",
      "StudyTime": "134826.052000",
      "TransmitCoilName": "Body",
      "VariableFlipAngleFlag": "N",
      "WindowCenterWidthExplanation": "Algo1",
      "dBdt": 0.0},
    "slices": {}
  },
  "time": {
    "samples": {
      "AcquisitionNumber": [1, 2, 3, 4, 5, 6, 7, 8, 9, 10, 11, 12, 13, 14, 15, 16, 17, 18, 19, 20, 21, 22, 23, 24, 25, 26, 27, 28, 29, 30, 31, 32, 33, 34, 35, 36, 37, 38, 39, 40, 41, 42, 43, 44, 45, 46, 47, 48, 49, 50, 51, 52, 53, 54, 55, 56, 57, 58, 59, 60, 61, 62, 63, 64, 65, 66, 67, 68, 69, 70, 71, 72, 73, 74, 75, 76, 77, 78, 79, 80, 81, 82, 83, 84, 85, 86, 87, 88, 89, 90, 91, 92, 93, 94, 95, 96, 97, 98, 99, 100, 101, 102, 103, 104, 105, 106, 107, 108, 109, 110, 111, 112, 113, 114, 115, 116, 117, 118, 119, 120, 121, 122, 123, 124, 125, 126, 127, 128, 129, 130, 131, 132, 133, 134, 135, 136, 137, 138, 139, 140, 141, 142, 143, 144, 145, 146, 147, 148, 149, 150, 151, 152, 153, 154, 155, 156, 157, 158, 159, 160, 161, 162, 163, 164, 165, 166, 167, 168, 169, 170, 171, 172, 173, 174, 175, 176, 177, 178, 179, 180, 181, 182, 183, 184, 185, 186, 187, 188, 189, 190, 191, 192, 193, 194, 195, 196, 197, 198, 199, 200, 201, 202, 203, 204, 205, 206, 207, 208, 209, 210, 211, 212, 213, 214, 215, 216, 217, 218, 219, 220, 221, 222, 223, 224, 225, 226, 227, 228, 229, 230, 231, 232, 233, 234, 235, 236, 237, 238, 239, 240, 241, 242, 243, 244, 245, 246, 247, 248, 249, 250, 251, 252, 253, 254, 255, 256, 257, 258, 259, 260, 261, 262, 263, 264, 265, 266, 267, 268, 269, 270, 271, 272, 273, 274, 275, 276, 277, 278, 279, 280, 281, 282, 283, 284, 285, 286, 287, 288, 289, 290, 291, 292, 293, 294, 295, 296, 297, 298, 299, 300, 301, 302, 303, 304, 305, 306, 307, 308, 309, 310, 311, 312, 313, 314, 315, 316, 317, 318, 319, 320, 321, 322, 323, 324, 325, 326, 327, 328, 329, 330, 331, 332, 333, 334, 335, 336, 337, 338, 339, 340, 341, 342, 343, 344, 345, 346, 347, 348, 349, 350, 351, 352, 353, 354, 355, 356, 357, 358, 359, 360, 361, 362, 363, 364, 365, 366, 367, 368, 369, 370, 371, 372, 373, 374, 375, 376, 377, 378, 379, 380, 381, 382, 383, 384, 385, 386, 387, 388, 389, 390, 391, 392, 393, 394, 395, 396, 397, 398, 399, 400, 401, 402, 403, 404, 405, 406, 407, 408, 409, 410, 411, 412, 413, 414, 415, 416, 417, 418, 419, 420, 421, 422, 423, 424, 425, 426, 427, 428, 429, 430, 431, 432, 433, 434, 435, 436, 437, 438, 439, 440, 441, 442, 443, 444, 445, 446, 447, 448, 449, 450, 451, 452, 453, 454, 455, 456, 457, 458, 459, 460, 461, 462, 463, 464, 465, 466, 467, 468, 469, 470, 471, 472, 473, 474, 475, 476, 477, 478, 479, 480, 481, 482, 483, 484, 485, 486, 487, 488, 489, 490, 491, 492, 493, 494, 495, 496, 497, 498, 499, 500, 501, 502, 503, 504, 505, 506, 507, 508, 509, 510],
      "AcquisitionTime": ["135234.330000", "135235.820000", "135237.310000", "135238.800000", "135240.290000", "135241.780000", "135243.270000", "135244.760000", "135246.250000", "135247.740000", "135249.230000", "135250.720000", "135252.210000", "135253.700000", "135255.190000", "135256.680000", "135258.170000", "135259.660000", "135301.150000", "135302.640000", "135304.130000", "135305.620000", "135307.110000", "135308.600000", "135310.090000", "135311.580000", "135313.070000", "135314.560000", "135316.050000", "135317.540000", "135319.030000", "135320.520000", "135322.010000", "135323.500000", "135324.990000", "135326.480000", "135327.970000", "135329.460000", "135330.950000", "135332.440000", "135333.930000", "135335.420000", "135336.910000", "135338.400000", "135339.890000", "135341.380000", "135342.870000", "135344.360000", "135345.850000", "135347.340000", "135348.830000", "135350.320000", "135351.810000", "135353.300000", "135354.790000", "135356.280000", "135357.770000", "135359.260000", "135400.750000", "135402.240000", "135403.730000", "135405.220000", "135406.710000", "135408.200000", "135409.690000", "135411.180000", "135412.670000", "135414.160000", "135415.650000", "135417.140000", "135418.630000", "135420.120000", "135421.610000", "135423.100000", "135424.590000", "135426.080000", "135427.570000", "135429.060000", "135430.550000", "135432.040000", "135433.530000", "135435.020000", "135436.510000", "135438.000000", "135439.490000", "135440.980000", "135442.470000", "135443.960000", "135445.450000", "135446.940000", "135448.430000", "135449.920000", "135451.410000", "135452.900000", "135454.390000", "135455.880000", "135457.370000", "135458.860000", "135500.350000", "135501.840000", "135503.330000", "135504.820000", "135506.310000", "135507.800000", "135509.290000", "135510.780000", "135512.270000", "135513.760000", "135515.250000", "135516.740000", "135518.230000", "135519.720000", "135521.210000", "135522.700000", "135524.190000", "135525.680000", "135527.170000", "135528.660000", "135530.150000", "135531.640000", "135533.130000", "135534.620000", "135536.110000", "135537.600000", "135539.090000", "135540.580000", "135542.070000", "135543.560000", "135545.050000", "135546.540000", "135548.030000", "135549.520000", "135551.010000", "135552.500000", "135553.990000", "135555.480000", "135556.970000", "135558.460000", "135559.950000", "135601.440000", "135602.930000", "135604.420000", "135605.910000", "135607.400000", "135608.890000", "135610.380000", "135611.870000", "135613.360000", "135614.850000", "135616.340000", "135617.830000", "135619.320000", "135620.810000", "135622.300000", "135623.790000", "135625.280000", "135626.770000", "135628.260000", "135629.750000", "135631.240000", "135632.730000", "135634.220000", "135635.710000", "135637.200000", "135638.690000", "135640.180000", "135641.670000", "135643.160000", "135644.650000", "135646.140000", "135647.630000", "135649.120000", "135650.610000", "135652.100000", "135653.590000", "135655.080000", "135656.570000", "135658.060000", "135659.550000", "135701.040000", "135702.530000", "135704.020000", "135705.510000", "135707.000000", "135708.490000", "135709.980000", "135711.470000", "135712.960000", "135714.450000", "135715.940000", "135717.430000", "135718.920000", "135720.410000", "135721.900000", "135723.390000", "135724.880000", "135726.370000", "135727.860000", "135729.350000", "135730.840000", "135732.330000", "135733.820000", "135735.310000", "135736.800000", "135738.290000", "135739.780000", "135741.270000", "135742.760000", "135744.250000", "135745.740000", "135747.230000", "135748.720000", "135750.210000", "135751.700000", "135753.190000", "135754.680000", "135756.170000", "135757.660000", "135759.150000", "135800.640000", "135802.130000", "135803.620000", "135805.110000", "135806.600000", "135808.090000", "135809.580000", "135811.070000", "135812.560000", "135814.050000", "135815.540000", "135817.030000", "135818.520000", "135820.010000", "135821.500000", "135822.990000", "135824.480000", "135825.970000", "135827.460000", "135828.950000", "135830.440000", "135831.930000", "135833.420000", "135834.910000", "135836.400000", "135837.890000", "135839.380000", "135840.870000", "135842.360000", "135843.850000", "135845.340000", "135846.830000", "135848.320000", "135849.810000", "135851.300000", "135852.790000", "135854.280000", "135855.770000", "135857.260000", "135858.750000", "135900.240000", "135901.730000", "135903.220000", "135904.710000", "135906.200000", "135907.690000", "135909.180000", "135910.670000", "135912.160000", "135913.650000", "135915.140000", "135916.630000", "135918.120000", "135919.610000", "135921.100000", "135922.590000", "135924.080000", "135925.570000", "135927.060000", "135928.550000", "135930.040000", "135931.530000", "135933.020000", "135934.510000", "135936.000000", "135937.490000", "135938.980000", "135940.470000", "135941.960000", "135943.450000", "135944.940000", "135946.430000", "135947.920000", "135949.410000", "135950.900000", "135952.390000", "135953.880000", "135955.370000", "135956.860000", "135958.350000", "135959.840000", "140001.330000", "140002.820000", "140004.310000", "140005.800000", "140007.290000", "140008.780000", "140010.270000", "140011.760000", "140013.250000", "140014.740000", "140016.230000", "140017.720000", "140019.210000", "140020.700000", "140022.190000", "140023.680000", "140025.170000", "140026.660000", "140028.150000", "140029.640000", "140031.130000", "140032.620000", "140034.110000", "140035.600000", "140037.090000", "140038.580000", "140040.070000", "140041.560000", "140043.050000", "140044.540000", "140046.030000", "140047.520000", "140049.010000", "140050.500000", "140051.990000", "140053.480000", "140054.970000", "140056.460000", "140057.950000", "140059.440000", "140100.930000", "140102.420000", "140103.910000", "140105.400000", "140106.890000", "140108.380000", "140109.870000", "140111.360000", "140112.850000", "140114.340000", "140115.830000", "140117.320000", "140118.810000", "140120.300000", "140121.790000", "140123.280000", "140124.770000", "140126.260000", "140127.750000", "140129.240000", "140130.730000", "140132.220000", "140133.710000", "140135.200000", "140136.690000", "140138.180000", "140139.670000", "140141.160000", "140142.650000", "140144.140000", "140145.630000", "140147.120000", "140148.610000", "140150.100000", "140151.590000", "140153.080000", "140154.570000", "140156.060000", "140157.550000", "140159.040000", "140200.530000", "140202.020000", "140203.510000", "140205.000000", "140206.490000", "140207.980000", "140209.470000", "140210.960000", "140212.450000", "140213.940000", "140215.430000", "140216.920000", "140218.410000", "140219.900000", "140221.390000", "140222.880000", "140224.370000", "140225.860000", "140227.350000", "140228.840000", "140230.330000", "140231.820000", "140233.310000", "140234.800000", "140236.290000", "140237.780000", "140239.270000", "140240.760000", "140242.250000", "140243.740000", "140245.230000", "140246.720000", "140248.210000", "140249.700000", "140251.190000", "140252.680000", "140254.170000", "140255.660000", "140257.150000", "140258.640000", "140300.130000", "140301.620000", "140303.110000", "140304.600000", "140306.090000", "140307.580000", "140309.070000", "140310.560000", "140312.050000", "140313.540000", "140315.030000", "140316.520000", "140318.010000", "140319.500000", "140320.990000", "140322.480000", "140323.970000", "140325.460000", "140326.950000", "140328.440000", "140329.930000", "140331.420000", "140332.910000", "140334.400000", "140335.890000", "140337.380000", "140338.870000", "140340.360000", "140341.850000", "140343.340000", "140344.830000", "140346.320000", "140347.810000", "140349.300000", "140350.790000", "140352.280000", "140353.770000", "140355.260000", "140356.750000", "140358.240000", "140359.730000", "140401.220000", "140402.710000", "140404.200000", "140405.690000", "140407.180000", "140408.670000", "140410.160000", "140411.650000", "140413.140000", "140414.630000", "140416.120000", "140417.610000", "140419.100000", "140420.590000", "140422.080000", "140423.570000", "140425.060000", "140426.550000", "140428.040000", "140429.530000", "140431.020000", "140432.510000", "140434.000000", "140435.490000", "140436.980000", "140438.470000", "140439.960000", "140441.450000", "140442.940000", "140444.430000", "140445.920000", "140447.410000", "140448.900000", "140450.390000", "140451.880000", "140453.370000", "140454.860000", "140456.350000", "140457.840000", "140459.330000", "140500.820000", "140502.310000", "140503.800000", "140505.290000", "140506.780000", "140508.270000", "140509.760000", "140511.250000", "140512.740000"],
      "ContentTime": ["135332.916000", "135332.919000", "135332.922000", "135332.924000", "135332.927000", "135332.929000", "135332.936000", "135332.939000", "135332.941000", "135332.944000", "135332.946000", "135352.931000", "135352.933000", "135352.936000", "135352.938000", "135352.941000", "135352.944000", "135352.946000", "135352.949000", "135352.951000", "135352.954000", "135352.956000", "135352.958000", "135352.961000", "135352.963000", "135352.966000", "135352.969000", "135352.971000", "135352.974000", "135352.976000", "135352.979000", "135412.918000", "135412.921000", "135412.923000", "135412.926000", "135412.928000", "135412.931000", "135412.933000", "135412.936000", "135412.939000", "135412.941000", "135412.943000", "135412.946000", "135412.948000", "135412.951000", "135412.953000", "135412.956000", "135412.958000", "135412.961000", "135412.963000", "135412.966000", "135432.935000", "135432.938000", "135432.940000", "135432.943000", "135432.945000", "135432.948000", "135432.950000", "135432.953000", "135432.955000", "135432.958000", "135432.960000", "135432.963000", "135432.965000", "135432.968000", "135432.970000", "135432.973000", "135432.975000", "135432.978000", "135432.980000", "135432.983000", "135452.911000", "135452.914000", "135452.916000", "135452.919000", "135452.921000", "135452.924000", "135452.926000", "135452.929000", "135452.931000", "135452.938000", "135452.940000", "135452.943000", "135452.946000", "135452.948000", "135452.951000", "135452.953000", "135452.956000", "135452.958000", "135452.961000", "135452.963000", "135532.952000", "135532.955000", "135532.957000", "135532.960000", "135532.972000", "135532.974000", "135532.977000", "135532.979000", "135532.982000", "135532.984000", "135532.987000", "135532.989000", "135532.992000", "135532.994000", "135532.997000", "135533.000000", "135533.003000", "135533.012000", "135533.014000", "135533.017000", "135533.020000", "135533.022000", "135533.025000", "135533.027000", "135533.030000", "135533.032000", "135533.035000", "135533.037000", "135612.936000", "135612.939000", "135612.942000", "135612.944000", "135612.954000", "135612.957000", "135612.959000", "135612.962000", "135612.964000", "135612.967000", "135612.969000", "135612.971000", "135612.974000", "135612.976000", "135612.979000", "135612.982000", "135612.984000", "135612.987000", "135612.989000", "135612.992000", "135612.994000", "135612.997000", "135613.000000", "135613.003000", "135613.005000", "135613.008000", "135613.010000", "135652.951000", "135652.953000", "135652.956000", "135652.958000", "135652.961000", "135652.964000", "135652.966000", "135652.969000", "135652.971000", "135652.974000", "135652.976000", "135652.979000", "135652.981000", "135652.984000", "135652.986000", "135652.988000", "135652.991000", "135652.994000", "135652.996000", "135653.000000", "135653.002000", "135653.005000", "135653.007000", "135653.010000", "135653.012000", "135653.015000", "135653.017000", "135732.941000", "135732.945000", "135732.949000", "135732.981000", "135732.984000", "135732.987000", "135732.989000", "135732.992000", "135732.994000", "135732.997000", "135733.000000", "135733.003000", "135733.005000", "135733.008000", "135733.010000", "135733.013000", "135733.015000", "135733.018000", "135733.020000", "135733.023000", "135733.025000", "135733.028000", "135733.030000", "135733.033000", "135733.035000", "135733.038000", "135812.954000", "135812.957000", "135812.959000", "135812.962000", "135812.964000", "135812.967000", "135812.970000", "135812.972000", "135812.975000", "135812.977000", "135812.980000", "135812.982000", "135812.986000", "135812.989000", "135812.991000", "135812.994000", "135812.996000", "135813.000000", "135813.003000", "135813.005000", "135813.008000", "135813.010000", "135813.013000", "135813.015000", "135813.018000", "135813.020000", "135813.023000", "135852.951000", "135852.954000", "135852.956000", "135852.959000", "135852.961000", "135852.964000", "135852.966000", "135852.969000", "135852.971000", "135852.974000", "135852.977000", "135852.979000", "135852.982000", "135852.984000", "135852.987000", "135852.989000", "135852.991000", "135852.994000", "135852.997000", "135853.000000", "135853.003000", "135853.005000", "135853.008000", "135853.010000", "135853.013000", "135853.015000", "135853.018000", "135932.954000", "135932.957000", "135932.959000", "135932.962000", "135932.964000", "135932.967000", "135932.969000", "135932.972000", "135932.974000", "135932.977000", "135932.979000", "135932.982000", "135932.985000", "135932.987000", "135932.989000", "135932.992000", "135932.994000", "135932.997000", "135933.001000", "135933.003000", "135933.006000", "135933.008000", "135933.011000", "135933.013000", "135933.016000", "135933.018000", "135933.021000", "140012.950000", "140012.953000", "140012.956000", "140012.958000", "140012.961000", "140012.963000", "140012.966000", "140012.968000", "140012.971000", "140012.973000", "140012.976000", "140012.979000", "140012.981000", "140012.984000", "140012.986000", "140012.989000", "140012.991000", "140012.994000", "140012.996000", "140013.000000", "140013.002000", "140013.005000", "140013.007000", "140013.010000", "140013.012000", "140013.015000", "140013.017000", "140052.947000", "140052.950000", "140052.952000", "140052.955000", "140052.957000", "140052.960000", "140052.962000", "140052.965000", "140052.967000", "140052.970000", "140052.972000", "140052.975000", "140052.977000", "140052.980000", "140052.991000", "140052.994000", "140052.996000", "140053.000000", "140053.002000", "140053.005000", "140053.007000", "140053.010000", "140053.012000", "140053.015000", "140053.017000", "140053.020000", "140053.022000", "140132.939000", "140132.942000", "140132.944000", "140132.947000", "140132.949000", "140132.952000", "140132.954000", "140132.957000", "140132.959000", "140132.962000", "140132.964000", "140132.967000", "140132.969000", "140132.972000", "140132.974000", "140132.977000", "140132.979000", "140132.982000", "140132.984000", "140132.987000", "140132.989000", "140132.992000", "140132.994000", "140132.997000", "140133.001000", "140133.003000", "140212.947000", "140212.950000", "140212.952000", "140212.955000", "140212.957000", "140212.960000", "140212.962000", "140212.965000", "140212.967000", "140212.970000", "140212.973000", "140212.975000", "140212.978000", "140212.980000", "140212.983000", "140212.985000", "140212.988000", "140212.990000", "140212.993000", "140212.995000", "140212.998000", "140213.001000", "140213.003000", "140213.006000", "140213.008000", "140213.011000", "140213.013000", "140232.887000", "140232.890000", "140232.893000", "140232.895000", "140232.898000", "140232.901000", "140232.903000", "140232.906000", "140232.908000", "140232.911000", "140232.913000", "140232.916000", "140232.918000", "140232.921000", "140312.953000", "140312.956000", "140312.959000", "140312.961000", "140312.964000", "140312.966000", "140312.969000", "140312.971000", "140312.974000", "140312.976000", "140312.979000", "140312.981000", "140312.984000", "140312.986000", "140312.989000", "140312.991000", "140312.994000", "140312.996000", "140313.000000", "140313.003000", "140313.005000", "140313.008000", "140313.010000", "140313.013000", "140313.015000", "140313.018000", "140313.020000", "140352.991000", "140352.994000", "140352.996000", "140353.000000", "140353.002000", "140353.005000", "140353.007000", "140353.010000", "140353.012000", "140353.015000", "140353.017000", "140353.020000", "140353.022000", "140353.025000", "140353.027000", "140353.030000", "140353.033000", "140353.035000", "140353.038000", "140353.040000", "140353.043000", "140353.045000", "140353.048000", "140353.050000", "140353.053000", "140353.055000", "140432.948000", "140432.951000", "140432.953000", "140432.956000", "140432.958000", "140432.961000", "140432.963000", "140432.966000", "140432.968000", "140432.971000", "140432.973000", "140432.976000", "140432.978000", "140432.982000", "140432.985000", "140432.987000", "140432.990000", "140432.992000", "140432.995000", "140432.997000", "140433.001000", "140433.004000", "140433.006000", "140433.009000", "140433.011000", "140433.014000", "140433.016000", "140512.939000", "140512.942000", "140512.945000", "140512.947000", "140512.950000", "140512.952000", "140512.955000", "140512.957000", "140512.960000", "140512.962000", "140512.965000", "140512.967000", "140512.970000", "140512.972000", "140512.975000", "140512.978000", "140512.980000", "140512.983000", "140512.985000", "140512.988000", "140512.990000", "140512.993000", "140512.995000", "140512.998000", "140513.001000", "140513.004000", "140513.006000", "140515.118000", "140515.121000"],
