{
  "AcquisitionMatrixPE": 104,
  "AcquisitionNumber": 1,
  "AcquisitionTime": "14:12:37.285000",
  "BandwidthPerPixelPhaseEncode": 17.17,
  "BaseResolution": 104,
  "BodyPartExamined": "BRAIN",
  "CoilCombinationMethod": "Sum of Squares",
  "ConsistencyInfo": "N4_VE11C_LATEST_20160120",
  "ConversionSoftware": "dcm2niix",
  "ConversionSoftwareVersion": "v1.0.20211006",
  "DerivedVendorReportedEchoSpacing": 0.000560011,
  "DeviceSerialNumber": "167006",
  "DwellTime": 2.1e-06,
  "EchoTime": 0.037,
  "EchoTrainLength": 104,
  "EffectiveEchoSpacing": 0.000560011,
  "FlipAngle": 52,
  "HeudiconvVersion": "0.11.3.post9+gc939bf8",
  "ImageComments": "Unaliased MB4/PE3/LB",
  "ImageOrientationPatientDICOM": [0.999146, 0.0359867, 0.0203289, -0.0279086, 0.950201, -0.310386],
  "ImageOrientationText": "Tra>Cor(-18.0)>Sag(1.7)",
  "ImageType": [
    "ORIGINAL",
    "PRIMARY",
    "M",
    "MB",
    "ND",
    "MOSAIC"
],
  "ImagingFrequency": 123.259,
  "InPlanePhaseEncodingDirectionDICOM": "COL",
  "InstitutionAddress": "Chemin Queen-Mary 4565,Montreal,District,CA,H3W 1W5",
  "InstitutionName": "IUGM",
  "InstitutionalDepartmentName": "Department",
  "MRAcquisitionType": "2D",
  "MagneticFieldStrength": 3,
  "Manufacturer": "Siemens",
  "ManufacturersModelName": "Prisma_fit",
  "MatrixCoilMode": "SENSE",
  "Modality": "MR",
  "MultibandAccelerationFactor": 4,
  "PartialFourier": 1,
  "PatientPosition": "HFS",
  "PercentPhaseFOV": 100,
  "PercentSampling": 100,
  "PhaseEncodingDirection": "j",
  "PhaseEncodingSteps": 104,
  "PhaseResolution": 1,
  "PixelBandwidth": 2290,
  "ProcedureStepDescription": "games^mariostars",
  "ProtocolName": "func_task-mariostars_run-01",
  "PulseSequenceDetails": "%CustomerSeq%\\cmrr_mbep2d_bold",
  "ReceiveCoilActiveElements": "HC1-7;NC1,2",
  "ReceiveCoilName": "HeadNeck_64",
  "ReconMatrixPE": 104,
  "RepetitionTime": 1.49,
  "SAR": 0.0431291,
  "ScanOptions": "FS",
  "ScanningSequence": "EP",
  "SequenceName": "epfid2d1_104",
  "SequenceVariant": "SK\\SS",
  "SeriesDescription": "func_task-mariostars_run-01",
  "SeriesNumber": 11,
  "ShimSetting": [638, -7208, -8799, 689, 108, 18, -8, -4],
  "SliceThickness": 2,
  "SliceTiming": [0, 0.785, 0.1, 0.8825, 0.1975, 0.98, 0.295, 1.08, 0.3925, 1.1775, 0.49, 1.275, 0.59, 1.3725, 0.6875, 0, 0.785, 0.1, 0.8825, 0.1975, 0.98, 0.295, 1.08, 0.3925, 1.1775, 0.49, 1.275, 0.59, 1.3725, 0.6875, 0, 0.785, 0.1, 0.8825, 0.1975, 0.98, 0.295, 1.08, 0.3925, 1.1775, 0.49, 1.275, 0.59, 1.3725, 0.6875, 0, 0.785, 0.1, 0.8825, 0.1975, 0.98, 0.295, 1.08, 0.3925, 1.1775, 0.49, 1.275, 0.59, 1.3725, 0.6875],
  "SoftwareVersions": "syngo MR E11",
  "SpacingBetweenSlices": 2,
  "StationName": "MRC35049",
  "TaskName": "mariostars",
  "TotalReadoutTime": 0.0576811,
  "TxRefAmp": 228.497,
  "WipMemBlock": "d559148f-a423-4f49-abe0-568d0ae12cce||Sequence: R016 ve11c/master r/e634e98; Dec 19 2017 11:00:25 by eja",
  "dcmmeta_affine": [
    [-1.998291015625, -0.05581722781062126, 0.060972537845373154, 110.23583221435547],
    [-0.07197333872318268, 1.9004017114639282, -0.6191068291664124, -66.19794464111328],
    [0.04065774008631706, 0.6207720041275024, 1.9007865190505981, -71.34259796142578],
    [0.0, 0.0, 0.0, 1.0]
],
  "dcmmeta_reorient_transform": [
    [0.0, -1.0, 0.0, 103.0],
    [1.0, 0.0, 0.0, 0.0],
    [0.0, 0.0, 1.0, 0.0],
    [0.0, 0.0, 0.0, 1.0]
],
  "dcmmeta_shape": [104, 104, 60, 466],
  "dcmmeta_slice_dim": 2,
  "dcmmeta_version": 0.6,
  "global": {
    "const": {
      "AcquisitionMatrix": [104, 0, 0, 104],
      "AngioFlag": "N",
      "BitsAllocated": 16,
      "BitsStored": 16,
      "BodyPartExamined": "BRAIN",
      "Columns": 832,
      "EchoNumbers": 1,
      "EchoTime": 37.0,
      "EchoTrainLength": 104,
      "FlipAngle": 52.0,
      "HighBit": 15,
      "ImageOrientationPatient": [0.99914548327777, 0.03598666782473, 0.02032887071403, -0.02790861367, 0.95020084297153, -0.3103859972667],
      "ImagePositionPatient": [-811.54709856589, -847.48793986017, 203.75850234477],
      "ImageType": [
        "ORIGINAL",
        "PRIMARY",
        "M",
        "MB",
        "ND",
        "MOSAIC"
],
      "ImagedNucleus": "1H",
      "ImagingFrequency": 123.258856,
      "InPlanePhaseEncodingDirection": "COL",
      "MRAcquisitionType": "2D",
      "MagneticFieldStrength": 3.0,
      "Manufacturer": "SIEMENS",
      "ManufacturerModelName": "Prisma_fit",
      "Modality": "MR",
      "NumberOfAverages": 1.0,
      "NumberOfPhaseEncodingSteps": 104,
      "PercentPhaseFieldOfView": 100.0,
      "PercentSampling": 100.0,
      "PerformedProcedureStepStartTime": "140905.209000",
      "PhotometricInterpretation": "MONOCHROME2",
      "PixelBandwidth": 2290.0,
      "PixelRepresentation": 0,
      "PixelSpacing": [2.0, 2.0],
      "ProtocolName": "func_task-mariostars_run-01",
      "RepetitionTime": 1490.0,
      "Rows": 832,
      "SAR": 0.04312908977253,
      "SamplesPerPixel": 1,
      "ScanOptions": "FS",
      "ScanningSequence": "EP",
      "SequenceName": "epfid2d1_104",
      "SequenceVariant": [
        "SK",
        "SS"
],
      "SeriesDescription": "func_task-mariostars_run-01",
      "SeriesNumber": 11,
      "SeriesTime": "141401.968000",
      "SliceLocation": -43.951046276554,
      "SliceThickness": 2.0,
      "SmallestImagePixelValue": 0,
      "SoftwareVersions": "syngo MR E11",
      "SpacingBetweenSlices": 2.0000000753501,
      "SpecificCharacterSet": "ISO_IR 100",
      "StudyID": "1",
      "StudyTime": "140905.133000",
      "TransmitCoilName": "Body",
      "VariableFlipAngleFlag": "N",
      "WindowCenterWidthExplanation": "Algo1",
      "dBdt": 0.0},
    "slices": {}
  },
  "time": {
    "samples": {
      "AcquisitionNumber": [1, 2, 3, 4, 5, 6, 7, 8, 9, 10, 11, 12, 13, 14, 15, 16, 17, 18, 19, 20, 21, 22, 23, 24, 25, 26, 27, 28, 29, 30, 31, 32, 33, 34, 35, 36, 37, 38, 39, 40, 41, 42, 43, 44, 45, 46, 47, 48, 49, 50, 51, 52, 53, 54, 55, 56, 57, 58, 59, 60, 61, 62, 63, 64, 65, 66, 67, 68, 69, 70, 71, 72, 73, 74, 75, 76, 77, 78, 79, 80, 81, 82, 83, 84, 85, 86, 87, 88, 89, 90, 91, 92, 93, 94, 95, 96, 97, 98, 99, 100, 101, 102, 103, 104, 105, 106, 107, 108, 109, 110, 111, 112, 113, 114, 115, 116, 117, 118, 119, 120, 121, 122, 123, 124, 125, 126, 127, 128, 129, 130, 131, 132, 133, 134, 135, 136, 137, 138, 139, 140, 141, 142, 143, 144, 145, 146, 147, 148, 149, 150, 151, 152, 153, 154, 155, 156, 157, 158, 159, 160, 161, 162, 163, 164, 165, 166, 167, 168, 169, 170, 171, 172, 173, 174, 175, 176, 177, 178, 179, 180, 181, 182, 183, 184, 185, 186, 187, 188, 189, 190, 191, 192, 193, 194, 195, 196, 197, 198, 199, 200, 201, 202, 203, 204, 205, 206, 207, 208, 209, 210, 211, 212, 213, 214, 215, 216, 217, 218, 219, 220, 221, 222, 223, 224, 225, 226, 227, 228, 229, 230, 231, 232, 233, 234, 235, 236, 237, 238, 239, 240, 241, 242, 243, 244, 245, 246, 247, 248, 249, 250, 251, 252, 253, 254, 255, 256, 257, 258, 259, 260, 261, 262, 263, 264, 265, 266, 267, 268, 269, 270, 271, 272, 273, 274, 275, 276, 277, 278, 279, 280, 281, 282, 283, 284, 285, 286, 287, 288, 289, 290, 291, 292, 293, 294, 295, 296, 297, 298, 299, 300, 301, 302, 303, 304, 305, 306, 307, 308, 309, 310, 311, 312, 313, 314, 315, 316, 317, 318, 319, 320, 321, 322, 323, 324, 325, 326, 327, 328, 329, 330, 331, 332, 333, 334, 335, 336, 337, 338, 339, 340, 341, 342, 343, 344, 345, 346, 347, 348, 349, 350, 351, 352, 353, 354, 355, 356, 357, 358, 359, 360, 361, 362, 363, 364, 365, 366, 367, 368, 369, 370, 371, 372, 373, 374, 375, 376, 377, 378, 379, 380, 381, 382, 383, 384, 385, 386, 387, 388, 389, 390, 391, 392, 393, 394, 395, 396, 397, 398, 399, 400, 401, 402, 403, 404, 405, 406, 407, 408, 409, 410, 411, 412, 413, 414, 415, 416, 417, 418, 419, 420, 421, 422, 423, 424, 425, 426, 427, 428, 429, 430, 431, 432, 433, 434, 435, 436, 437, 438, 439, 440, 441, 442, 443, 444, 445, 446, 447, 448, 449, 450, 451, 452, 453, 454, 455, 456, 457, 458, 459, 460, 461, 462, 463, 464, 465, 466],
      "AcquisitionTime": ["141237.285000", "141238.775000", "141240.265000", "141241.755000", "141243.245000", "141244.735000", "141246.225000", "141247.715000", "141249.205000", "141250.695000", "141252.185000", "141253.675000", "141255.165000", "141256.655000", "141258.145000", "141259.635000", "141301.125000", "141302.615000", "141304.105000", "141305.595000", "141307.085000", "141308.575000", "141310.065000", "141311.555000", "141313.045000", "141314.535000", "141316.025000", "141317.515000", "141319.005000", "141320.495000", "141321.985000", "141323.475000", "141324.965000", "141326.455000", "141327.945000", "141329.435000", "141330.925000", "141332.415000", "141333.905000", "141335.395000", "141336.885000", "141338.375000", "141339.865000", "141341.355000", "141342.845000", "141344.335000", "141345.825000", "141347.315000", "141348.805000", "141350.295000", "141351.785000", "141353.275000", "141354.765000", "141356.255000", "141357.745000", "141359.235000", "141400.725000", "141402.215000", "141403.705000", "141405.195000", "141406.685000", "141408.175000", "141409.665000", "141411.155000", "141412.645000", "141414.135000", "141415.625000", "141417.115000", "141418.605000", "141420.095000", "141421.585000", "141423.075000", "141424.565000", "141426.055000", "141427.545000", "141429.035000", "141430.525000", "141432.015000", "141433.505000", "141434.995000", "141436.485000", "141437.975000", "141439.465000", "141440.955000", "141442.445000", "141443.935000", "141445.425000", "141446.915000", "141448.405000", "141449.895000", "141451.385000", "141452.875000", "141454.365000", "141455.855000", "141457.345000", "141458.835000", "141500.325000", "141501.815000", "141503.305000", "141504.795000", "141506.285000", "141507.775000", "141509.265000", "141510.755000", "141512.245000", "141513.735000", "141515.225000", "141516.715000", "141518.205000", "141519.695000", "141521.185000", "141522.675000", "141524.165000", "141525.655000", "141527.145000", "141528.635000", "141530.125000", "141531.615000", "141533.105000", "141534.595000", "141536.085000", "141537.575000", "141539.065000", "141540.555000", "141542.045000", "141543.535000", "141545.025000", "141546.515000", "141548.005000", "141549.495000", "141550.985000", "141552.475000", "141553.965000", "141555.455000", "141556.945000", "141558.435000", "141559.925000", "141601.415000", "141602.905000", "141604.395000", "141605.885000", "141607.375000", "141608.865000", "141610.355000", "141611.845000", "141613.335000", "141614.825000", "141616.315000", "141617.805000", "141619.295000", "141620.785000", "141622.275000", "141623.765000", "141625.255000", "141626.745000", "141628.235000", "141629.725000", "141631.215000", "141632.705000", "141634.195000", "141635.685000", "141637.175000", "141638.665000", "141640.155000", "141641.645000", "141643.135000", "141644.625000", "141646.115000", "141647.605000", "141649.095000", "141650.585000", "141652.075000", "141653.565000", "141655.055000", "141656.545000", "141658.035000", "141659.525000", "141701.015000", "141702.505000", "141703.995000", "141705.485000", "141706.975000", "141708.465000", "141709.955000", "141711.445000", "141712.935000", "141714.425000", "141715.915000", "141717.405000", "141718.895000", "141720.385000", "141721.875000", "141723.365000", "141724.855000", "141726.345000", "141727.835000", "141729.325000", "141730.815000", "141732.305000", "141733.795000", "141735.285000", "141736.775000", "141738.265000", "141739.755000", "141741.245000", "141742.735000", "141744.225000", "141745.715000", "141747.205000", "141748.695000", "141750.185000", "141751.675000", "141753.165000", "141754.655000", "141756.145000", "141757.635000", "141759.125000", "141800.615000", "141802.105000", "141803.595000", "141805.085000", "141806.575000", "141808.065000", "141809.555000", "141811.045000", "141812.535000", "141814.025000", "141815.515000", "141817.005000", "141818.495000", "141819.985000", "141821.475000", "141822.965000", "141824.455000", "141825.945000", "141827.435000", "141828.925000", "141830.415000", "141831.905000", "141833.395000", "141834.885000", "141836.375000", "141837.865000", "141839.355000", "141840.845000", "141842.335000", "141843.825000", "141845.315000", "141846.805000", "141848.295000", "141849.785000", "141851.275000", "141852.765000", "141854.255000", "141855.745000", "141857.235000", "141858.725000", "141900.215000", "141901.705000", "141903.195000", "141904.685000", "141906.175000", "141907.665000", "141909.155000", "141910.645000", "141912.135000", "141913.625000", "141915.115000", "141916.605000", "141918.095000", "141919.585000", "141921.075000", "141922.565000", "141924.055000", "141925.545000", "141927.035000", "141928.525000", "141930.015000", "141931.505000", "141932.995000", "141934.485000", "141935.975000", "141937.465000", "141938.955000", "141940.445000", "141941.935000", "141943.425000", "141944.915000", "141946.405000", "141947.895000", "141949.385000", "141950.875000", "141952.365000", "141953.855000", "141955.345000", "141956.835000", "141958.325000", "141959.815000", "142001.305000", "142002.795000", "142004.285000", "142005.775000", "142007.265000", "142008.755000", "142010.245000", "142011.735000", "142013.225000", "142014.715000", "142016.205000", "142017.695000", "142019.185000", "142020.675000", "142022.165000", "142023.655000", "142025.145000", "142026.635000", "142028.125000", "142029.615000", "142031.105000", "142032.595000", "142034.085000", "142035.575000", "142037.065000", "142038.555000", "142040.045000", "142041.535000", "142043.025000", "142044.515000", "142046.005000", "142047.495000", "142048.985000", "142050.475000", "142051.965000", "142053.455000", "142054.945000", "142056.435000", "142057.925000", "142059.415000", "142100.905000", "142102.395000", "142103.885000", "142105.375000", "142106.865000", "142108.355000", "142109.845000", "142111.335000", "142112.825000", "142114.315000", "142115.805000", "142117.295000", "142118.785000", "142120.275000", "142121.765000", "142123.255000", "142124.745000", "142126.235000", "142127.725000", "142129.215000", "142130.705000", "142132.195000", "142133.685000", "142135.175000", "142136.665000", "142138.155000", "142139.645000", "142141.135000", "142142.625000", "142144.115000", "142145.605000", "142147.095000", "142148.585000", "142150.075000", "142151.565000", "142153.055000", "142154.545000", "142156.035000", "142157.525000", "142159.015000", "142200.505000", "142201.995000", "142203.485000", "142204.975000", "142206.465000", "142207.955000", "142209.445000", "142210.935000", "142212.425000", "142213.915000", "142215.405000", "142216.895000", "142218.385000", "142219.875000", "142221.365000", "142222.855000", "142224.345000", "142225.835000", "142227.325000", "142228.815000", "142230.305000", "142231.795000", "142233.285000", "142234.775000", "142236.265000", "142237.755000", "142239.245000", "142240.735000", "142242.225000", "142243.715000", "142245.205000", "142246.695000", "142248.185000", "142249.675000", "142251.165000", "142252.655000", "142254.145000", "142255.635000", "142257.125000", "142258.615000", "142300.105000", "142301.595000", "142303.085000", "142304.575000", "142306.065000", "142307.555000", "142309.045000", "142310.535000", "142312.025000", "142313.515000", "142315.005000", "142316.495000", "142317.985000", "142319.475000", "142320.965000", "142322.455000", "142323.945000", "142325.435000", "142326.925000", "142328.415000", "142329.905000", "142331.395000", "142332.885000", "142334.375000", "142335.865000", "142337.355000", "142338.845000", "142340.335000", "142341.825000", "142343.315000", "142344.805000", "142346.295000", "142347.785000", "142349.275000", "142350.765000", "142352.255000", "142353.745000", "142355.235000", "142356.725000", "142358.215000", "142359.705000", "142401.195000", "142402.685000", "142404.175000", "142405.665000", "142407.155000", "142408.645000", "142410.135000"],
      "ContentTime": ["141401.971000", "141401.975000", "141401.978000", "141401.981000", "141401.985000", "141401.988000", "141401.998000", "141402.002000", "141402.007000", "141402.011000", "141402.014000", "141402.018000", "141402.022000", "141402.025000", "141402.028000", "141402.032000", "141402.035000", "141402.038000", "141402.041000", "141402.045000", "141402.060000", "141402.064000", "141402.067000", "141402.070000", "141402.073000", "141402.077000", "141402.080000", "141402.083000", "141402.086000", "141421.927000", "141421.931000", "141421.942000", "141421.946000", "141421.949000", "141421.952000", "141421.955000", "141421.966000", "141421.970000", "141421.973000", "141421.977000", "141421.980000", "141421.992000", "141421.996000", "141422.000000", "141422.004000", "141422.007000", "141422.010000", "141422.013000", "141422.017000", "141422.020000", "141441.928000", "141441.932000", "141441.935000", "141441.939000", "141441.942000", "141441.945000", "141441.949000", "141441.952000", "141441.955000", "141441.959000", "141441.962000", "141441.965000", "141441.968000", "141441.993000", "141441.997000", "141442.001000", "141442.004000", "141442.007000", "141442.011000", "141442.014000", "141501.928000", "141501.932000", "141501.935000", "141501.938000", "141501.946000", "141501.950000", "141501.953000", "141501.956000", "141501.959000", "141501.962000", "141501.966000", "141501.972000", "141501.975000", "141501.978000", "141501.981000", "141501.985000", "141501.988000", "141501.991000", "141501.995000", "141501.998000", "141521.927000", "141521.931000", "141521.934000", "141521.937000", "141521.940000", "141521.944000", "141521.947000", "141521.950000", "141521.954000", "141521.957000", "141521.960000", "141521.963000", "141521.967000", "141521.970000", "141521.984000", "141521.987000", "141521.991000", "141522.004000", "141522.007000", "141522.011000", "141601.927000", "141601.931000", "141601.934000", "141601.937000", "141601.941000", "141601.944000", "141601.947000", "141601.950000", "141601.954000", "141601.957000", "141601.960000", "141601.963000", "141601.975000", "141601.979000", "141601.982000", "141601.985000", "141601.988000", "141601.992000", "141601.995000", "141602.006000", "141602.010000", "141602.013000", "141602.016000", "141602.020000", "141602.023000", "141602.026000", "141602.029000", "141641.927000", "141641.931000", "141641.934000", "141641.937000", "141641.940000", "141641.944000", "141641.947000", "141641.950000", "141641.953000", "141641.957000", "141641.960000", "141641.965000", "141641.968000", "141641.971000", "141641.974000", "141641.978000", "141641.981000", "141641.984000", "141641.988000", "141641.991000", "141641.994000", "141641.997000", "141642.002000", "141642.005000", "141642.008000", "141642.011000", "141721.928000", "141721.932000", "141721.935000", "141721.938000", "141721.942000", "141721.945000", "141721.948000", "141721.952000", "141721.955000", "141721.958000", "141721.962000", "141721.965000", "141721.968000", "141721.971000", "141721.975000", "141721.978000", "141721.981000", "141721.985000", "141721.988000", "141721.991000", "141721.995000", "141721.998000", "141722.002000", "141722.006000", "141722.009000", "141722.012000", "141722.016000", "141741.927000", "141741.931000", "141741.934000", "141741.937000", "141741.941000", "141741.944000", "141741.948000", "141741.951000", "141741.954000", "141741.957000", "141741.961000", "141741.964000", "141741.979000", "141741.982000", "141821.928000", "141821.932000", "141821.935000", "141821.939000", "141821.942000", "141821.946000", "141821.950000", "141821.953000", "141821.956000", "141821.959000", "141821.962000", "141821.966000", "141821.969000", "141821.973000", "141821.976000", "141821.979000", "141821.982000", "141821.986000", "141821.989000", "141821.992000", "141821.996000", "141822.000000", "141822.003000", "141822.006000", "141822.010000", "141822.013000", "141901.927000", "141901.931000", "141901.934000", "141901.938000", "141901.942000", "141901.945000", "141901.948000", "141901.952000", "141901.955000", "141901.966000", "141901.969000", "141901.973000", "141901.976000", "141901.979000", "141901.983000", "141901.986000", "141901.990000", "141901.993000", "141901.996000", "141902.000000", "141902.004000", "141902.007000", "141902.011000", "141902.014000", "141902.017000", "141902.021000", "141902.025000", "141941.928000", "141941.932000", "141941.935000", "141941.939000", "141941.942000", "141941.945000", "141941.948000", "141941.952000", "141941.955000", "141941.958000", "141941.962000", "141941.965000", "141941.968000", "141941.972000", "141941.975000", "141941.978000", "141941.981000", "141941.985000", "141941.988000", "141941.991000", "141941.995000", "141941.998000", "141942.002000", "141942.005000", "141942.009000", "141942.012000", "141942.030000", "142021.927000", "142021.931000", "142021.934000", "142021.938000", "142021.941000", "142021.944000", "142021.947000", "142021.951000", "142021.969000", "142021.972000", "142021.975000", "142021.979000", "142021.982000", "142021.985000", "142021.988000", "142021.992000", "142021.995000", "142021.998000", "142022.003000", "142022.006000", "142022.009000", "142022.012000", "142022.016000", "142022.019000", "142022.022000", "142022.026000", "142022.029000", "142101.927000", "142101.936000", "142101.940000", "142101.943000", "142101.946000", "142101.950000", "142101.953000", "142101.956000", "142101.960000", "142101.963000", "142101.966000", "142101.970000", "142101.973000", "142101.976000", "142101.986000", "142101.989000", "142101.992000", "142101.996000", "142102.000000", "142102.003000", "142102.006000", "142102.010000", "142102.013000", "142102.016000", "142102.020000", "142102.023000", "142102.026000", "142141.928000", "142141.932000", "142141.935000", "142141.939000", "142141.942000", "142141.945000", "142141.949000", "142141.952000", "142141.955000", "142141.959000", "142141.962000", "142141.965000", "142141.968000", "142141.972000", "142141.975000", "142141.979000", "142141.982000", "142141.985000", "142141.989000", "142141.992000", "142142.003000", "142142.006000", "142142.009000", "142142.013000", "142142.016000", "142142.019000", "142142.023000", "142221.927000", "142221.931000", "142221.934000", "142221.938000", "142221.941000", "142221.944000", "142221.947000", "142221.960000", "142221.964000", "142221.968000", "142221.971000", "142221.978000", "142221.981000", "142221.985000", "142221.988000", "142221.991000", "142221.995000", "142221.998000", "142222.002000", "142222.006000", "142222.021000", "142222.025000", "142222.028000", "142222.038000", "142222.042000", "142222.045000", "142222.048000", "142301.927000", "142301.931000", "142301.934000", "142301.938000", "142301.941000", "142301.944000", "142301.948000", "142301.951000", "142301.954000", "142301.958000", "142301.961000", "142301.964000", "142301.967000", "142301.971000", "142301.974000", "142301.978000", "142301.981000", "142301.984000", "142301.988000", "142301.991000", "142301.994000", "142301.998000", "142302.002000", "142302.005000", "142302.008000", "142302.012000", "142341.927000", "142341.931000", "142341.934000", "142341.937000", "142341.941000", "142341.944000", "142341.947000", "142341.951000", "142341.954000", "142341.957000", "142341.961000", "142341.964000", "142341.967000", "142341.971000", "142341.974000", "142341.977000", "142341.980000", "142341.984000", "142341.987000", "142341.990000", "142341.993000", "142341.997000", "142342.001000", "142342.004000", "142342.021000", "142342.024000", "142342.027000", "142412.805000", "142412.809000", "142412.812000", "142412.816000", "142412.819000", "142412.822000", "142412.825000", "142412.829000", "142412.832000", "142412.835000", "142412.839000", "142412.842000", "142412.845000", "142412.848000", "142412.852000", "142412.855000", "142412.858000", "142412.861000", "142412.865000", "142412.868000", "142412.871000"],
