{
  "AcquisitionMatrixPE": 104,
  "AcquisitionNumber": 1,
  "AcquisitionTime": "14:12:37.285000",
  "BandwidthPerPixelPhaseEncode": 17.17,
  "BaseResolution": 104,
  "BodyPartExamined": "BRAIN",
  "CoilCombinationMethod": "Sum of Squares",
  "ConsistencyInfo": "N4_VE11C_LATEST_20160120",
  "ConversionSoftware": "dcm2niix",
  "ConversionSoftwareVersion": "v1.0.20211006",
  "DerivedVendorReportedEchoSpacing": 0.000560011,
  "DeviceSerialNumber": "167006",
  "DwellTime": 2.1e-06,
  "EchoTime": 0.037,
  "EchoTime1": 0.037,
  "EchoTime2": 0.001,
  "EchoTrainLength": 104,
  "EffectiveEchoSpacing": 0.000560011,
  "FlipAngle": 52,
  "HeudiconvVersion": "0.11.3.post9+gc939bf8",
  "ImageComments": "Unaliased MB4/PE3/LB",
  "ImageOrientationPatientDICOM": [0.999146, 0.0359867, 0.0203289, -0.0279086, 0.950201, -0.310386],
  "ImageOrientationText": "Tra>Cor(-18.0)>Sag(1.7)",
  "ImageType": [
    "ORIGINAL",
    "PRIMARY",
    "P",
    "MB",
    "ND",
    "MOSAIC",
    "PHASE"
],
  "ImagingFrequency": 123.259,
  "InPlanePhaseEncodingDirectionDICOM": "COL",
  "InstitutionAddress": "Chemin Queen-Mary 4565,Montreal,District,CA,H3W 1W5",
  "InstitutionName": "IUGM",
  "InstitutionalDepartmentName": "Department",
  "MRAcquisitionType": "2D",
  "MagneticFieldStrength": 3,
  "Manufacturer": "Siemens",
  "ManufacturersModelName": "Prisma_fit",
  "MatrixCoilMode": "SENSE",
  "Modality": "MR",
  "MultibandAccelerationFactor": 4,
  "PartialFourier": 1,
  "PatientPosition": "HFS",
  "PercentPhaseFOV": 100,
  "PercentSampling": 100,
  "PhaseEncodingDirection": "j",
  "PhaseEncodingSteps": 104,
  "PhaseResolution": 1,
  "PixelBandwidth": 2290,
  "ProcedureStepDescription": "games^mariostars",
  "ProtocolName": "func_task-mariostars_run-01",
  "PulseSequenceDetails": "%CustomerSeq%\\cmrr_mbep2d_bold",
  "ReceiveCoilActiveElements": "HC1-7;NC1,2",
  "ReceiveCoilName": "HeadNeck_64",
  "ReconMatrixPE": 104,
  "RepetitionTime": 1.49,
  "SAR": 0.0431291,
  "ScanOptions": "FS",
  "ScanningSequence": "EP",
  "SequenceName": "epfid2d1_104",
  "SequenceVariant": "SK\\SS",
  "SeriesDescription": "func_task-mariostars_run-01",
  "SeriesNumber": 12,
  "ShimSetting": [638, -7208, -8799, 689, 108, 18, -8, -4],
  "SliceThickness": 2,
  "SliceTiming": [0, 0.785, 0.1, 0.8825, 0.1975, 0.98, 0.295, 1.08, 0.3925, 1.1775, 0.49, 1.275, 0.59, 1.3725, 0.6875, 0, 0.785, 0.1, 0.8825, 0.1975, 0.98, 0.295, 1.08, 0.3925, 1.1775, 0.49, 1.275, 0.59, 1.3725, 0.6875, 0, 0.785, 0.1, 0.8825, 0.1975, 0.98, 0.295, 1.08, 0.3925, 1.1775, 0.49, 1.275, 0.59, 1.3725, 0.6875, 0, 0.785, 0.1, 0.8825, 0.1975, 0.98, 0.295, 1.08, 0.3925, 1.1775, 0.49, 1.275, 0.59, 1.3725, 0.6875],
  "SoftwareVersions": "syngo MR E11",
  "SpacingBetweenSlices": 2,
  "StationName": "MRC35049",
  "TaskName": "mariostars",
  "TotalReadoutTime": 0.0576811,
  "TxRefAmp": 228.497,
  "WipMemBlock": "d559148f-a423-4f49-abe0-568d0ae12cce||Sequence: R016 ve11c/master r/e634e98; Dec 19 2017 11:00:25 by eja",
  "dcmmeta_affine": [
    [-1.998291015625, -0.05581722781062126, 0.060972537845373154, 110.23583221435547],
    [-0.07197333872318268, 1.9004017114639282, -0.6191068291664124, -66.19794464111328],
    [0.04065774008631706, 0.6207720041275024, 1.9007865190505981, -71.34259796142578],
    [0.0, 0.0, 0.0, 1.0]
],
  "dcmmeta_reorient_transform": [
    [0.0, -1.0, 0.0, 103.0],
    [1.0, 0.0, 0.0, 0.0],
    [0.0, 0.0, 1.0, 0.0],
    [0.0, 0.0, 0.0, 1.0]
],
  "dcmmeta_shape": [104, 104, 60, 466],
  "dcmmeta_slice_dim": 2,
  "dcmmeta_version": 0.6,
  "global": {
    "const": {
      "AcquisitionMatrix": [104, 0, 0, 104],
      "AngioFlag": "N",
      "BitsAllocated": 16,
      "BitsStored": 16,
      "BodyPartExamined": "BRAIN",
      "Columns": 832,
      "EchoNumbers": 1,
      "EchoTime": 37.0,
      "EchoTrainLength": 104,
      "FlipAngle": 52.0,
      "HighBit": 15,
      "ImageOrientationPatient": [0.99914548327777, 0.03598666782473, 0.02032887071403, -0.02790861367, 0.95020084297153, -0.3103859972667],
      "ImagePositionPatient": [-811.54709856589, -847.48793986017, 203.75850234477],
      "ImageType": [
        "ORIGINAL",
        "PRIMARY",
        "P",
        "MB",
        "ND",
        "MOSAIC"
],
      "ImagedNucleus": "1H",
      "ImagingFrequency": 123.258856,
      "InPlanePhaseEncodingDirection": "COL",
      "LargestImagePixelValue": 4095,
      "MRAcquisitionType": "2D",
      "MagneticFieldStrength": 3.0,
      "Manufacturer": "SIEMENS",
      "ManufacturerModelName": "Prisma_fit",
      "Modality": "MR",
      "NumberOfAverages": 1.0,
      "NumberOfPhaseEncodingSteps": 104,
      "PercentPhaseFieldOfView": 100.0,
      "PercentSampling": 100.0,
      "PerformedProcedureStepStartTime": "140905.209000",
      "PhotometricInterpretation": "MONOCHROME2",
      "PixelBandwidth": 2290.0,
      "PixelRepresentation": 0,
      "PixelSpacing": [2.0, 2.0],
      "ProtocolName": "func_task-mariostars_run-01",
      "RepetitionTime": 1490.0,
      "RescaleIntercept": -4096.0,
      "RescaleSlope": 2.0,
      "RescaleType": "US",
      "Rows": 832,
      "SAR": 0.04312908977253,
      "SamplesPerPixel": 1,
      "ScanOptions": "FS",
      "ScanningSequence": "EP",
      "SequenceName": "epfid2d1_104",
      "SequenceVariant": [
        "SK",
        "SS"
],
      "SeriesDescription": "func_task-mariostars_run-01",
      "SeriesNumber": 12,
      "SeriesTime": "141402.130000",
      "SliceLocation": -43.951046276554,
      "SliceThickness": 2.0,
      "SmallestImagePixelValue": 0,
      "SoftwareVersions": "syngo MR E11",
      "SpacingBetweenSlices": 2.0000000753501,
      "SpecificCharacterSet": "ISO_IR 100",
      "StudyID": "1",
      "StudyTime": "140905.133000",
      "TransmitCoilName": "Body",
      "VariableFlipAngleFlag": "N",
      "WindowCenterWidthExplanation": "Algo1",
      "dBdt": 0.0},
    "slices": {}
  },
  "time": {
    "samples": {
      "AcquisitionNumber": [1, 2, 3, 4, 5, 6, 7, 8, 9, 10, 11, 12, 13, 14, 15, 16, 17, 18, 19, 20, 21, 22, 23, 24, 25, 26, 27, 28, 29, 30, 31, 32, 33, 34, 35, 36, 37, 38, 39, 40, 41, 42, 43, 44, 45, 46, 47, 48, 49, 50, 51, 52, 53, 54, 55, 56, 57, 58, 59, 60, 61, 62, 63, 64, 65, 66, 67, 68, 69, 70, 71, 72, 73, 74, 75, 76, 77, 78, 79, 80, 81, 82, 83, 84, 85, 86, 87, 88, 89, 90, 91, 92, 93, 94, 95, 96, 97, 98, 99, 100, 101, 102, 103, 104, 105, 106, 107, 108, 109, 110, 111, 112, 113, 114, 115, 116, 117, 118, 119, 120, 121, 122, 123, 124, 125, 126, 127, 128, 129, 130, 131, 132, 133, 134, 135, 136, 137, 138, 139, 140, 141, 142, 143, 144, 145, 146, 147, 148, 149, 150, 151, 152, 153, 154, 155, 156, 157, 158, 159, 160, 161, 162, 163, 164, 165, 166, 167, 168, 169, 170, 171, 172, 173, 174, 175, 176, 177, 178, 179, 180, 181, 182, 183, 184, 185, 186, 187, 188, 189, 190, 191, 192, 193, 194, 195, 196, 197, 198, 199, 200, 201, 202, 203, 204, 205, 206, 207, 208, 209, 210, 211, 212, 213, 214, 215, 216, 217, 218, 219, 220, 221, 222, 223, 224, 225, 226, 227, 228, 229, 230, 231, 232, 233, 234, 235, 236, 237, 238, 239, 240, 241, 242, 243, 244, 245, 246, 247, 248, 249, 250, 251, 252, 253, 254, 255, 256, 257, 258, 259, 260, 261, 262, 263, 264, 265, 266, 267, 268, 269, 270, 271, 272, 273, 274, 275, 276, 277, 278, 279, 280, 281, 282, 283, 284, 285, 286, 287, 288, 289, 290, 291, 292, 293, 294, 295, 296, 297, 298, 299, 300, 301, 302, 303, 304, 305, 306, 307, 308, 309, 310, 311, 312, 313, 314, 315, 316, 317, 318, 319, 320, 321, 322, 323, 324, 325, 326, 327, 328, 329, 330, 331, 332, 333, 334, 335, 336, 337, 338, 339, 340, 341, 342, 343, 344, 345, 346, 347, 348, 349, 350, 351, 352, 353, 354, 355, 356, 357, 358, 359, 360, 361, 362, 363, 364, 365, 366, 367, 368, 369, 370, 371, 372, 373, 374, 375, 376, 377, 378, 379, 380, 381, 382, 383, 384, 385, 386, 387, 388, 389, 390, 391, 392, 393, 394, 395, 396, 397, 398, 399, 400, 401, 402, 403, 404, 405, 406, 407, 408, 409, 410, 411, 412, 413, 414, 415, 416, 417, 418, 419, 420, 421, 422, 423, 424, 425, 426, 427, 428, 429, 430, 431, 432, 433, 434, 435, 436, 437, 438, 439, 440, 441, 442, 443, 444, 445, 446, 447, 448, 449, 450, 451, 452, 453, 454, 455, 456, 457, 458, 459, 460, 461, 462, 463, 464, 465, 466],
      "AcquisitionTime": ["141237.285000", "141238.775000", "141240.265000", "141241.755000", "141243.245000", "141244.735000", "141246.225000", "141247.715000", "141249.205000", "141250.695000", "141252.185000", "141253.675000", "141255.165000", "141256.655000", "141258.145000", "141259.635000", "141301.125000", "141302.615000", "141304.105000", "141305.595000", "141307.085000", "141308.575000", "141310.065000", "141311.555000", "141313.045000", "141314.535000", "141316.025000", "141317.515000", "141319.005000", "141320.495000", "141321.985000", "141323.475000", "141324.965000", "141326.455000", "141327.945000", "141329.435000", "141330.925000", "141332.415000", "141333.905000", "141335.395000", "141336.885000", "141338.375000", "141339.865000", "141341.355000", "141342.845000", "141344.335000", "141345.825000", "141347.315000", "141348.805000", "141350.295000", "141351.785000", "141353.275000", "141354.765000", "141356.255000", "141357.745000", "141359.235000", "141400.725000", "141402.215000", "141403.705000", "141405.195000", "141406.685000", "141408.175000", "141409.665000", "141411.155000", "141412.645000", "141414.135000", "141415.625000", "141417.115000", "141418.605000", "141420.095000", "141421.585000", "141423.075000", "141424.565000", "141426.055000", "141427.545000", "141429.035000", "141430.525000", "141432.015000", "141433.505000", "141434.995000", "141436.485000", "141437.975000", "141439.465000", "141440.955000", "141442.445000", "141443.935000", "141445.425000", "141446.915000", "141448.405000", "141449.895000", "141451.385000", "141452.875000", "141454.365000", "141455.855000", "141457.345000", "141458.835000", "141500.325000", "141501.815000", "141503.305000", "141504.795000", "141506.285000", "141507.775000", "141509.265000", "141510.755000", "141512.245000", "141513.735000", "141515.225000", "141516.715000", "141518.205000", "141519.695000", "141521.185000", "141522.675000", "141524.165000", "141525.655000", "141527.145000", "141528.635000", "141530.125000", "141531.615000", "141533.105000", "141534.595000", "141536.085000", "141537.575000", "141539.065000", "141540.555000", "141542.045000", "141543.535000", "141545.025000", "141546.515000", "141548.005000", "141549.495000", "141550.985000", "141552.475000", "141553.965000", "141555.455000", "141556.945000", "141558.435000", "141559.925000", "141601.415000", "141602.905000", "141604.395000", "141605.885000", "141607.375000", "141608.865000", "141610.355000", "141611.845000", "141613.335000", "141614.825000", "141616.315000", "141617.805000", "141619.295000", "141620.785000", "141622.275000", "141623.765000", "141625.255000", "141626.745000", "141628.235000", "141629.725000", "141631.215000", "141632.705000", "141634.195000", "141635.685000", "141637.175000", "141638.665000", "141640.155000", "141641.645000", "141643.135000", "141644.625000", "141646.115000", "141647.605000", "141649.095000", "141650.585000", "141652.075000", "141653.565000", "141655.055000", "141656.545000", "141658.035000", "141659.525000", "141701.015000", "141702.505000", "141703.995000", "141705.485000", "141706.975000", "141708.465000", "141709.955000", "141711.445000", "141712.935000", "141714.425000", "141715.915000", "141717.405000", "141718.895000", "141720.385000", "141721.875000", "141723.365000", "141724.855000", "141726.345000", "141727.835000", "141729.325000", "141730.815000", "141732.305000", "141733.795000", "141735.285000", "141736.775000", "141738.265000", "141739.755000", "141741.245000", "141742.735000", "141744.225000", "141745.715000", "141747.205000", "141748.695000", "141750.185000", "141751.675000", "141753.165000", "141754.655000", "141756.145000", "141757.635000", "141759.125000", "141800.615000", "141802.105000", "141803.595000", "141805.085000", "141806.575000", "141808.065000", "141809.555000", "141811.045000", "141812.535000", "141814.025000", "141815.515000", "141817.005000", "141818.495000", "141819.985000", "141821.475000", "141822.965000", "141824.455000", "141825.945000", "141827.435000", "141828.925000", "141830.415000", "141831.905000", "141833.395000", "141834.885000", "141836.375000", "141837.865000", "141839.355000", "141840.845000", "141842.335000", "141843.825000", "141845.315000", "141846.805000", "141848.295000", "141849.785000", "141851.275000", "141852.765000", "141854.255000", "141855.745000", "141857.235000", "141858.725000", "141900.215000", "141901.705000", "141903.195000", "141904.685000", "141906.175000", "141907.665000", "141909.155000", "141910.645000", "141912.135000", "141913.625000", "141915.115000", "141916.605000", "141918.095000", "141919.585000", "141921.075000", "141922.565000", "141924.055000", "141925.545000", "141927.035000", "141928.525000", "141930.015000", "141931.505000", "141932.995000", "141934.485000", "141935.975000", "141937.465000", "141938.955000", "141940.445000", "141941.935000", "141943.425000", "141944.915000", "141946.405000", "141947.895000", "141949.385000", "141950.875000", "141952.365000", "141953.855000", "141955.345000", "141956.835000", "141958.325000", "141959.815000", "142001.305000", "142002.795000", "142004.285000", "142005.775000", "142007.265000", "142008.755000", "142010.245000", "142011.735000", "142013.225000", "142014.715000", "142016.205000", "142017.695000", "142019.185000", "142020.675000", "142022.165000", "142023.655000", "142025.145000", "142026.635000", "142028.125000", "142029.615000", "142031.105000", "142032.595000", "142034.085000", "142035.575000", "142037.065000", "142038.555000", "142040.045000", "142041.535000", "142043.025000", "142044.515000", "142046.005000", "142047.495000", "142048.985000", "142050.475000", "142051.965000", "142053.455000", "142054.945000", "142056.435000", "142057.925000", "142059.415000", "142100.905000", "142102.395000", "142103.885000", "142105.375000", "142106.865000", "142108.355000", "142109.845000", "142111.335000", "142112.825000", "142114.315000", "142115.805000", "142117.295000", "142118.785000", "142120.275000", "142121.765000", "142123.255000", "142124.745000", "142126.235000", "142127.725000", "142129.215000", "142130.705000", "142132.195000", "142133.685000", "142135.175000", "142136.665000", "142138.155000", "142139.645000", "142141.135000", "142142.625000", "142144.115000", "142145.605000", "142147.095000", "142148.585000", "142150.075000", "142151.565000", "142153.055000", "142154.545000", "142156.035000", "142157.525000", "142159.015000", "142200.505000", "142201.995000", "142203.485000", "142204.975000", "142206.465000", "142207.955000", "142209.445000", "142210.935000", "142212.425000", "142213.915000", "142215.405000", "142216.895000", "142218.385000", "142219.875000", "142221.365000", "142222.855000", "142224.345000", "142225.835000", "142227.325000", "142228.815000", "142230.305000", "142231.795000", "142233.285000", "142234.775000", "142236.265000", "142237.755000", "142239.245000", "142240.735000", "142242.225000", "142243.715000", "142245.205000", "142246.695000", "142248.185000", "142249.675000", "142251.165000", "142252.655000", "142254.145000", "142255.635000", "142257.125000", "142258.615000", "142300.105000", "142301.595000", "142303.085000", "142304.575000", "142306.065000", "142307.555000", "142309.045000", "142310.535000", "142312.025000", "142313.515000", "142315.005000", "142316.495000", "142317.985000", "142319.475000", "142320.965000", "142322.455000", "142323.945000", "142325.435000", "142326.925000", "142328.415000", "142329.905000", "142331.395000", "142332.885000", "142334.375000", "142335.865000", "142337.355000", "142338.845000", "142340.335000", "142341.825000", "142343.315000", "142344.805000", "142346.295000", "142347.785000", "142349.275000", "142350.765000", "142352.255000", "142353.745000", "142355.235000", "142356.725000", "142358.215000", "142359.705000", "142401.195000", "142402.685000", "142404.175000", "142405.665000", "142407.155000", "142408.645000", "142410.135000"],
      "ContentTime": ["141402.132000", "141402.134000", "141402.137000", "141402.139000", "141402.142000", "141402.144000", "141402.147000", "141402.149000", "141402.152000", "141402.154000", "141402.157000", "141402.159000", "141402.161000", "141402.164000", "141402.175000", "141402.178000", "141402.180000", "141402.183000", "141402.185000", "141402.187000", "141402.190000", "141402.192000", "141402.195000", "141402.197000", "141402.200000", "141402.202000", "141402.205000", "141402.207000", "141402.210000", "141422.078000", "141422.081000", "141422.083000", "141422.085000", "141422.088000", "141422.090000", "141422.093000", "141422.095000", "141422.098000", "141422.100000", "141422.103000", "141422.105000", "141422.108000", "141422.110000", "141422.113000", "141422.115000", "141422.118000", "141422.120000", "141422.129000", "141422.131000", "141422.134000", "141442.072000", "141442.075000", "141442.077000", "141442.079000", "141442.082000", "141442.084000", "141442.087000", "141442.089000", "141442.092000", "141442.094000", "141442.100000", "141442.102000", "141442.105000", "141442.107000", "141442.110000", "141442.112000", "141442.115000", "141442.117000", "141442.120000", "141442.122000", "141502.037000", "141502.039000", "141502.042000", "141502.044000", "141502.047000", "141502.049000", "141502.052000", "141502.054000", "141502.057000", "141502.059000", "141502.062000", "141502.064000", "141502.071000", "141502.073000", "141502.076000", "141502.078000", "141502.081000", "141502.083000", "141502.085000", "141502.088000", "141522.072000", "141522.074000", "141522.077000", "141522.079000", "141522.082000", "141522.084000", "141522.087000", "141522.089000", "141522.092000", "141522.094000", "141522.097000", "141522.106000", "141522.108000", "141522.111000", "141522.113000", "141522.116000", "141522.118000", "141522.121000", "141522.123000", "141522.126000", "141602.084000", "141602.087000", "141602.089000", "141602.092000", "141602.094000", "141602.097000", "141602.099000", "141602.102000", "141602.104000", "141602.106000", "141602.109000", "141602.111000", "141602.114000", "141602.116000", "141602.119000", "141602.121000", "141602.124000", "141602.126000", "141602.129000", "141602.131000", "141602.134000", "141602.136000", "141602.139000", "141602.141000", "141602.144000", "141602.146000", "141602.149000", "141642.063000", "141642.066000", "141642.068000", "141642.070000", "141642.073000", "141642.075000", "141642.078000", "141642.080000", "141642.083000", "141642.085000", "141642.088000", "141642.091000", "141642.094000", "141642.097000", "141642.099000", "141642.102000", "141642.105000", "141642.108000", "141642.128000", "141642.130000", "141642.133000", "141642.135000", "141642.138000", "141642.140000", "141642.143000", "141642.145000", "141722.094000", "141722.097000", "141722.100000", "141722.102000", "141722.105000", "141722.107000", "141722.110000", "141722.112000", "141722.115000", "141722.117000", "141722.120000", "141722.123000", "141722.125000", "141722.128000", "141722.130000", "141722.133000", "141722.135000", "141722.138000", "141722.140000", "141722.143000", "141722.145000", "141722.148000", "141722.150000", "141722.153000", "141722.156000", "141722.158000", "141722.161000", "141742.029000", "141742.032000", "141742.035000", "141742.037000", "141742.039000", "141742.042000", "141742.044000", "141742.047000", "141742.049000", "141742.052000", "141742.054000", "141742.057000", "141742.059000", "141742.062000", "141822.060000", "141822.063000", "141822.070000", "141822.073000", "141822.075000", "141822.078000", "141822.080000", "141822.083000", "141822.085000", "141822.088000", "141822.090000", "141822.093000", "141822.095000", "141822.098000", "141822.100000", "141822.107000", "141822.110000", "141822.112000", "141822.115000", "141822.117000", "141822.120000", "141822.122000", "141822.125000", "141822.127000", "141822.130000", "141822.132000", "141902.091000", "141902.094000", "141902.097000", "141902.099000", "141902.102000", "141902.104000", "141902.107000", "141902.109000", "141902.112000", "141902.114000", "141902.117000", "141902.119000", "141902.122000", "141902.124000", "141902.127000", "141902.129000", "141902.132000", "141902.134000", "141902.137000", "141902.139000", "141902.142000", "141902.145000", "141902.147000", "141902.149000", "141902.152000", "141902.155000", "141902.157000", "141942.088000", "141942.091000", "141942.094000", "141942.096000", "141942.099000", "141942.101000", "141942.104000", "141942.106000", "141942.109000", "141942.111000", "141942.114000", "141942.116000", "141942.119000", "141942.121000", "141942.124000", "141942.126000", "141942.129000", "141942.131000", "141942.134000", "141942.136000", "141942.139000", "141942.141000", "141942.144000", "141942.146000", "141942.149000", "141942.151000", "141942.154000", "142022.085000", "142022.087000", "142022.090000", "142022.092000", "142022.095000", "142022.097000", "142022.109000", "142022.111000", "142022.114000", "142022.116000", "142022.119000", "142022.121000", "142022.124000", "142022.126000", "142022.129000", "142022.131000", "142022.134000", "142022.136000", "142022.139000", "142022.141000", "142022.144000", "142022.146000", "142022.149000", "142022.151000", "142022.154000", "142022.157000", "142022.159000", "142102.080000", "142102.083000", "142102.085000", "142102.088000", "142102.090000", "142102.093000", "142102.095000", "142102.098000", "142102.100000", "142102.103000", "142102.106000", "142102.108000", "142102.110000", "142102.113000", "142102.116000", "142102.118000", "142102.120000", "142102.123000", "142102.126000", "142102.128000", "142102.131000", "142102.133000", "142102.136000", "142102.138000", "142102.141000", "142102.143000", "142102.146000", "142142.083000", "142142.086000", "142142.088000", "142142.091000", "142142.094000", "142142.096000", "142142.099000", "142142.101000", "142142.104000", "142142.106000", "142142.109000", "142142.111000", "142142.114000", "142142.116000", "142142.119000", "142142.122000", "142142.124000", "142142.127000", "142142.129000", "142142.132000", "142142.134000", "142142.137000", "142142.139000", "142142.142000", "142142.144000", "142142.147000", "142142.149000", "142222.103000", "142222.106000", "142222.108000", "142222.110000", "142222.113000", "142222.116000", "142222.126000", "142222.128000", "142222.131000", "142222.134000", "142222.136000", "142222.139000", "142222.141000", "142222.144000", "142222.146000", "142222.149000", "142222.151000", "142222.154000", "142222.156000", "142222.159000", "142222.161000", "142222.164000", "142222.166000", "142222.169000", "142222.171000", "142222.174000", "142222.176000", "142302.066000", "142302.068000", "142302.071000", "142302.074000", "142302.096000", "142302.099000", "142302.101000", "142302.104000", "142302.106000", "142302.109000", "142302.111000", "142302.114000", "142302.116000", "142302.119000", "142302.121000", "142302.124000", "142302.126000", "142302.129000", "142302.131000", "142302.134000", "142302.136000", "142302.139000", "142302.141000", "142302.144000", "142302.146000", "142302.149000", "142342.079000", "142342.082000", "142342.085000", "142342.087000", "142342.090000", "142342.092000", "142342.095000", "142342.097000", "142342.100000", "142342.102000", "142342.105000", "142342.107000", "142342.110000", "142342.112000", "142342.115000", "142342.117000", "142342.120000", "142342.122000", "142342.125000", "142342.127000", "142342.130000", "142342.132000", "142342.135000", "142342.138000", "142342.141000", "142342.143000", "142342.146000", "142412.939000", "142412.942000", "142412.944000", "142412.947000", "142412.949000", "142412.952000", "142412.955000", "142412.957000", "142412.960000", "142412.963000", "142412.965000", "142412.968000", "142412.970000", "142412.973000", "142412.975000", "142412.978000", "142412.980000", "142412.983000", "142412.985000", "142412.988000", "142412.990000"],
