{
  "AcquisitionMatrixPE": 104,
  "AcquisitionNumber": 1,
  "AcquisitionTime": "16:00:59.212500",
  "BandwidthPerPixelPhaseEncode": 17.17,
  "BaseResolution": 104,
  "BodyPartExamined": "BRAIN",
  "CoilCombinationMethod": "Sum of Squares",
  "ConsistencyInfo": "N4_VE11C_LATEST_20160120",
  "ConversionSoftware": "dcm2niix",
  "ConversionSoftwareVersion": "v1.0.20211006",
  "DerivedVendorReportedEchoSpacing": 0.000560011,
  "DeviceSerialNumber": "167006",
  "DwellTime": 2.1e-06,
  "EchoTime": 0.037,
  "EchoTrainLength": 104,
  "EffectiveEchoSpacing": 0.000560011,
  "FlipAngle": 52,
  "HeudiconvVersion": "0.11.3.post9+gc939bf8",
  "ImageComments": "Unaliased MB4/PE3/LB",
  "ImageOrientationPatientDICOM": [0.999182, -0.0400639, 0.00551223, 0.039782, 0.949207, -0.312128],
  "ImageOrientationText": "Tra>Cor(-18.2)>Sag(-0.4)",
  "ImageType": [
    "ORIGINAL",
    "PRIMARY",
    "M",
    "MB",
    "ND",
    "MOSAIC"
],
  "ImagingFrequency": 123.259,
  "InPlanePhaseEncodingDirectionDICOM": "COL",
  "InstitutionAddress": "Chemin Queen-Mary 4565,Montreal,District,CA,H3W 1W5",
  "InstitutionName": "IUGM",
  "InstitutionalDepartmentName": "Department",
  "MRAcquisitionType": "2D",
  "MagneticFieldStrength": 3,
  "Manufacturer": "Siemens",
  "ManufacturersModelName": "Prisma_fit",
  "MatrixCoilMode": "SENSE",
  "Modality": "MR",
  "MultibandAccelerationFactor": 4,
  "PartialFourier": 1,
  "PatientPosition": "HFS",
  "PercentPhaseFOV": 100,
  "PercentSampling": 100,
  "PhaseEncodingDirection": "j",
  "PhaseEncodingSteps": 104,
  "PhaseResolution": 1,
  "PixelBandwidth": 2290,
  "ProcedureStepDescription": "games^mariostars",
  "ProtocolName": "func_task-mariostars_run-03",
  "PulseSequenceDetails": "%CustomerSeq%\\cmrr_mbep2d_bold",
  "ReceiveCoilActiveElements": "HC1-7;NC1,2",
  "ReceiveCoilName": "HeadNeck_64",
  "ReconMatrixPE": 104,
  "RepetitionTime": 1.49,
  "SAR": 0.0313594,
  "ScanOptions": "FS",
  "ScanningSequence": "EP",
  "SequenceName": "epfid2d1_104",
  "SequenceVariant": "SK\\SS",
  "SeriesDescription": "func_task-mariostars_run-03",
  "SeriesNumber": 16,
  "ShimSetting": [632, -7268, -8815, 598, 14, -230, -42, -4],
  "SliceThickness": 2,
  "SliceTiming": [0, 0.785, 0.1, 0.8825, 0.1975, 0.98, 0.295, 1.08, 0.3925, 1.1775, 0.49, 1.275, 0.59, 1.3725, 0.6875, 0, 0.785, 0.1, 0.8825, 0.1975, 0.98, 0.295, 1.08, 0.3925, 1.1775, 0.49, 1.275, 0.59, 1.3725, 0.6875, 0, 0.785, 0.1, 0.8825, 0.1975, 0.98, 0.295, 1.08, 0.3925, 1.1775, 0.49, 1.275, 0.59, 1.3725, 0.6875, 0, 0.785, 0.1, 0.8825, 0.1975, 0.98, 0.295, 1.08, 0.3925, 1.1775, 0.49, 1.275, 0.59, 1.3725, 0.6875],
  "SoftwareVersions": "syngo MR E11",
  "SpacingBetweenSlices": 2,
  "StationName": "MRC35049",
  "TaskName": "mariostars",
  "TotalReadoutTime": 0.0576811,
  "TxRefAmp": 218.99,
  "WipMemBlock": "0aca48fd-fa37-421b-879f-ead0964982f8||Sequence: R016 ve11c/master r/e634e98; Dec 19 2017 11:00:25 by eja",
  "dcmmeta_affine": [
    [-1.9983638525009155, 0.0795639231801033, -0.014545564539730549, 103.23312377929688],
    [0.08012772351503372, 1.898413896560669, -0.6241828799247742, -71.24401092529297],
    [0.011024469509720802, 0.6242550015449524, 1.9000483751296997, -59.83267593383789],
    [0.0, 0.0, 0.0, 1.0]
],
  "dcmmeta_reorient_transform": [
    [0.0, -1.0, 0.0, 103.0],
    [1.0, 0.0, 0.0, 0.0],
    [0.0, 0.0, 1.0, 0.0],
    [0.0, 0.0, 0.0, 1.0]
],
  "dcmmeta_shape": [104, 104, 60, 481],
  "dcmmeta_slice_dim": 2,
  "dcmmeta_version": 0.6,
  "global": {
    "const": {
      "AcquisitionMatrix": [104, 0, 0, 104],
      "AngioFlag": "N",
      "BitsAllocated": 16,
      "BitsStored": 16,
      "BodyPartExamined": "BRAIN",
      "Columns": 832,
      "EchoNumbers": 1,
      "EchoTime": 37.0,
      "EchoTrainLength": 104,
      "FlipAngle": 52.0,
      "HighBit": 15,
      "ImageOrientationPatient": [0.99918191646501, -0.0400638624801, 0.00551223479876, 0.03978196133999, 0.94920693817724, -0.3121275125139],
      "ImagePositionPatient": [-867.79391383635, -786.14877825309, 227.68151344551],
      "ImageType": [
        "ORIGINAL",
        "PRIMARY",
        "M",
        "MB",
        "ND",
        "MOSAIC"
],
      "ImagedNucleus": "1H",
      "ImagingFrequency": 123.258813,
      "InPlanePhaseEncodingDirection": "COL",
      "MRAcquisitionType": "2D",
      "MagneticFieldStrength": 3.0,
      "Manufacturer": "SIEMENS",
      "ManufacturerModelName": "Prisma_fit",
      "Modality": "MR",
      "NumberOfAverages": 1.0,
      "NumberOfPhaseEncodingSteps": 104,
      "PercentPhaseFieldOfView": 100.0,
      "PercentSampling": 100.0,
      "PerformedProcedureStepStartTime": "144304.218000",
      "PhotometricInterpretation": "MONOCHROME2",
      "PixelBandwidth": 2290.0,
      "PixelRepresentation": 0,
      "PixelSpacing": [2.0, 2.0],
      "ProtocolName": "func_task-mariostars_run-03",
      "RepetitionTime": 1490.0,
      "Rows": 832,
      "SAR": 0.03135935543416,
      "SamplesPerPixel": 1,
      "ScanOptions": "FS",
      "ScanningSequence": "EP",
      "SequenceName": "epfid2d1_104",
      "SequenceVariant": [
        "SK",
        "SS"
],
      "SeriesDescription": "func_task-mariostars_run-03",
      "SeriesNumber": 16,
      "SeriesTime": "160157.867000",
      "SliceLocation": -35.358637405504,
      "SliceThickness": 2.0,
      "SmallestImagePixelValue": 0,
      "SoftwareVersions": "syngo MR E11",
      "SpacingBetweenSlices": 1.9999999495218,
      "SpecificCharacterSet": "ISO_IR 100",
      "StudyID": "1",
      "StudyTime": "144304.127000",
      "TransmitCoilName": "Body",
      "VariableFlipAngleFlag": "N",
      "WindowCenterWidthExplanation": "Algo1",
      "dBdt": 0.0},
    "slices": {}
  },
  "time": {
    "samples": {
      "AcquisitionNumber": [1, 2, 3, 4, 5, 6, 7, 8, 9, 10, 11, 12, 13, 14, 15, 16, 17, 18, 19, 20, 21, 22, 23, 24, 25, 26, 27, 28, 29, 30, 31, 32, 33, 34, 35, 36, 37, 38, 39, 40, 41, 42, 43, 44, 45, 46, 47, 48, 49, 50, 51, 52, 53, 54, 55, 56, 57, 58, 59, 60, 61, 62, 63, 64, 65, 66, 67, 68, 69, 70, 71, 72, 73, 74, 75, 76, 77, 78, 79, 80, 81, 82, 83, 84, 85, 86, 87, 88, 89, 90, 91, 92, 93, 94, 95, 96, 97, 98, 99, 100, 101, 102, 103, 104, 105, 106, 107, 108, 109, 110, 111, 112, 113, 114, 115, 116, 117, 118, 119, 120, 121, 122, 123, 124, 125, 126, 127, 128, 129, 130, 131, 132, 133, 134, 135, 136, 137, 138, 139, 140, 141, 142, 143, 144, 145, 146, 147, 148, 149, 150, 151, 152, 153, 154, 155, 156, 157, 158, 159, 160, 161, 162, 163, 164, 165, 166, 167, 168, 169, 170, 171, 172, 173, 174, 175, 176, 177, 178, 179, 180, 181, 182, 183, 184, 185, 186, 187, 188, 189, 190, 191, 192, 193, 194, 195, 196, 197, 198, 199, 200, 201, 202, 203, 204, 205, 206, 207, 208, 209, 210, 211, 212, 213, 214, 215, 216, 217, 218, 219, 220, 221, 222, 223, 224, 225, 226, 227, 228, 229, 230, 231, 232, 233, 234, 235, 236, 237, 238, 239, 240, 241, 242, 243, 244, 245, 246, 247, 248, 249, 250, 251, 252, 253, 254, 255, 256, 257, 258, 259, 260, 261, 262, 263, 264, 265, 266, 267, 268, 269, 270, 271, 272, 273, 274, 275, 276, 277, 278, 279, 280, 281, 282, 283, 284, 285, 286, 287, 288, 289, 290, 291, 292, 293, 294, 295, 296, 297, 298, 299, 300, 301, 302, 303, 304, 305, 306, 307, 308, 309, 310, 311, 312, 313, 314, 315, 316, 317, 318, 319, 320, 321, 322, 323, 324, 325, 326, 327, 328, 329, 330, 331, 332, 333, 334, 335, 336, 337, 338, 339, 340, 341, 342, 343, 344, 345, 346, 347, 348, 349, 350, 351, 352, 353, 354, 355, 356, 357, 358, 359, 360, 361, 362, 363, 364, 365, 366, 367, 368, 369, 370, 371, 372, 373, 374, 375, 376, 377, 378, 379, 380, 381, 382, 383, 384, 385, 386, 387, 388, 389, 390, 391, 392, 393, 394, 395, 396, 397, 398, 399, 400, 401, 402, 403, 404, 405, 406, 407, 408, 409, 410, 411, 412, 413, 414, 415, 416, 417, 418, 419, 420, 421, 422, 423, 424, 425, 426, 427, 428, 429, 430, 431, 432, 433, 434, 435, 436, 437, 438, 439, 440, 441, 442, 443, 444, 445, 446, 447, 448, 449, 450, 451, 452, 453, 454, 455, 456, 457, 458, 459, 460, 461, 462, 463, 464, 465, 466, 467, 468, 469, 470, 471, 472, 473, 474, 475, 476, 477, 478, 479, 480, 481],
      "AcquisitionTime": ["160059.212500", "160100.702500", "160102.192500", "160103.682500", "160105.172500", "160106.662500", "160108.152500", "160109.642500", "160111.132500", "160112.622500", "160114.112500", "160115.602500", "160117.092500", "160118.582500", "160120.072500", "160121.562500", "160123.052500", "160124.542500", "160126.032500", "160127.522500", "160129.012500", "160130.502500", "160131.992500", "160133.482500", "160134.972500", "160136.462500", "160137.952500", "160139.442500", "160140.932500", "160142.422500", "160143.912500", "160145.402500", "160146.892500", "160148.382500", "160149.872500", "160151.362500", "160152.852500", "160154.342500", "160155.832500", "160157.322500", "160158.812500", "160200.302500", "160201.792500", "160203.282500", "160204.772500", "160206.262500", "160207.752500", "160209.242500", "160210.732500", "160212.222500", "160213.712500", "160215.202500", "160216.692500", "160218.182500", "160219.672500", "160221.162500", "160222.652500", "160224.142500", "160225.632500", "160227.122500", "160228.612500", "160230.102500", "160231.592500", "160233.082500", "160234.572500", "160236.062500", "160237.552500", "160239.042500", "160240.532500", "160242.022500", "160243.512500", "160245.002500", "160246.492500", "160247.982500", "160249.472500", "160250.962500", "160252.452500", "160253.942500", "160255.432500", "160256.922500", "160258.412500", "160259.902500", "160301.392500", "160302.882500", "160304.372500", "160305.862500", "160307.352500", "160308.842500", "160310.332500", "160311.822500", "160313.312500", "160314.802500", "160316.292500", "160317.782500", "160319.272500", "160320.762500", "160322.252500", "160323.742500", "160325.232500", "160326.722500", "160328.212500", "160329.702500", "160331.192500", "160332.682500", "160334.172500", "160335.662500", "160337.152500", "160338.642500", "160340.132500", "160341.622500", "160343.112500", "160344.602500", "160346.092500", "160347.582500", "160349.072500", "160350.562500", "160352.052500", "160353.542500", "160355.032500", "160356.522500", "160358.012500", "160359.502500", "160400.992500", "160402.482500", "160403.972500", "160405.462500", "160406.952500", "160408.442500", "160409.932500", "160411.422500", "160412.912500", "160414.402500", "160415.892500", "160417.382500", "160418.872500", "160420.362500", "160421.852500", "160423.342500", "160424.832500", "160426.322500", "160427.812500", "160429.302500", "160430.792500", "160432.282500", "160433.772500", "160435.262500", "160436.752500", "160438.242500", "160439.732500", "160441.222500", "160442.712500", "160444.202500", "160445.692500", "160447.182500", "160448.672500", "160450.162500", "160451.652500", "160453.142500", "160454.632500", "160456.122500", "160457.612500", "160459.102500", "160500.592500", "160502.082500", "160503.572500", "160505.062500", "160506.552500", "160508.042500", "160509.532500", "160511.022500", "160512.512500", "160514.002500", "160515.492500", "160516.982500", "160518.472500", "160519.962500", "160521.452500", "160522.942500", "160524.432500", "160525.922500", "160527.412500", "160528.902500", "160530.392500", "160531.882500", "160533.372500", "160534.862500", "160536.352500", "160537.842500", "160539.332500", "160540.822500", "160542.312500", "160543.802500", "160545.292500", "160546.782500", "160548.272500", "160549.762500", "160551.252500", "160552.742500", "160554.232500", "160555.722500", "160557.212500", "160558.702500", "160600.192500", "160601.682500", "160603.172500", "160604.662500", "160606.152500", "160607.642500", "160609.132500", "160610.622500", "160612.112500", "160613.602500", "160615.092500", "160616.582500", "160618.072500", "160619.562500", "160621.052500", "160622.542500", "160624.032500", "160625.522500", "160627.012500", "160628.502500", "160629.992500", "160631.482500", "160632.972500", "160634.462500", "160635.952500", "160637.442500", "160638.932500", "160640.422500", "160641.912500", "160643.402500", "160644.892500", "160646.382500", "160647.872500", "160649.362500", "160650.852500", "160652.342500", "160653.832500", "160655.322500", "160656.812500", "160658.302500", "160659.792500", "160701.282500", "160702.772500", "160704.262500", "160705.752500", "160707.242500", "160708.732500", "160710.222500", "160711.712500", "160713.202500", "160714.692500", "160716.182500", "160717.672500", "160719.162500", "160720.652500", "160722.142500", "160723.632500", "160725.122500", "160726.612500", "160728.102500", "160729.592500", "160731.082500", "160732.572500", "160734.062500", "160735.552500", "160737.042500", "160738.532500", "160740.022500", "160741.512500", "160743.002500", "160744.492500", "160745.982500", "160747.472500", "160748.962500", "160750.452500", "160751.942500", "160753.432500", "160754.922500", "160756.412500", "160757.902500", "160759.392500", "160800.882500", "160802.372500", "160803.862500", "160805.352500", "160806.842500", "160808.332500", "160809.822500", "160811.312500", "160812.802500", "160814.292500", "160815.782500", "160817.272500", "160818.762500", "160820.252500", "160821.742500", "160823.232500", "160824.722500", "160826.212500", "160827.702500", "160829.192500", "160830.682500", "160832.172500", "160833.662500", "160835.152500", "160836.642500", "160838.132500", "160839.622500", "160841.112500", "160842.602500", "160844.092500", "160845.582500", "160847.072500", "160848.562500", "160850.052500", "160851.542500", "160853.032500", "160854.522500", "160856.012500", "160857.502500", "160858.992500", "160900.482500", "160901.972500", "160903.462500", "160904.952500", "160906.442500", "160907.932500", "160909.422500", "160910.912500", "160912.402500", "160913.892500", "160915.382500", "160916.872500", "160918.362500", "160919.852500", "160921.342500", "160922.832500", "160924.322500", "160925.812500", "160927.302500", "160928.792500", "160930.282500", "160931.772500", "160933.262500", "160934.752500", "160936.242500", "160937.732500", "160939.222500", "160940.712500", "160942.202500", "160943.692500", "160945.182500", "160946.672500", "160948.162500", "160949.652500", "160951.142500", "160952.632500", "160954.122500", "160955.612500", "160957.102500", "160958.592500", "161000.082500", "161001.572500", "161003.062500", "161004.552500", "161006.042500", "161007.532500", "161009.022500", "161010.512500", "161012.002500", "161013.492500", "161014.982500", "161016.472500", "161017.962500", "161019.452500", "161020.942500", "161022.432500", "161023.922500", "161025.412500", "161026.902500", "161028.392500", "161029.882500", "161031.372500", "161032.862500", "161034.352500", "161035.842500", "161037.332500", "161038.822500", "161040.312500", "161041.802500", "161043.292500", "161044.782500", "161046.272500", "161047.762500", "161049.252500", "161050.742500", "161052.232500", "161053.722500", "161055.212500", "161056.702500", "161058.192500", "161059.682500", "161101.172500", "161102.662500", "161104.152500", "161105.642500", "161107.132500", "161108.622500", "161110.112500", "161111.602500", "161113.092500", "161114.582500", "161116.072500", "161117.562500", "161119.052500", "161120.542500", "161122.032500", "161123.522500", "161125.012500", "161126.502500", "161127.992500", "161129.482500", "161130.972500", "161132.462500", "161133.952500", "161135.442500", "161136.932500", "161138.422500", "161139.912500", "161141.402500", "161142.892500", "161144.382500", "161145.872500", "161147.362500", "161148.852500", "161150.342500", "161151.832500", "161153.322500", "161154.812500", "161156.302500", "161157.792500", "161159.282500", "161200.772500", "161202.262500", "161203.752500", "161205.242500", "161206.732500", "161208.222500", "161209.712500", "161211.202500", "161212.692500", "161214.182500", "161215.672500", "161217.162500", "161218.652500", "161220.142500", "161221.632500", "161223.122500", "161224.612500", "161226.102500", "161227.592500", "161229.082500", "161230.572500", "161232.062500", "161233.552500", "161235.042500", "161236.532500", "161238.022500", "161239.512500", "161241.002500", "161242.492500", "161243.982500", "161245.472500", "161246.962500", "161248.452500", "161249.942500", "161251.432500", "161252.922500", "161254.412500"],
      "ContentTime": ["160157.870000", "160157.874000", "160157.877000", "160157.880000", "160157.884000", "160217.840000", "160217.844000", "160217.847000", "160217.851000", "160217.854000", "160217.858000", "160217.861000", "160217.864000", "160217.868000", "160217.881000", "160217.884000", "160217.888000", "160217.891000", "160217.894000", "160217.898000", "160217.901000", "160217.904000", "160217.908000", "160217.911000", "160217.915000", "160237.840000", "160237.844000", "160237.847000", "160237.851000", "160237.854000", "160237.858000", "160237.861000", "160237.864000", "160237.868000", "160237.871000", "160237.874000", "160237.878000", "160237.881000", "160237.885000", "160237.888000", "160237.891000", "160237.895000", "160237.898000", "160237.902000", "160237.905000", "160237.908000", "160257.839000", "160257.843000", "160257.846000", "160257.850000", "160257.853000", "160257.857000", "160257.860000", "160257.863000", "160257.867000", "160257.870000", "160257.874000", "160257.877000", "160257.880000", "160257.884000", "160257.887000", "160257.891000", "160257.894000", "160257.897000", "160257.901000", "160257.904000", "160317.839000", "160317.844000", "160317.848000", "160317.851000", "160317.854000", "160317.858000", "160317.861000", "160317.865000", "160317.868000", "160317.872000", "160317.875000", "160317.879000", "160317.882000", "160317.885000", "160317.889000", "160317.892000", "160317.896000", "160317.899000", "160317.902000", "160317.906000", "160357.840000", "160357.844000", "160357.847000", "160357.851000", "160357.854000", "160357.858000", "160357.861000", "160357.865000", "160357.868000", "160357.872000", "160357.875000", "160357.879000", "160357.882000", "160357.885000", "160357.889000", "160357.892000", "160357.896000", "160357.899000", "160357.902000", "160357.906000", "160357.909000", "160357.913000", "160357.916000", "160357.919000", "160357.923000", "160357.926000", "160357.930000", "160357.933000", "160357.937000", "160357.940000", "160357.943000", "160357.947000", "160357.950000", "160437.840000", "160437.844000", "160437.848000", "160437.861000", "160437.865000", "160437.868000", "160437.872000", "160437.875000", "160437.879000", "160437.882000", "160437.885000", "160437.889000", "160437.892000", "160437.896000", "160437.899000", "160437.903000", "160437.906000", "160437.909000", "160437.913000", "160437.916000", "160437.920000", "160437.923000", "160437.927000", "160437.930000", "160437.933000", "160437.937000", "160437.940000", "160517.839000", "160517.843000", "160517.847000", "160517.850000", "160517.853000", "160517.857000", "160517.860000", "160517.864000", "160517.867000", "160517.870000", "160517.874000", "160517.877000", "160517.881000", "160517.884000", "160517.888000", "160517.891000", "160517.895000", "160517.898000", "160517.902000", "160517.905000", "160517.908000", "160517.912000", "160517.915000", "160517.919000", "160517.922000", "160517.926000", "160557.840000", "160557.844000", "160557.848000", "160557.851000", "160557.854000", "160557.858000", "160557.861000", "160557.865000", "160557.868000", "160557.871000", "160557.875000", "160557.878000", "160557.882000", "160557.885000", "160557.888000", "160557.892000", "160557.895000", "160557.899000", "160557.902000", "160557.906000", "160557.909000", "160557.912000", "160557.916000", "160557.919000", "160557.922000", "160557.926000", "160557.929000", "160637.840000", "160637.844000", "160637.848000", "160637.851000", "160637.855000", "160637.858000", "160637.862000", "160637.865000", "160637.868000", "160637.872000", "160637.875000", "160637.879000", "160637.882000", "160637.886000", "160637.889000", "160637.893000", "160637.896000", "160637.899000", "160637.903000", "160637.906000", "160637.910000", "160637.913000", "160637.916000", "160637.920000", "160637.931000", "160637.934000", "160637.938000", "160717.840000", "160717.844000", "160717.848000", "160717.851000", "160717.854000", "160717.858000", "160717.861000", "160717.865000", "160717.868000", "160717.872000", "160717.875000", "160717.878000", "160717.882000", "160717.885000", "160717.889000", "160717.892000", "160717.896000", "160717.899000", "160717.902000", "160717.906000", "160717.909000", "160717.913000", "160717.916000", "160717.920000", "160717.923000", "160717.926000", "160717.930000", "160757.839000", "160757.843000", "160757.847000", "160757.850000", "160757.854000", "160757.857000", "160757.860000", "160757.864000", "160757.868000", "160757.874000", "160757.877000", "160757.881000", "160757.884000", "160757.888000", "160757.891000", "160757.895000", "160757.898000", "160757.901000", "160757.905000", "160757.908000", "160757.912000", "160757.915000", "160757.919000", "160757.922000", "160757.926000", "160757.929000", "160757.932000", "160837.841000", "160837.844000", "160837.848000", "160837.851000", "160837.855000", "160837.858000", "160837.862000", "160837.865000", "160837.868000", "160837.872000", "160837.875000", "160837.879000", "160837.882000", "160837.886000", "160837.889000", "160837.892000", "160837.896000", "160837.899000", "160837.903000", "160837.906000", "160837.910000", "160837.919000", "160837.923000", "160837.926000", "160837.930000", "160837.933000", "160837.936000", "160917.841000", "160917.845000", "160917.848000", "160917.861000", "160917.876000", "160917.880000", "160917.884000", "160917.887000", "160917.891000", "160917.894000", "160917.898000", "160917.901000", "160917.905000", "160917.908000", "160917.912000", "160917.915000", "160917.919000", "160917.922000", "160917.925000", "160917.929000", "160917.933000", "160917.936000", "160917.940000", "160917.943000", "160917.947000", "160917.950000", "160957.839000", "160957.843000", "160957.847000", "160957.850000", "160957.854000", "160957.857000", "160957.861000", "160957.864000", "160957.867000", "160957.871000", "160957.874000", "160957.878000", "160957.881000", "160957.885000", "160957.888000", "160957.891000", "160957.895000", "160957.898000", "160957.902000", "160957.905000", "160957.908000", "160957.912000", "160957.915000", "160957.919000", "160957.922000", "160957.926000", "160957.929000", "161017.839000", "161017.843000", "161017.847000", "161017.852000", "161017.855000", "161017.859000", "161017.862000", "161017.866000", "161017.869000", "161017.873000", "161017.876000", "161017.879000", "161017.883000", "161017.886000", "161057.840000", "161057.844000", "161057.855000", "161057.859000", "161057.862000", "161057.866000", "161057.878000", "161057.881000", "161057.885000", "161057.888000", "161057.892000", "161057.896000", "161057.899000", "161057.903000", "161057.906000", "161057.910000", "161057.913000", "161057.916000", "161057.920000", "161057.923000", "161057.927000", "161057.930000", "161057.934000", "161057.937000", "161057.940000", "161057.944000", "161057.947000", "161137.840000", "161137.844000", "161137.848000", "161137.851000", "161137.855000", "161137.858000", "161137.862000", "161137.865000", "161137.869000", "161137.872000", "161137.876000", "161137.879000", "161137.883000", "161137.886000", "161137.889000", "161137.901000", "161137.905000", "161137.909000", "161137.914000", "161137.918000", "161137.922000", "161137.926000", "161137.967000", "161137.970000", "161137.974000", "161137.977000", "161217.839000", "161217.843000", "161217.847000", "161217.850000", "161217.854000", "161217.857000", "161217.861000", "161217.864000", "161217.868000", "161217.871000", "161217.875000", "161217.878000", "161217.882000", "161217.885000", "161217.889000", "161217.892000", "161217.896000", "161217.899000", "161217.902000", "161217.906000", "161217.909000", "161217.913000", "161217.916000", "161217.920000", "161217.923000", "161217.927000", "161217.930000", "161257.211000", "161257.215000", "161257.219000", "161257.223000", "161257.226000", "161257.230000", "161257.233000", "161257.237000", "161257.240000", "161257.244000", "161257.247000", "161257.250000", "161257.254000", "161257.257000", "161257.261000", "161257.264000", "161257.268000", "161257.271000", "161257.275000", "161257.279000", "161257.283000", "161257.286000", "161257.290000", "161257.293000", "161257.297000", "161257.300000", "161257.304000"],
