{
  "AcquisitionMatrixPE": 104,
  "AcquisitionNumber": 1,
  "AcquisitionTime": "16:14:59.387500",
  "BandwidthPerPixelPhaseEncode": 17.17,
  "BaseResolution": 104,
  "BodyPartExamined": "BRAIN",
  "CoilCombinationMethod": "Sum of Squares",
  "ConsistencyInfo": "N4_VE11C_LATEST_20160120",
  "ConversionSoftware": "dcm2niix",
  "ConversionSoftwareVersion": "v1.0.20211006",
  "DerivedVendorReportedEchoSpacing": 0.000560011,
  "DeviceSerialNumber": "167006",
  "DwellTime": 2.1e-06,
  "EchoTime": 0.037,
  "EchoTrainLength": 104,
  "EffectiveEchoSpacing": 0.000560011,
  "FlipAngle": 52,
  "HeudiconvVersion": "0.11.3.post9+gc939bf8",
  "ImageComments": "Unaliased MB4/PE3/LB",
  "ImageOrientationPatientDICOM": [0.999182, -0.0400639, 0.00551223, 0.039782, 0.949207, -0.312128],
  "ImageOrientationText": "Tra>Cor(-18.2)>Sag(-0.4)",
  "ImageType": [
    "ORIGINAL",
    "PRIMARY",
    "M",
    "MB",
    "ND",
    "MOSAIC"
],
  "ImagingFrequency": 123.259,
  "InPlanePhaseEncodingDirectionDICOM": "COL",
  "InstitutionAddress": "Chemin Queen-Mary 4565,Montreal,District,CA,H3W 1W5",
  "InstitutionName": "IUGM",
  "InstitutionalDepartmentName": "Department",
  "MRAcquisitionType": "2D",
  "MagneticFieldStrength": 3,
  "Manufacturer": "Siemens",
  "ManufacturersModelName": "Prisma_fit",
  "MatrixCoilMode": "SENSE",
  "Modality": "MR",
  "MultibandAccelerationFactor": 4,
  "PartialFourier": 1,
  "PatientPosition": "HFS",
  "PercentPhaseFOV": 100,
  "PercentSampling": 100,
  "PhaseEncodingDirection": "j",
  "PhaseEncodingSteps": 104,
  "PhaseResolution": 1,
  "PixelBandwidth": 2290,
  "ProcedureStepDescription": "games^mariostars",
  "ProtocolName": "func_task-mariostars_run-04",
  "PulseSequenceDetails": "%CustomerSeq%\\cmrr_mbep2d_bold",
  "ReceiveCoilActiveElements": "HC1-7;NC1,2",
  "ReceiveCoilName": "HeadNeck_64",
  "ReconMatrixPE": 104,
  "RepetitionTime": 1.49,
  "SAR": 0.0313594,
  "ScanOptions": "FS",
  "ScanningSequence": "EP",
  "SequenceName": "epfid2d1_104",
  "SequenceVariant": "SK\\SS",
  "SeriesDescription": "func_task-mariostars_run-04",
  "SeriesNumber": 19,
  "ShimSetting": [632, -7268, -8815, 598, 14, -230, -42, -4],
  "SliceThickness": 2,
  "SliceTiming": [0, 0.7825, 0.0975, 0.8825, 0.195, 0.98, 0.2925, 1.0775, 0.3925, 1.175, 0.49, 1.2725, 0.5875, 1.3725, 0.685, 0, 0.7825, 0.0975, 0.8825, 0.195, 0.98, 0.2925, 1.0775, 0.3925, 1.175, 0.49, 1.2725, 0.5875, 1.3725, 0.685, 0, 0.7825, 0.0975, 0.8825, 0.195, 0.98, 0.2925, 1.0775, 0.3925, 1.175, 0.49, 1.2725, 0.5875, 1.3725, 0.685, 0, 0.7825, 0.0975, 0.8825, 0.195, 0.98, 0.2925, 1.0775, 0.3925, 1.175, 0.49, 1.2725, 0.5875, 1.3725, 0.685],
  "SoftwareVersions": "syngo MR E11",
  "SpacingBetweenSlices": 2,
  "StationName": "MRC35049",
  "TaskName": "mariostars",
  "TotalReadoutTime": 0.0576811,
  "TxRefAmp": 218.99,
  "WipMemBlock": "b2677413-1ea3-48b6-ba83-b82a69d54459||Sequence: R016 ve11c/master r/e634e98; Dec 19 2017 11:00:25 by eja",
  "dcmmeta_affine": [
    [-1.9983638525009155, 0.0795639231801033, -0.014545564539730549, 103.23312377929688],
    [0.08012772351503372, 1.898413896560669, -0.6241828799247742, -71.24401092529297],
    [0.011024469509720802, 0.6242550015449524, 1.9000483751296997, -59.83267593383789],
    [0.0, 0.0, 0.0, 1.0]
],
  "dcmmeta_reorient_transform": [
    [0.0, -1.0, 0.0, 103.0],
    [1.0, 0.0, 0.0, 0.0],
    [0.0, 0.0, 1.0, 0.0],
    [0.0, 0.0, 0.0, 1.0]
],
  "dcmmeta_shape": [104, 104, 60, 427],
  "dcmmeta_slice_dim": 2,
  "dcmmeta_version": 0.6,
  "global": {
    "const": {
      "AcquisitionMatrix": [104, 0, 0, 104],
      "AngioFlag": "N",
      "BitsAllocated": 16,
      "BitsStored": 16,
      "BodyPartExamined": "BRAIN",
      "Columns": 832,
      "EchoNumbers": 1,
      "EchoTime": 37.0,
      "EchoTrainLength": 104,
      "FlipAngle": 52.0,
      "HighBit": 15,
      "ImageOrientationPatient": [0.99918191646501, -0.0400638624801, 0.00551223479876, 0.03978196133999, 0.94920693817724, -0.3121275125139],
      "ImagePositionPatient": [-867.79391383635, -786.14877825309, 227.68151344551],
      "ImageType": [
        "ORIGINAL",
        "PRIMARY",
        "M",
        "MB",
        "ND",
        "MOSAIC"
],
      "ImagedNucleus": "1H",
      "ImagingFrequency": 123.258816,
      "InPlanePhaseEncodingDirection": "COL",
      "MRAcquisitionType": "2D",
      "MagneticFieldStrength": 3.0,
      "Manufacturer": "SIEMENS",
      "ManufacturerModelName": "Prisma_fit",
      "Modality": "MR",
      "NumberOfAverages": 1.0,
      "NumberOfPhaseEncodingSteps": 104,
      "PercentPhaseFieldOfView": 100.0,
      "PercentSampling": 100.0,
      "PerformedProcedureStepStartTime": "144304.218000",
      "PhotometricInterpretation": "MONOCHROME2",
      "PixelBandwidth": 2290.0,
      "PixelRepresentation": 0,
      "PixelSpacing": [2.0, 2.0],
      "ProtocolName": "func_task-mariostars_run-04",
      "RepetitionTime": 1490.0,
      "Rows": 832,
      "SAR": 0.03135935543416,
      "SamplesPerPixel": 1,
      "ScanOptions": "FS",
      "ScanningSequence": "EP",
      "SequenceName": "epfid2d1_104",
      "SequenceVariant": [
        "SK",
        "SS"
],
      "SeriesDescription": "func_task-mariostars_run-04",
      "SeriesNumber": 19,
      "SeriesTime": "161630.320000",
      "SliceLocation": -35.358637405504,
      "SliceThickness": 2.0,
      "SmallestImagePixelValue": 0,
      "SoftwareVersions": "syngo MR E11",
      "SpacingBetweenSlices": 1.9999999495218,
      "SpecificCharacterSet": "ISO_IR 100",
      "StudyID": "1",
      "StudyTime": "144304.127000",
      "TransmitCoilName": "Body",
      "VariableFlipAngleFlag": "N",
      "WindowCenterWidthExplanation": "Algo1",
      "dBdt": 0.0},
    "slices": {}
  },
  "time": {
    "samples": {
      "AcquisitionNumber": [1, 2, 3, 4, 5, 6, 7, 8, 9, 10, 11, 12, 13, 14, 15, 16, 17, 18, 19, 20, 21, 22, 23, 24, 25, 26, 27, 28, 29, 30, 31, 32, 33, 34, 35, 36, 37, 38, 39, 40, 41, 42, 43, 44, 45, 46, 47, 48, 49, 50, 51, 52, 53, 54, 55, 56, 57, 58, 59, 60, 61, 62, 63, 64, 65, 66, 67, 68, 69, 70, 71, 72, 73, 74, 75, 76, 77, 78, 79, 80, 81, 82, 83, 84, 85, 86, 87, 88, 89, 90, 91, 92, 93, 94, 95, 96, 97, 98, 99, 100, 101, 102, 103, 104, 105, 106, 107, 108, 109, 110, 111, 112, 113, 114, 115, 116, 117, 118, 119, 120, 121, 122, 123, 124, 125, 126, 127, 128, 129, 130, 131, 132, 133, 134, 135, 136, 137, 138, 139, 140, 141, 142, 143, 144, 145, 146, 147, 148, 149, 150, 151, 152, 153, 154, 155, 156, 157, 158, 159, 160, 161, 162, 163, 164, 165, 166, 167, 168, 169, 170, 171, 172, 173, 174, 175, 176, 177, 178, 179, 180, 181, 182, 183, 184, 185, 186, 187, 188, 189, 190, 191, 192, 193, 194, 195, 196, 197, 198, 199, 200, 201, 202, 203, 204, 205, 206, 207, 208, 209, 210, 211, 212, 213, 214, 215, 216, 217, 218, 219, 220, 221, 222, 223, 224, 225, 226, 227, 228, 229, 230, 231, 232, 233, 234, 235, 236, 237, 238, 239, 240, 241, 242, 243, 244, 245, 246, 247, 248, 249, 250, 251, 252, 253, 254, 255, 256, 257, 258, 259, 260, 261, 262, 263, 264, 265, 266, 267, 268, 269, 270, 271, 272, 273, 274, 275, 276, 277, 278, 279, 280, 281, 282, 283, 284, 285, 286, 287, 288, 289, 290, 291, 292, 293, 294, 295, 296, 297, 298, 299, 300, 301, 302, 303, 304, 305, 306, 307, 308, 309, 310, 311, 312, 313, 314, 315, 316, 317, 318, 319, 320, 321, 322, 323, 324, 325, 326, 327, 328, 329, 330, 331, 332, 333, 334, 335, 336, 337, 338, 339, 340, 341, 342, 343, 344, 345, 346, 347, 348, 349, 350, 351, 352, 353, 354, 355, 356, 357, 358, 359, 360, 361, 362, 363, 364, 365, 366, 367, 368, 369, 370, 371, 372, 373, 374, 375, 376, 377, 378, 379, 380, 381, 382, 383, 384, 385, 386, 387, 388, 389, 390, 391, 392, 393, 394, 395, 396, 397, 398, 399, 400, 401, 402, 403, 404, 405, 406, 407, 408, 409, 410, 411, 412, 413, 414, 415, 416, 417, 418, 419, 420, 421, 422, 423, 424, 425, 426, 427],
      "AcquisitionTime": ["161459.387500", "161500.877500", "161502.367500", "161503.857500", "161505.347500", "161506.837500", "161508.327500", "161509.817500", "161511.307500", "161512.797500", "161514.287500", "161515.777500", "161517.267500", "161518.757500", "161520.247500", "161521.737500", "161523.227500", "161524.717500", "161526.207500", "161527.697500", "161529.187500", "161530.677500", "161532.167500", "161533.657500", "161535.147500", "161536.637500", "161538.127500", "161539.617500", "161541.107500", "161542.597500", "161544.087500", "161545.577500", "161547.067500", "161548.557500", "161550.047500", "161551.537500", "161553.027500", "161554.517500", "161556.007500", "161557.497500", "161558.987500", "161600.477500", "161601.967500", "161603.457500", "161604.947500", "161606.437500", "161607.927500", "161609.417500", "161610.907500", "161612.397500", "161613.887500", "161615.377500", "161616.867500", "161618.357500", "161619.847500", "161621.337500", "161622.827500", "161624.317500", "161625.807500", "161627.297500", "161628.787500", "161630.277500", "161631.767500", "161633.257500", "161634.747500", "161636.237500", "161637.727500", "161639.217500", "161640.707500", "161642.197500", "161643.687500", "161645.177500", "161646.667500", "161648.157500", "161649.647500", "161651.137500", "161652.627500", "161654.117500", "161655.607500", "161657.097500", "161658.587500", "161700.077500", "161701.567500", "161703.057500", "161704.547500", "161706.037500", "161707.527500", "161709.017500", "161710.507500", "161711.997500", "161713.487500", "161714.977500", "161716.467500", "161717.957500", "161719.447500", "161720.937500", "161722.427500", "161723.917500", "161725.407500", "161726.897500", "161728.387500", "161729.877500", "161731.367500", "161732.857500", "161734.347500", "161735.837500", "161737.327500", "161738.817500", "161740.307500", "161741.797500", "161743.287500", "161744.777500", "161746.267500", "161747.757500", "161749.247500", "161750.737500", "161752.227500", "161753.717500", "161755.207500", "161756.697500", "161758.187500", "161759.677500", "161801.167500", "161802.657500", "161804.147500", "161805.637500", "161807.127500", "161808.617500", "161810.107500", "161811.597500", "161813.087500", "161814.577500", "161816.067500", "161817.557500", "161819.047500", "161820.537500", "161822.027500", "161823.517500", "161825.007500", "161826.497500", "161827.987500", "161829.477500", "161830.967500", "161832.457500", "161833.947500", "161835.437500", "161836.927500", "161838.417500", "161839.907500", "161841.397500", "161842.887500", "161844.377500", "161845.867500", "161847.357500", "161848.847500", "161850.337500", "161851.827500", "161853.317500", "161854.807500", "161856.297500", "161857.787500", "161859.277500", "161900.767500", "161902.257500", "161903.747500", "161905.237500", "161906.727500", "161908.217500", "161909.707500", "161911.197500", "161912.687500", "161914.177500", "161915.667500", "161917.157500", "161918.647500", "161920.137500", "161921.627500", "161923.117500", "161924.607500", "161926.097500", "161927.587500", "161929.077500", "161930.567500", "161932.057500", "161933.547500", "161935.037500", "161936.527500", "161938.017500", "161939.507500", "161940.997500", "161942.487500", "161943.977500", "161945.467500", "161946.957500", "161948.447500", "161949.937500", "161951.427500", "161952.917500", "161954.407500", "161955.897500", "161957.387500", "161958.877500", "162000.367500", "162001.857500", "162003.347500", "162004.837500", "162006.327500", "162007.817500", "162009.307500", "162010.797500", "162012.287500", "162013.777500", "162015.267500", "162016.757500", "162018.247500", "162019.737500", "162021.227500", "162022.717500", "162024.207500", "162025.697500", "162027.187500", "162028.677500", "162030.167500", "162031.657500", "162033.147500", "162034.637500", "162036.127500", "162037.617500", "162039.107500", "162040.597500", "162042.087500", "162043.577500", "162045.067500", "162046.557500", "162048.047500", "162049.537500", "162051.027500", "162052.517500", "162054.007500", "162055.497500", "162056.987500", "162058.477500", "162059.967500", "162101.457500", "162102.947500", "162104.437500", "162105.927500", "162107.417500", "162108.907500", "162110.397500", "162111.887500", "162113.377500", "162114.867500", "162116.357500", "162117.847500", "162119.337500", "162120.827500", "162122.317500", "162123.807500", "162125.297500", "162126.787500", "162128.277500", "162129.767500", "162131.257500", "162132.747500", "162134.237500", "162135.727500", "162137.217500", "162138.707500", "162140.197500", "162141.687500", "162143.177500", "162144.667500", "162146.157500", "162147.647500", "162149.137500", "162150.627500", "162152.117500", "162153.607500", "162155.097500", "162156.587500", "162158.077500", "162159.567500", "162201.057500", "162202.547500", "162204.037500", "162205.527500", "162207.017500", "162208.507500", "162209.997500", "162211.487500", "162212.977500", "162214.467500", "162215.957500", "162217.447500", "162218.937500", "162220.427500", "162221.917500", "162223.407500", "162224.897500", "162226.387500", "162227.877500", "162229.367500", "162230.857500", "162232.347500", "162233.837500", "162235.327500", "162236.817500", "162238.307500", "162239.797500", "162241.287500", "162242.777500", "162244.267500", "162245.757500", "162247.247500", "162248.737500", "162250.227500", "162251.717500", "162253.207500", "162254.697500", "162256.187500", "162257.677500", "162259.167500", "162300.657500", "162302.147500", "162303.637500", "162305.127500", "162306.617500", "162308.107500", "162309.597500", "162311.087500", "162312.577500", "162314.067500", "162315.557500", "162317.047500", "162318.537500", "162320.027500", "162321.517500", "162323.007500", "162324.497500", "162325.987500", "162327.477500", "162328.967500", "162330.457500", "162331.947500", "162333.437500", "162334.927500", "162336.417500", "162337.907500", "162339.397500", "162340.887500", "162342.377500", "162343.867500", "162345.357500", "162346.847500", "162348.337500", "162349.827500", "162351.317500", "162352.807500", "162354.297500", "162355.787500", "162357.277500", "162358.767500", "162400.257500", "162401.747500", "162403.237500", "162404.727500", "162406.217500", "162407.707500", "162409.197500", "162410.687500", "162412.177500", "162413.667500", "162415.157500", "162416.647500", "162418.137500", "162419.627500", "162421.117500", "162422.607500", "162424.097500", "162425.587500", "162427.077500", "162428.567500", "162430.057500", "162431.547500", "162433.037500", "162434.527500", "162436.017500", "162437.507500", "162438.997500", "162440.487500", "162441.977500", "162443.467500", "162444.957500", "162446.447500", "162447.937500", "162449.427500", "162450.917500", "162452.407500", "162453.897500", "162455.387500", "162456.877500", "162458.367500", "162459.857500", "162501.347500", "162502.837500", "162504.327500", "162505.817500", "162507.307500", "162508.797500", "162510.287500", "162511.777500", "162513.267500", "162514.757500", "162516.247500", "162517.737500", "162519.227500", "162520.717500", "162522.207500", "162523.697500", "162525.187500", "162526.677500", "162528.167500", "162529.657500", "162531.147500", "162532.637500", "162534.127500"],
      "ContentTime": ["161630.323000", "161630.327000", "161630.330000", "161630.334000", "161630.337000", "161630.340000", "161630.344000", "161630.347000", "161630.351000", "161630.354000", "161630.357000", "161630.361000", "161630.364000", "161630.368000", "161630.371000", "161630.374000", "161630.378000", "161630.381000", "161630.385000", "161630.388000", "161630.391000", "161630.395000", "161630.398000", "161630.402000", "161630.405000", "161630.408000", "161630.412000", "161630.415000", "161630.418000", "161630.422000", "161630.425000", "161630.429000", "161630.432000", "161630.435000", "161630.439000", "161650.292000", "161650.296000", "161650.299000", "161650.303000", "161650.306000", "161650.310000", "161650.313000", "161650.316000", "161650.320000", "161650.323000", "161650.327000", "161650.330000", "161650.333000", "161650.337000", "161650.340000", "161650.344000", "161650.347000", "161650.350000", "161650.359000", "161650.362000", "161710.292000", "161710.296000", "161710.299000", "161710.303000", "161710.306000", "161710.310000", "161710.313000", "161710.316000", "161710.320000", "161710.323000", "161710.327000", "161710.330000", "161710.337000", "161710.340000", "161710.343000", "161710.347000", "161710.351000", "161710.354000", "161710.357000", "161710.361000", "161730.292000", "161730.296000", "161730.299000", "161730.303000", "161730.306000", "161730.310000", "161730.313000", "161730.316000", "161730.320000", "161730.323000", "161730.327000", "161730.330000", "161730.334000", "161730.337000", "161730.340000", "161730.344000", "161730.347000", "161730.356000", "161730.359000", "161730.363000", "161810.292000", "161810.296000", "161810.299000", "161810.303000", "161810.306000", "161810.310000", "161810.313000", "161810.316000", "161810.320000", "161810.323000", "161810.327000", "161810.330000", "161810.333000", "161810.337000", "161810.340000", "161810.344000", "161810.347000", "161810.351000", "161810.354000", "161810.357000", "161810.361000", "161810.364000", "161810.368000", "161810.371000", "161810.375000", "161810.378000", "161810.381000", "161810.385000", "161810.388000", "161810.398000", "161810.402000", "161810.405000", "161850.292000", "161850.324000", "161850.328000", "161850.336000", "161850.339000", "161850.342000", "161850.346000", "161850.349000", "161850.353000", "161850.356000", "161850.360000", "161850.363000", "161850.367000", "161850.370000", "161850.374000", "161850.377000", "161850.381000", "161850.384000", "161850.387000", "161850.391000", "161850.394000", "161850.398000", "161850.401000", "161850.409000", "161850.412000", "161850.415000", "161850.419000", "161930.292000", "161930.296000", "161930.300000", "161930.303000", "161930.306000", "161930.310000", "161930.313000", "161930.317000", "161930.320000", "161930.323000", "161930.327000", "161930.330000", "161930.334000", "161930.337000", "161930.341000", "161930.344000", "161930.348000", "161930.351000", "161930.354000", "161930.358000", "161930.361000", "161930.365000", "161930.368000", "161930.372000", "161930.375000", "161930.378000", "161930.382000", "162010.291000", "162010.295000", "162010.299000", "162010.302000", "162010.306000", "162010.309000", "162010.312000", "162010.323000", "162010.327000", "162010.330000", "162010.334000", "162010.337000", "162010.341000", "162010.344000", "162010.347000", "162010.351000", "162010.354000", "162010.358000", "162010.361000", "162010.365000", "162010.368000", "162010.372000", "162010.375000", "162010.378000", "162010.382000", "162010.385000", "162050.292000", "162050.296000", "162050.299000", "162050.303000", "162050.306000", "162050.310000", "162050.313000", "162050.317000", "162050.320000", "162050.324000", "162050.327000", "162050.330000", "162050.334000", "162050.337000", "162050.341000", "162050.344000", "162050.348000", "162050.351000", "162050.355000", "162050.358000", "162050.361000", "162050.365000", "162050.368000", "162050.372000", "162050.375000", "162050.379000", "162050.382000", "162130.292000", "162130.296000", "162130.300000", "162130.303000", "162130.307000", "162130.310000", "162130.314000", "162130.317000", "162130.321000", "162130.324000", "162130.327000", "162130.331000", "162130.334000", "162130.338000", "162130.341000", "162130.345000", "162130.348000", "162130.352000", "162130.355000", "162130.358000", "162130.362000", "162130.365000", "162130.369000", "162130.372000", "162130.376000", "162130.379000", "162130.382000", "162210.292000", "162210.296000", "162210.300000", "162210.303000", "162210.306000", "162210.310000", "162210.313000", "162210.317000", "162210.320000", "162210.324000", "162210.327000", "162210.330000", "162210.334000", "162210.337000", "162210.341000", "162210.344000", "162210.347000", "162210.351000", "162210.354000", "162210.358000", "162210.361000", "162210.365000", "162210.368000", "162210.371000", "162210.375000", "162210.378000", "162210.382000", "162250.292000", "162250.296000", "162250.299000", "162250.303000", "162250.306000", "162250.310000", "162250.313000", "162250.317000", "162250.320000", "162250.324000", "162250.327000", "162250.331000", "162250.334000", "162250.337000", "162250.341000", "162250.344000", "162250.348000", "162250.351000", "162250.355000", "162250.358000", "162250.361000", "162250.365000", "162250.368000", "162250.372000", "162250.375000", "162250.383000", "162250.387000", "162330.292000", "162330.296000", "162330.300000", "162330.303000", "162330.306000", "162330.310000", "162330.313000", "162330.317000", "162330.320000", "162330.324000", "162330.327000", "162330.331000", "162330.334000", "162330.338000", "162330.341000", "162330.344000", "162330.348000", "162330.351000", "162330.355000", "162330.358000", "162330.362000", "162330.365000", "162330.368000", "162330.372000", "162330.375000", "162330.379000", "162330.382000", "162410.294000", "162410.298000", "162410.302000", "162410.306000", "162410.310000", "162410.314000", "162410.318000", "162410.321000", "162410.325000", "162410.328000", "162410.332000", "162410.335000", "162410.357000", "162410.360000", "162410.364000", "162410.367000", "162410.371000", "162410.374000", "162410.378000", "162410.381000", "162410.384000", "162410.389000", "162410.393000", "162410.396000", "162410.400000", "162410.403000", "162450.291000", "162450.295000", "162450.311000", "162450.314000", "162450.318000", "162450.321000", "162450.324000", "162450.328000", "162450.331000", "162450.335000", "162450.338000", "162450.342000", "162450.345000", "162450.349000", "162450.352000", "162450.355000", "162450.359000", "162450.362000", "162450.366000", "162450.369000", "162450.373000", "162450.376000", "162450.380000", "162450.383000", "162450.386000", "162450.390000", "162450.394000", "162530.293000", "162530.296000", "162530.300000", "162530.303000", "162530.307000", "162530.310000", "162530.314000", "162530.317000", "162530.320000", "162530.324000", "162530.332000", "162530.335000", "162530.338000", "162530.342000", "162530.345000", "162530.349000", "162530.352000", "162530.356000", "162530.359000", "162530.363000", "162530.366000", "162530.369000", "162530.373000", "162530.376000", "162530.380000", "162530.383000", "162530.387000", "162537.337000", "162537.340000", "162537.344000", "162537.347000", "162537.351000"],
      "InstanceCreationTime": ["161630.323000", "161630.327000", "161630.330000", "161630.334000", "161630.337000", "161630.340000", "161630.344000", "161630.347000", "161630.351000", "161630.354000", "161630.357000", "161630.361000", "161630.364000", "161630.368000", "161630.371000", "161630.374000", "161630.378000", "161630.381000", "161630.385000", "161630.388000", "161630.391000", "161630.395000", "161630.398000", "161630.402000", "161630.405000", "161630.408000", "161630.412000", "161630.415000", "161630.418000", "161630.422000", "161630.425000", "161630.429000", "161630.432000", "161630.435000", "161630.439000", "161650.292000", "161650.296000", "161650.299000", "161650.303000", "161650.306000", "161650.310000", "161650.313000", "161650.316000", "161650.320000", "161650.323000", "161650.327000", "161650.330000", "161650.333000", "161650.337000", "161650.340000", "161650.344000", "161650.347000", "161650.350000", "161650.359000", "161650.362000", "161710.292000", "161710.296000", "161710.299000", "161710.303000", "161710.306000", "161710.310000", "161710.313000", "161710.316000", "161710.320000", "161710.323000", "161710.327000", "161710.330000", "161710.337000", "161710.340000", "161710.343000", "161710.347000", "161710.351000", "161710.354000", "161710.357000", "161710.361000", "161730.292000", "161730.296000", "161730.299000", "161730.303000", "161730.306000", "161730.310000", "161730.313000", "161730.316000", "161730.320000", "161730.323000", "161730.327000", "161730.330000", "161730.334000", "161730.337000", "161730.340000", "161730.344000", "161730.347000", "161730.356000", "161730.359000", "161730.363000", "161810.292000", "161810.296000", "161810.299000", "161810.303000", "161810.306000", "161810.310000", "161810.313000", "161810.316000", "161810.320000", "161810.323000", "161810.327000", "161810.330000", "161810.333000", "161810.337000", "161810.340000", "161810.344000", "161810.347000", "161810.351000", "161810.354000", "161810.357000", "161810.361000", "161810.364000", "161810.368000", "161810.371000", "161810.375000", "161810.378000", "161810.381000", "161810.385000", "161810.388000", "161810.398000", "161810.402000", "161810.405000", "161850.292000", "161850.324000", "161850.328000", "161850.336000", "161850.339000", "161850.342000", "161850.346000", "161850.349000", "161850.353000", "161850.356000", "161850.360000", "161850.363000", "161850.367000", "161850.370000", "161850.374000", "161850.377000", "161850.381000", "161850.384000", "161850.387000", "161850.391000", "161850.394000", "161850.398000", "161850.401000", "161850.409000", "161850.412000", "161850.415000", "161850.419000", "161930.292000", "161930.296000", "161930.300000", "161930.303000", "161930.306000", "161930.310000", "161930.313000", "161930.317000", "161930.320000", "161930.323000", "161930.327000", "161930.330000", "161930.334000", "161930.337000", "161930.341000", "161930.344000", "161930.348000", "161930.351000", "161930.354000", "161930.358000", "161930.361000", "161930.365000", "161930.368000", "161930.372000", "161930.375000", "161930.378000", "161930.382000", "162010.291000", "162010.295000", "162010.299000", "162010.302000", "162010.306000", "162010.309000", "162010.312000", "162010.323000", "162010.327000", "162010.330000", "162010.334000", "162010.337000", "162010.341000", "162010.344000", "162010.347000", "162010.351000", "162010.354000", "162010.358000", "162010.361000", "162010.365000", "162010.368000", "162010.372000", "162010.375000", "162010.378000", "162010.382000", "162010.385000", "162050.292000", "162050.296000", "162050.299000", "162050.303000", "162050.306000", "162050.310000", "162050.313000", "162050.317000", "162050.320000", "162050.324000", "162050.327000", "162050.330000", "162050.334000", "162050.337000", "162050.341000", "162050.344000", "162050.348000", "162050.351000", "162050.355000", "162050.358000", "162050.361000", "162050.365000", "162050.368000", "162050.372000", "162050.375000", "162050.379000", "162050.382000", "162130.292000", "162130.296000", "162130.300000", "162130.303000", "162130.307000", "162130.310000", "162130.314000", "162130.317000", "162130.321000", "162130.324000", "162130.327000", "162130.331000", "162130.334000", "162130.338000", "162130.341000", "162130.345000", "162130.348000", "162130.352000", "162130.355000", "162130.358000", "162130.362000", "162130.365000", "162130.369000", "162130.372000", "162130.376000", "162130.379000", "162130.382000", "162210.292000", "162210.296000", "162210.300000", "162210.303000", "162210.306000", "162210.310000", "162210.313000", "162210.317000", "162210.320000", "162210.324000", "162210.327000", "162210.330000", "162210.334000", "162210.337000", "162210.341000", "162210.344000", "162210.347000", "162210.351000", "162210.354000", "162210.358000", "162210.361000", "162210.365000", "162210.368000", "162210.371000", "162210.375000", "162210.378000", "162210.382000", "162250.292000", "162250.296000", "162250.299000", "162250.303000", "162250.306000", "162250.310000", "162250.313000", "162250.317000", "162250.320000", "162250.324000", "162250.327000", "162250.331000", "162250.334000", "162250.337000", "162250.341000", "162250.344000", "162250.348000", "162250.351000", "162250.355000", "162250.358000", "162250.361000", "162250.365000", "162250.368000", "162250.372000", "162250.375000", "162250.383000", "162250.387000", "162330.292000", "162330.296000", "162330.300000", "162330.303000", "162330.306000", "162330.310000", "162330.313000", "162330.317000", "162330.320000", "162330.324000", "162330.327000", "162330.331000", "162330.334000", "162330.338000", "162330.341000", "162330.344000", "162330.348000", "162330.351000", "162330.355000", "162330.358000", "162330.362000", "162330.365000", "162330.368000", "162330.372000", "162330.375000", "162330.379000", "162330.382000", "162410.294000", "162410.298000", "162410.302000", "162410.306000", "162410.310000", "162410.314000", "162410.318000", "162410.321000", "162410.325000", "162410.328000", "162410.332000", "162410.335000", "162410.357000", "162410.360000", "162410.364000", "162410.367000", "162410.371000", "162410.374000", "162410.378000", "162410.381000", "162410.384000", "162410.389000", "162410.393000", "162410.396000", "162410.400000", "162410.403000", "162450.291000", "162450.295000", "162450.311000", "162450.314000", "162450.318000", "162450.321000", "162450.324000", "162450.328000", "162450.331000", "162450.335000", "162450.338000", "162450.342000", "162450.345000", "162450.349000", "162450.352000", "162450.355000", "162450.359000", "162450.362000", "162450.366000", "162450.369000", "162450.373000", "162450.376000", "162450.380000", "162450.383000", "162450.386000", "162450.390000", "162450.394000", "162530.293000", "162530.296000", "162530.300000", "162530.303000", "162530.307000", "162530.310000", "162530.314000", "162530.317000", "162530.320000", "162530.324000", "162530.332000", "162530.335000", "162530.338000", "162530.342000", "162530.345000", "162530.349000", "162530.352000", "162530.356000", "162530.359000", "162530.363000", "162530.366000", "162530.369000", "162530.373000", "162530.376000", "162530.380000", "162530.383000", "162530.387000", "162537.337000", "162537.340000", "162537.344000", "162537.347000", "162537.351000"],
