{
  "AcquisitionMatrixPE": 104,
  "AcquisitionNumber": 1,
  "AcquisitionTime": "15:49:6.587500",
  "BandwidthPerPixelPhaseEncode": 17.17,
  "BaseResolution": 104,
  "BodyPartExamined": "BRAIN",
  "CoilCombinationMethod": "Sum of Squares",
  "ConsistencyInfo": "N4_VE11C_LATEST_20160120",
  "ConversionSoftware": "dcm2niix",
  "ConversionSoftwareVersion": "v1.0.20211006",
  "DerivedVendorReportedEchoSpacing": 0.000560011,
  "DeviceSerialNumber": "167006",
  "DwellTime": 2.1e-06,
  "EchoTime": 0.037,
  "EchoTrainLength": 104,
  "EffectiveEchoSpacing": 0.000560011,
  "FlipAngle": 52,
  "HeudiconvVersion": "0.11.3.post9+gc939bf8",
  "ImageComments": "Unaliased MB4/PE3/LB",
  "ImageOrientationPatientDICOM": [0.999182, -0.0400639, 0.00551223, 0.039782, 0.949207, -0.312128],
  "ImageOrientationText": "Tra>Cor(-18.2)>Sag(-0.4)",
  "ImageType": [
    "ORIGINAL",
    "PRIMARY",
    "M",
    "MB",
    "ND",
    "MOSAIC"
],
  "ImagingFrequency": 123.259,
  "InPlanePhaseEncodingDirectionDICOM": "COL",
  "InstitutionAddress": "Chemin Queen-Mary 4565,Montreal,District,CA,H3W 1W5",
  "InstitutionName": "IUGM",
  "InstitutionalDepartmentName": "Department",
  "MRAcquisitionType": "2D",
  "MagneticFieldStrength": 3,
  "Manufacturer": "Siemens",
  "ManufacturersModelName": "Prisma_fit",
  "MatrixCoilMode": "SENSE",
  "Modality": "MR",
  "MultibandAccelerationFactor": 4,
  "PartialFourier": 1,
  "PatientPosition": "HFS",
  "PercentPhaseFOV": 100,
  "PercentSampling": 100,
  "PhaseEncodingDirection": "j",
  "PhaseEncodingSteps": 104,
  "PhaseResolution": 1,
  "PixelBandwidth": 2290,
  "ProcedureStepDescription": "games^mariostars",
  "ProtocolName": "func_task-mariostars_run-02",
  "PulseSequenceDetails": "%CustomerSeq%\\cmrr_mbep2d_bold",
  "ReceiveCoilActiveElements": "HC1-7;NC1,2",
  "ReceiveCoilName": "HeadNeck_64",
  "ReconMatrixPE": 104,
  "RepetitionTime": 1.49,
  "SAR": 0.0313594,
  "ScanOptions": "FS",
  "ScanningSequence": "EP",
  "SequenceName": "epfid2d1_104",
  "SequenceVariant": "SK\\SS",
  "SeriesDescription": "func_task-mariostars_run-02",
  "SeriesNumber": 13,
  "ShimSetting": [632, -7268, -8815, 598, 14, -230, -42, -4],
  "SliceThickness": 2,
  "SliceTiming": [0, 0.7825, 0.0975, 0.88, 0.195, 0.9775, 0.2925, 1.0775, 0.39, 1.175, 0.49, 1.2725, 0.5875, 1.37, 0.685, 0, 0.7825, 0.0975, 0.88, 0.195, 0.9775, 0.2925, 1.0775, 0.39, 1.175, 0.49, 1.2725, 0.5875, 1.37, 0.685, 0, 0.7825, 0.0975, 0.88, 0.195, 0.9775, 0.2925, 1.0775, 0.39, 1.175, 0.49, 1.2725, 0.5875, 1.37, 0.685, 0, 0.7825, 0.0975, 0.88, 0.195, 0.9775, 0.2925, 1.0775, 0.39, 1.175, 0.49, 1.2725, 0.5875, 1.37, 0.685],
  "SoftwareVersions": "syngo MR E11",
  "SpacingBetweenSlices": 2,
  "StationName": "MRC35049",
  "TaskName": "mariostars",
  "TotalReadoutTime": 0.0576811,
  "TxRefAmp": 218.99,
  "WipMemBlock": "661c4ffd-fa75-4d03-a804-6eb3b28ee905||Sequence: R016 ve11c/master r/e634e98; Dec 19 2017 11:00:25 by eja",
  "dcmmeta_affine": [
    [-1.9983638525009155, 0.0795639231801033, -0.014545564539730549, 103.23312377929688],
    [0.08012772351503372, 1.898413896560669, -0.6241828799247742, -71.24401092529297],
    [0.011024469509720802, 0.6242550015449524, 1.9000483751296997, -59.83267593383789],
    [0.0, 0.0, 0.0, 1.0]
],
  "dcmmeta_reorient_transform": [
    [0.0, -1.0, 0.0, 103.0],
    [1.0, 0.0, 0.0, 0.0],
    [0.0, 0.0, 1.0, 0.0],
    [0.0, 0.0, 0.0, 1.0]
],
  "dcmmeta_shape": [104, 104, 60, 433],
  "dcmmeta_slice_dim": 2,
  "dcmmeta_version": 0.6,
  "global": {
    "const": {
      "AcquisitionMatrix": [104, 0, 0, 104],
      "AngioFlag": "N",
      "BitsAllocated": 16,
      "BitsStored": 16,
      "BodyPartExamined": "BRAIN",
      "Columns": 832,
      "EchoNumbers": 1,
      "EchoTime": 37.0,
      "EchoTrainLength": 104,
      "FlipAngle": 52.0,
      "HighBit": 15,
      "ImageOrientationPatient": [0.99918191646501, -0.0400638624801, 0.00551223479876, 0.03978196133999, 0.94920693817724, -0.3121275125139],
      "ImagePositionPatient": [-867.79391383635, -786.14877825309, 227.68151344551],
      "ImageType": [
        "ORIGINAL",
        "PRIMARY",
        "M",
        "MB",
        "ND",
        "MOSAIC"
],
      "ImagedNucleus": "1H",
      "ImagingFrequency": 123.258808,
      "InPlanePhaseEncodingDirection": "COL",
      "MRAcquisitionType": "2D",
      "MagneticFieldStrength": 3.0,
      "Manufacturer": "SIEMENS",
      "ManufacturerModelName": "Prisma_fit",
      "Modality": "MR",
      "NumberOfAverages": 1.0,
      "NumberOfPhaseEncodingSteps": 104,
      "PercentPhaseFieldOfView": 100.0,
      "PercentSampling": 100.0,
      "PerformedProcedureStepStartTime": "144304.218000",
      "PhotometricInterpretation": "MONOCHROME2",
      "PixelBandwidth": 2290.0,
      "PixelRepresentation": 0,
      "PixelSpacing": [2.0, 2.0],
      "ProtocolName": "func_task-mariostars_run-02",
      "RepetitionTime": 1490.0,
      "Rows": 832,
      "SAR": 0.03135935543416,
      "SamplesPerPixel": 1,
      "ScanOptions": "FS",
      "ScanningSequence": "EP",
      "SequenceName": "epfid2d1_104",
      "SequenceVariant": [
        "SK",
        "SS"
],
      "SeriesDescription": "func_task-mariostars_run-02",
      "SeriesNumber": 13,
      "SeriesTime": "155013.197000",
      "SliceLocation": -35.358637405504,
      "SliceThickness": 2.0,
      "SmallestImagePixelValue": 0,
      "SoftwareVersions": "syngo MR E11",
      "SpacingBetweenSlices": 1.9999999495218,
      "SpecificCharacterSet": "ISO_IR 100",
      "StudyID": "1",
      "StudyTime": "144304.127000",
      "TransmitCoilName": "Body",
      "VariableFlipAngleFlag": "N",
      "WindowCenterWidthExplanation": "Algo1",
      "dBdt": 0.0},
    "slices": {}
  },
  "time": {
    "samples": {
      "AcquisitionNumber": [1, 2, 3, 4, 5, 6, 7, 8, 9, 10, 11, 12, 13, 14, 15, 16, 17, 18, 19, 20, 21, 22, 23, 24, 25, 26, 27, 28, 29, 30, 31, 32, 33, 34, 35, 36, 37, 38, 39, 40, 41, 42, 43, 44, 45, 46, 47, 48, 49, 50, 51, 52, 53, 54, 55, 56, 57, 58, 59, 60, 61, 62, 63, 64, 65, 66, 67, 68, 69, 70, 71, 72, 73, 74, 75, 76, 77, 78, 79, 80, 81, 82, 83, 84, 85, 86, 87, 88, 89, 90, 91, 92, 93, 94, 95, 96, 97, 98, 99, 100, 101, 102, 103, 104, 105, 106, 107, 108, 109, 110, 111, 112, 113, 114, 115, 116, 117, 118, 119, 120, 121, 122, 123, 124, 125, 126, 127, 128, 129, 130, 131, 132, 133, 134, 135, 136, 137, 138, 139, 140, 141, 142, 143, 144, 145, 146, 147, 148, 149, 150, 151, 152, 153, 154, 155, 156, 157, 158, 159, 160, 161, 162, 163, 164, 165, 166, 167, 168, 169, 170, 171, 172, 173, 174, 175, 176, 177, 178, 179, 180, 181, 182, 183, 184, 185, 186, 187, 188, 189, 190, 191, 192, 193, 194, 195, 196, 197, 198, 199, 200, 201, 202, 203, 204, 205, 206, 207, 208, 209, 210, 211, 212, 213, 214, 215, 216, 217, 218, 219, 220, 221, 222, 223, 224, 225, 226, 227, 228, 229, 230, 231, 232, 233, 234, 235, 236, 237, 238, 239, 240, 241, 242, 243, 244, 245, 246, 247, 248, 249, 250, 251, 252, 253, 254, 255, 256, 257, 258, 259, 260, 261, 262, 263, 264, 265, 266, 267, 268, 269, 270, 271, 272, 273, 274, 275, 276, 277, 278, 279, 280, 281, 282, 283, 284, 285, 286, 287, 288, 289, 290, 291, 292, 293, 294, 295, 296, 297, 298, 299, 300, 301, 302, 303, 304, 305, 306, 307, 308, 309, 310, 311, 312, 313, 314, 315, 316, 317, 318, 319, 320, 321, 322, 323, 324, 325, 326, 327, 328, 329, 330, 331, 332, 333, 334, 335, 336, 337, 338, 339, 340, 341, 342, 343, 344, 345, 346, 347, 348, 349, 350, 351, 352, 353, 354, 355, 356, 357, 358, 359, 360, 361, 362, 363, 364, 365, 366, 367, 368, 369, 370, 371, 372, 373, 374, 375, 376, 377, 378, 379, 380, 381, 382, 383, 384, 385, 386, 387, 388, 389, 390, 391, 392, 393, 394, 395, 396, 397, 398, 399, 400, 401, 402, 403, 404, 405, 406, 407, 408, 409, 410, 411, 412, 413, 414, 415, 416, 417, 418, 419, 420, 421, 422, 423, 424, 425, 426, 427, 428, 429, 430, 431, 432, 433],
      "AcquisitionTime": ["154906.587500", "154908.077500", "154909.567500", "154911.057500", "154912.547500", "154914.037500", "154915.527500", "154917.017500", "154918.507500", "154919.997500", "154921.487500", "154922.977500", "154924.467500", "154925.957500", "154927.447500", "154928.937500", "154930.427500", "154931.917500", "154933.407500", "154934.897500", "154936.387500", "154937.877500", "154939.367500", "154940.857500", "154942.347500", "154943.837500", "154945.327500", "154946.817500", "154948.307500", "154949.797500", "154951.287500", "154952.777500", "154954.267500", "154955.757500", "154957.247500", "154958.737500", "155000.227500", "155001.717500", "155003.207500", "155004.697500", "155006.187500", "155007.677500", "155009.167500", "155010.657500", "155012.147500", "155013.637500", "155015.127500", "155016.617500", "155018.107500", "155019.597500", "155021.087500", "155022.577500", "155024.067500", "155025.557500", "155027.047500", "155028.537500", "155030.027500", "155031.517500", "155033.007500", "155034.497500", "155035.987500", "155037.477500", "155038.967500", "155040.457500", "155041.947500", "155043.437500", "155044.927500", "155046.417500", "155047.907500", "155049.397500", "155050.887500", "155052.377500", "155053.867500", "155055.357500", "155056.847500", "155058.337500", "155059.827500", "155101.317500", "155102.807500", "155104.297500", "155105.787500", "155107.277500", "155108.767500", "155110.257500", "155111.747500", "155113.237500", "155114.727500", "155116.217500", "155117.707500", "155119.197500", "155120.687500", "155122.177500", "155123.667500", "155125.157500", "155126.647500", "155128.137500", "155129.627500", "155131.117500", "155132.607500", "155134.097500", "155135.587500", "155137.077500", "155138.567500", "155140.057500", "155141.547500", "155143.037500", "155144.527500", "155146.017500", "155147.507500", "155148.997500", "155150.487500", "155151.977500", "155153.467500", "155154.957500", "155156.447500", "155157.937500", "155159.427500", "155200.917500", "155202.407500", "155203.897500", "155205.387500", "155206.877500", "155208.367500", "155209.857500", "155211.347500", "155212.837500", "155214.327500", "155215.817500", "155217.307500", "155218.797500", "155220.287500", "155221.777500", "155223.267500", "155224.757500", "155226.247500", "155227.737500", "155229.227500", "155230.717500", "155232.207500", "155233.697500", "155235.187500", "155236.677500", "155238.167500", "155239.657500", "155241.147500", "155242.637500", "155244.127500", "155245.617500", "155247.107500", "155248.597500", "155250.087500", "155251.577500", "155253.067500", "155254.557500", "155256.047500", "155257.537500", "155259.027500", "155300.517500", "155302.007500", "155303.497500", "155304.987500", "155306.477500", "155307.967500", "155309.457500", "155310.947500", "155312.437500", "155313.927500", "155315.417500", "155316.907500", "155318.397500", "155319.887500", "155321.377500", "155322.867500", "155324.357500", "155325.847500", "155327.337500", "155328.827500", "155330.317500", "155331.807500", "155333.297500", "155334.787500", "155336.277500", "155337.767500", "155339.257500", "155340.747500", "155342.237500", "155343.727500", "155345.217500", "155346.707500", "155348.197500", "155349.687500", "155351.177500", "155352.667500", "155354.157500", "155355.647500", "155357.137500", "155358.627500", "155400.117500", "155401.607500", "155403.097500", "155404.587500", "155406.077500", "155407.567500", "155409.057500", "155410.547500", "155412.037500", "155413.527500", "155415.017500", "155416.507500", "155417.997500", "155419.487500", "155420.977500", "155422.467500", "155423.957500", "155425.447500", "155426.937500", "155428.427500", "155429.917500", "155431.407500", "155432.897500", "155434.387500", "155435.877500", "155437.367500", "155438.857500", "155440.347500", "155441.837500", "155443.327500", "155444.817500", "155446.307500", "155447.797500", "155449.287500", "155450.777500", "155452.267500", "155453.757500", "155455.247500", "155456.737500", "155458.227500", "155459.717500", "155501.207500", "155502.697500", "155504.187500", "155505.677500", "155507.167500", "155508.657500", "155510.147500", "155511.637500", "155513.127500", "155514.617500", "155516.107500", "155517.597500", "155519.087500", "155520.577500", "155522.067500", "155523.557500", "155525.047500", "155526.537500", "155528.027500", "155529.517500", "155531.007500", "155532.497500", "155533.987500", "155535.477500", "155536.967500", "155538.457500", "155539.947500", "155541.437500", "155542.927500", "155544.417500", "155545.907500", "155547.397500", "155548.887500", "155550.377500", "155551.867500", "155553.357500", "155554.847500", "155556.337500", "155557.827500", "155559.317500", "155600.807500", "155602.297500", "155603.787500", "155605.277500", "155606.767500", "155608.257500", "155609.747500", "155611.237500", "155612.727500", "155614.217500", "155615.707500", "155617.197500", "155618.687500", "155620.177500", "155621.667500", "155623.157500", "155624.647500", "155626.137500", "155627.627500", "155629.117500", "155630.607500", "155632.097500", "155633.587500", "155635.077500", "155636.567500", "155638.057500", "155639.547500", "155641.037500", "155642.527500", "155644.017500", "155645.507500", "155646.997500", "155648.487500", "155649.977500", "155651.467500", "155652.957500", "155654.447500", "155655.937500", "155657.427500", "155658.917500", "155700.407500", "155701.897500", "155703.387500", "155704.877500", "155706.367500", "155707.857500", "155709.347500", "155710.837500", "155712.327500", "155713.817500", "155715.307500", "155716.797500", "155718.287500", "155719.777500", "155721.267500", "155722.757500", "155724.247500", "155725.737500", "155727.227500", "155728.717500", "155730.207500", "155731.697500", "155733.187500", "155734.677500", "155736.167500", "155737.657500", "155739.147500", "155740.637500", "155742.127500", "155743.617500", "155745.107500", "155746.597500", "155748.087500", "155749.577500", "155751.067500", "155752.557500", "155754.047500", "155755.537500", "155757.027500", "155758.517500", "155800.007500", "155801.497500", "155802.987500", "155804.477500", "155805.967500", "155807.457500", "155808.947500", "155810.437500", "155811.927500", "155813.417500", "155814.907500", "155816.397500", "155817.887500", "155819.377500", "155820.867500", "155822.357500", "155823.847500", "155825.337500", "155826.827500", "155828.317500", "155829.807500", "155831.297500", "155832.787500", "155834.277500", "155835.767500", "155837.257500", "155838.747500", "155840.237500", "155841.727500", "155843.217500", "155844.707500", "155846.197500", "155847.687500", "155849.177500", "155850.667500", "155852.157500", "155853.647500", "155855.137500", "155856.627500", "155858.117500", "155859.607500", "155901.097500", "155902.587500", "155904.077500", "155905.567500", "155907.057500", "155908.547500", "155910.037500", "155911.527500", "155913.017500", "155914.507500", "155915.997500", "155917.487500", "155918.977500", "155920.467500", "155921.957500", "155923.447500", "155924.937500", "155926.427500", "155927.917500", "155929.407500", "155930.897500", "155932.387500", "155933.877500", "155935.367500", "155936.857500", "155938.347500", "155939.837500", "155941.327500", "155942.817500", "155944.307500", "155945.797500", "155947.287500", "155948.777500", "155950.267500"],
      "ContentTime": ["155013.201000", "155013.204000", "155013.208000", "155013.211000", "155013.215000", "155013.218000", "155013.240000", "155013.244000", "155013.247000", "155013.251000", "155013.254000", "155013.257000", "155013.261000", "155033.164000", "155033.168000", "155033.171000", "155033.175000", "155033.178000", "155033.181000", "155033.185000", "155033.188000", "155033.192000", "155033.195000", "155033.198000", "155033.202000", "155033.205000", "155033.217000", "155033.221000", "155033.232000", "155033.236000", "155033.239000", "155033.242000", "155033.246000", "155053.164000", "155053.168000", "155053.171000", "155053.175000", "155053.178000", "155053.182000", "155053.185000", "155053.188000", "155053.192000", "155053.195000", "155053.199000", "155053.202000", "155053.205000", "155053.209000", "155053.212000", "155053.216000", "155053.219000", "155053.222000", "155053.226000", "155053.229000", "155113.164000", "155113.168000", "155113.171000", "155113.175000", "155113.178000", "155113.182000", "155113.185000", "155113.188000", "155113.199000", "155113.202000", "155113.206000", "155113.209000", "155113.212000", "155113.216000", "155113.219000", "155113.222000", "155113.226000", "155113.229000", "155113.233000", "155113.236000", "155133.163000", "155133.167000", "155133.170000", "155133.174000", "155133.177000", "155133.181000", "155133.184000", "155133.187000", "155133.191000", "155133.194000", "155133.198000", "155133.201000", "155133.204000", "155133.208000", "155133.211000", "155133.214000", "155133.218000", "155133.221000", "155133.225000", "155133.228000", "155213.163000", "155213.167000", "155213.171000", "155213.174000", "155213.177000", "155213.181000", "155213.184000", "155213.188000", "155213.191000", "155213.194000", "155213.198000", "155213.201000", "155213.205000", "155213.208000", "155213.211000", "155213.215000", "155213.218000", "155213.222000", "155213.235000", "155213.239000", "155213.242000", "155213.245000", "155213.249000", "155213.252000", "155213.256000", "155213.259000", "155213.263000", "155213.266000", "155213.270000", "155213.273000", "155213.277000", "155253.165000", "155253.168000", "155253.172000", "155253.175000", "155253.179000", "155253.182000", "155253.186000", "155253.189000", "155253.192000", "155253.196000", "155253.199000", "155253.203000", "155253.206000", "155253.210000", "155253.213000", "155253.217000", "155253.220000", "155253.223000", "155253.227000", "155253.230000", "155253.234000", "155253.237000", "155253.241000", "155253.244000", "155253.247000", "155253.251000", "155253.254000", "155333.163000", "155333.167000", "155333.171000", "155333.174000", "155333.177000", "155333.181000", "155333.184000", "155333.188000", "155333.191000", "155333.195000", "155333.198000", "155333.201000", "155333.205000", "155333.208000", "155333.212000", "155333.215000", "155333.218000", "155333.222000", "155333.225000", "155333.229000", "155333.232000", "155333.235000", "155333.239000", "155333.242000", "155333.246000", "155333.249000", "155333.252000", "155413.163000", "155413.167000", "155413.171000", "155413.174000", "155413.177000", "155413.181000", "155413.188000", "155413.192000", "155413.195000", "155413.198000", "155413.202000", "155413.205000", "155413.209000", "155413.212000", "155413.216000", "155413.220000", "155413.223000", "155413.226000", "155413.245000", "155413.249000", "155413.252000", "155413.255000", "155413.259000", "155413.262000", "155413.266000", "155413.269000", "155413.273000", "155453.164000", "155453.168000", "155453.172000", "155453.175000", "155453.179000", "155453.182000", "155453.186000", "155453.189000", "155453.192000", "155453.196000", "155453.199000", "155453.203000", "155453.206000", "155453.210000", "155453.213000", "155453.216000", "155453.220000", "155453.223000", "155453.227000", "155453.230000", "155453.234000", "155453.237000", "155453.240000", "155453.244000", "155453.247000", "155453.251000", "155533.165000", "155533.168000", "155533.172000", "155533.175000", "155533.179000", "155533.182000", "155533.185000", "155533.189000", "155533.192000", "155533.196000", "155533.199000", "155533.203000", "155533.206000", "155533.210000", "155533.213000", "155533.216000", "155533.220000", "155533.223000", "155533.227000", "155533.235000", "155533.239000", "155533.242000", "155533.245000", "155533.249000", "155533.252000", "155533.256000", "155533.259000", "155613.163000", "155613.167000", "155613.171000", "155613.174000", "155613.178000", "155613.181000", "155613.184000", "155613.188000", "155613.191000", "155613.195000", "155613.198000", "155613.201000", "155613.205000", "155613.208000", "155613.212000", "155613.215000", "155613.219000", "155613.222000", "155613.225000", "155613.229000", "155613.232000", "155613.236000", "155613.239000", "155613.242000", "155613.246000", "155613.249000", "155613.253000", "155653.173000", "155653.177000", "155653.180000", "155653.184000", "155653.187000", "155653.191000", "155653.194000", "155653.198000", "155653.201000", "155653.204000", "155653.208000", "155653.211000", "155653.215000", "155653.218000", "155653.222000", "155653.225000", "155653.228000", "155653.232000", "155653.235000", "155653.239000", "155653.248000", "155653.252000", "155653.255000", "155653.259000", "155653.262000", "155653.266000", "155653.269000", "155733.164000", "155733.168000", "155733.172000", "155733.175000", "155733.178000", "155733.182000", "155733.185000", "155733.189000", "155733.192000", "155733.196000", "155733.208000", "155733.212000", "155733.215000", "155733.218000", "155733.222000", "155733.225000", "155733.229000", "155733.232000", "155733.236000", "155733.239000", "155733.242000", "155733.246000", "155733.249000", "155733.253000", "155733.262000", "155733.265000", "155733.269000", "155813.163000", "155813.167000", "155813.171000", "155813.174000", "155813.177000", "155813.181000", "155813.184000", "155813.188000", "155813.191000", "155813.195000", "155813.198000", "155813.201000", "155813.205000", "155813.208000", "155813.212000", "155813.215000", "155813.219000", "155813.222000", "155813.225000", "155813.229000", "155813.232000", "155813.236000", "155813.239000", "155813.243000", "155813.246000", "155813.249000", "155813.253000", "155853.164000", "155853.168000", "155853.173000", "155853.176000", "155853.180000", "155853.183000", "155853.187000", "155853.190000", "155853.194000", "155853.197000", "155853.200000", "155853.204000", "155853.212000", "155853.215000", "155853.219000", "155853.222000", "155853.225000", "155853.229000", "155853.232000", "155853.236000", "155853.239000", "155853.242000", "155853.246000", "155853.249000", "155853.253000", "155853.256000", "155853.259000", "155933.164000", "155933.168000", "155933.172000", "155933.175000", "155933.179000", "155933.182000", "155933.185000", "155933.189000", "155933.192000", "155933.196000", "155933.199000", "155933.202000", "155933.206000", "155933.209000", "155933.213000", "155933.216000", "155933.220000", "155933.223000", "155933.226000", "155933.230000", "155933.233000", "155933.237000", "155933.240000", "155933.244000", "155933.248000", "155933.252000", "155952.818000", "155952.821000", "155952.825000", "155952.828000", "155952.832000", "155952.835000", "155952.839000", "155952.842000", "155952.846000", "155952.849000", "155952.853000", "155952.856000", "155952.860000", "155952.863000"],
      "InstanceCreationTime": ["155013.201000", "155013.204000", "155013.208000", "155013.211000", "155013.215000", "155013.218000", "155013.240000", "155013.244000", "155013.247000", "155013.251000", "155013.254000", "155013.257000", "155013.261000", "155033.164000", "155033.168000", "155033.171000", "155033.175000", "155033.178000", "155033.181000", "155033.185000", "155033.188000", "155033.192000", "155033.195000", "155033.198000", "155033.202000", "155033.205000", "155033.217000", "155033.221000", "155033.232000", "155033.236000", "155033.239000", "155033.242000", "155033.246000", "155053.164000", "155053.168000", "155053.171000", "155053.175000", "155053.178000", "155053.182000", "155053.185000", "155053.188000", "155053.192000", "155053.195000", "155053.199000", "155053.202000", "155053.205000", "155053.209000", "155053.212000", "155053.216000", "155053.219000", "155053.222000", "155053.226000", "155053.229000", "155113.164000", "155113.168000", "155113.171000", "155113.175000", "155113.178000", "155113.182000", "155113.185000", "155113.188000", "155113.199000", "155113.202000", "155113.206000", "155113.209000", "155113.212000", "155113.216000", "155113.219000", "155113.222000", "155113.226000", "155113.229000", "155113.233000", "155113.236000", "155133.163000", "155133.167000", "155133.170000", "155133.174000", "155133.177000", "155133.181000", "155133.184000", "155133.187000", "155133.191000", "155133.194000", "155133.198000", "155133.201000", "155133.204000", "155133.208000", "155133.211000", "155133.214000", "155133.218000", "155133.221000", "155133.225000", "155133.228000", "155213.163000", "155213.167000", "155213.171000", "155213.174000", "155213.177000", "155213.181000", "155213.184000", "155213.188000", "155213.191000", "155213.194000", "155213.198000", "155213.201000", "155213.205000", "155213.208000", "155213.211000", "155213.215000", "155213.218000", "155213.222000", "155213.235000", "155213.239000", "155213.242000", "155213.245000", "155213.249000", "155213.252000", "155213.256000", "155213.259000", "155213.263000", "155213.266000", "155213.270000", "155213.273000", "155213.277000", "155253.165000", "155253.168000", "155253.172000", "155253.175000", "155253.179000", "155253.182000", "155253.186000", "155253.189000", "155253.192000", "155253.196000", "155253.199000", "155253.203000", "155253.206000", "155253.210000", "155253.213000", "155253.217000", "155253.220000", "155253.223000", "155253.227000", "155253.230000", "155253.234000", "155253.237000", "155253.241000", "155253.244000", "155253.247000", "155253.251000", "155253.254000", "155333.163000", "155333.167000", "155333.171000", "155333.174000", "155333.177000", "155333.181000", "155333.184000", "155333.188000", "155333.191000", "155333.195000", "155333.198000", "155333.201000", "155333.205000", "155333.208000", "155333.212000", "155333.215000", "155333.218000", "155333.222000", "155333.225000", "155333.229000", "155333.232000", "155333.235000", "155333.239000", "155333.242000", "155333.246000", "155333.249000", "155333.252000", "155413.163000", "155413.167000", "155413.171000", "155413.174000", "155413.177000", "155413.181000", "155413.188000", "155413.192000", "155413.195000", "155413.198000", "155413.202000", "155413.205000", "155413.209000", "155413.212000", "155413.216000", "155413.220000", "155413.223000", "155413.226000", "155413.245000", "155413.249000", "155413.252000", "155413.255000", "155413.259000", "155413.262000", "155413.266000", "155413.269000", "155413.273000", "155453.164000", "155453.168000", "155453.172000", "155453.175000", "155453.179000", "155453.182000", "155453.186000", "155453.189000", "155453.192000", "155453.196000", "155453.199000", "155453.203000", "155453.206000", "155453.210000", "155453.213000", "155453.216000", "155453.220000", "155453.223000", "155453.227000", "155453.230000", "155453.234000", "155453.237000", "155453.240000", "155453.244000", "155453.247000", "155453.251000", "155533.165000", "155533.168000", "155533.172000", "155533.175000", "155533.179000", "155533.182000", "155533.185000", "155533.189000", "155533.192000", "155533.196000", "155533.199000", "155533.203000", "155533.206000", "155533.210000", "155533.213000", "155533.216000", "155533.220000", "155533.223000", "155533.227000", "155533.235000", "155533.239000", "155533.242000", "155533.245000", "155533.249000", "155533.252000", "155533.256000", "155533.259000", "155613.163000", "155613.167000", "155613.171000", "155613.174000", "155613.178000", "155613.181000", "155613.184000", "155613.188000", "155613.191000", "155613.195000", "155613.198000", "155613.201000", "155613.205000", "155613.208000", "155613.212000", "155613.215000", "155613.219000", "155613.222000", "155613.225000", "155613.229000", "155613.232000", "155613.236000", "155613.239000", "155613.242000", "155613.246000", "155613.249000", "155613.253000", "155653.173000", "155653.177000", "155653.180000", "155653.184000", "155653.187000", "155653.191000", "155653.194000", "155653.198000", "155653.201000", "155653.204000", "155653.208000", "155653.211000", "155653.215000", "155653.218000", "155653.222000", "155653.225000", "155653.228000", "155653.232000", "155653.235000", "155653.239000", "155653.248000", "155653.252000", "155653.255000", "155653.259000", "155653.262000", "155653.266000", "155653.269000", "155733.164000", "155733.168000", "155733.172000", "155733.175000", "155733.178000", "155733.182000", "155733.185000", "155733.189000", "155733.192000", "155733.196000", "155733.208000", "155733.212000", "155733.215000", "155733.218000", "155733.222000", "155733.225000", "155733.229000", "155733.232000", "155733.236000", "155733.239000", "155733.242000", "155733.246000", "155733.249000", "155733.253000", "155733.262000", "155733.265000", "155733.269000", "155813.163000", "155813.167000", "155813.171000", "155813.174000", "155813.177000", "155813.181000", "155813.184000", "155813.188000", "155813.191000", "155813.195000", "155813.198000", "155813.201000", "155813.205000", "155813.208000", "155813.212000", "155813.215000", "155813.219000", "155813.222000", "155813.225000", "155813.229000", "155813.232000", "155813.236000", "155813.239000", "155813.243000", "155813.246000", "155813.249000", "155813.253000", "155853.164000", "155853.168000", "155853.173000", "155853.176000", "155853.180000", "155853.183000", "155853.187000", "155853.190000", "155853.194000", "155853.197000", "155853.200000", "155853.204000", "155853.212000", "155853.215000", "155853.219000", "155853.222000", "155853.225000", "155853.229000", "155853.232000", "155853.236000", "155853.239000", "155853.242000", "155853.246000", "155853.249000", "155853.253000", "155853.256000", "155853.259000", "155933.164000", "155933.168000", "155933.172000", "155933.175000", "155933.179000", "155933.182000", "155933.185000", "155933.189000", "155933.192000", "155933.196000", "155933.199000", "155933.202000", "155933.206000", "155933.209000", "155933.213000", "155933.216000", "155933.220000", "155933.223000", "155933.226000", "155933.230000", "155933.233000", "155933.237000", "155933.240000", "155933.244000", "155933.248000", "155933.252000", "155952.818000", "155952.821000", "155952.825000", "155952.828000", "155952.832000", "155952.835000", "155952.839000", "155952.842000", "155952.846000", "155952.849000", "155952.853000", "155952.856000", "155952.860000", "155952.863000"],
