{
  "AcquisitionMatrixPE": 104,
  "AcquisitionNumber": 1,
  "AcquisitionTime": "15:49:6.587500",
  "BandwidthPerPixelPhaseEncode": 17.17,
  "BaseResolution": 104,
  "BodyPartExamined": "BRAIN",
  "CoilCombinationMethod": "Sum of Squares",
  "ConsistencyInfo": "N4_VE11C_LATEST_20160120",
  "ConversionSoftware": "dcm2niix",
  "ConversionSoftwareVersion": "v1.0.20211006",
  "DerivedVendorReportedEchoSpacing": 0.000560011,
  "DeviceSerialNumber": "167006",
  "DwellTime": 2.1e-06,
  "EchoTime": 0.037,
  "EchoTime1": 0.037,
  "EchoTime2": 0.001,
  "EchoTrainLength": 104,
  "EffectiveEchoSpacing": 0.000560011,
  "FlipAngle": 52,
  "HeudiconvVersion": "0.11.3.post9+gc939bf8",
  "ImageComments": "Unaliased MB4/PE3/LB",
  "ImageOrientationPatientDICOM": [0.999182, -0.0400639, 0.00551223, 0.039782, 0.949207, -0.312128],
  "ImageOrientationText": "Tra>Cor(-18.2)>Sag(-0.4)",
  "ImageType": [
    "ORIGINAL",
    "PRIMARY",
    "P",
    "MB",
    "ND",
    "MOSAIC",
    "PHASE"
],
  "ImagingFrequency": 123.259,
  "InPlanePhaseEncodingDirectionDICOM": "COL",
  "InstitutionAddress": "Chemin Queen-Mary 4565,Montreal,District,CA,H3W 1W5",
  "InstitutionName": "IUGM",
  "InstitutionalDepartmentName": "Department",
  "MRAcquisitionType": "2D",
  "MagneticFieldStrength": 3,
  "Manufacturer": "Siemens",
  "ManufacturersModelName": "Prisma_fit",
  "MatrixCoilMode": "SENSE",
  "Modality": "MR",
  "MultibandAccelerationFactor": 4,
  "PartialFourier": 1,
  "PatientPosition": "HFS",
  "PercentPhaseFOV": 100,
  "PercentSampling": 100,
  "PhaseEncodingDirection": "j",
  "PhaseEncodingSteps": 104,
  "PhaseResolution": 1,
  "PixelBandwidth": 2290,
  "ProcedureStepDescription": "games^mariostars",
  "ProtocolName": "func_task-mariostars_run-02",
  "PulseSequenceDetails": "%CustomerSeq%\\cmrr_mbep2d_bold",
  "ReceiveCoilActiveElements": "HC1-7;NC1,2",
  "ReceiveCoilName": "HeadNeck_64",
  "ReconMatrixPE": 104,
  "RepetitionTime": 1.49,
  "SAR": 0.0313594,
  "ScanOptions": "FS",
  "ScanningSequence": "EP",
  "SequenceName": "epfid2d1_104",
  "SequenceVariant": "SK\\SS",
  "SeriesDescription": "func_task-mariostars_run-02",
  "SeriesNumber": 14,
  "ShimSetting": [632, -7268, -8815, 598, 14, -230, -42, -4],
  "SliceThickness": 2,
  "SliceTiming": [0, 0.7825, 0.0975, 0.88, 0.195, 0.9775, 0.2925, 1.0775, 0.39, 1.175, 0.49, 1.2725, 0.5875, 1.37, 0.685, 0, 0.7825, 0.0975, 0.88, 0.195, 0.9775, 0.2925, 1.0775, 0.39, 1.175, 0.49, 1.2725, 0.5875, 1.37, 0.685, 0, 0.7825, 0.0975, 0.88, 0.195, 0.9775, 0.2925, 1.0775, 0.39, 1.175, 0.49, 1.2725, 0.5875, 1.37, 0.685, 0, 0.7825, 0.0975, 0.88, 0.195, 0.9775, 0.2925, 1.0775, 0.39, 1.175, 0.49, 1.2725, 0.5875, 1.37, 0.685],
  "SoftwareVersions": "syngo MR E11",
  "SpacingBetweenSlices": 2,
  "StationName": "MRC35049",
  "TaskName": "mariostars",
  "TotalReadoutTime": 0.0576811,
  "TxRefAmp": 218.99,
  "WipMemBlock": "661c4ffd-fa75-4d03-a804-6eb3b28ee905||Sequence: R016 ve11c/master r/e634e98; Dec 19 2017 11:00:25 by eja",
  "dcmmeta_affine": [
    [-1.9983638525009155, 0.0795639231801033, -0.014545564539730549, 103.23312377929688],
    [0.08012772351503372, 1.898413896560669, -0.6241828799247742, -71.24401092529297],
    [0.011024469509720802, 0.6242550015449524, 1.9000483751296997, -59.83267593383789],
    [0.0, 0.0, 0.0, 1.0]
],
  "dcmmeta_reorient_transform": [
    [0.0, -1.0, 0.0, 103.0],
    [1.0, 0.0, 0.0, 0.0],
    [0.0, 0.0, 1.0, 0.0],
    [0.0, 0.0, 0.0, 1.0]
],
  "dcmmeta_shape": [104, 104, 60, 433],
  "dcmmeta_slice_dim": 2,
  "dcmmeta_version": 0.6,
  "global": {
    "const": {
      "AcquisitionMatrix": [104, 0, 0, 104],
      "AngioFlag": "N",
      "BitsAllocated": 16,
      "BitsStored": 16,
      "BodyPartExamined": "BRAIN",
      "Columns": 832,
      "EchoNumbers": 1,
      "EchoTime": 37.0,
      "EchoTrainLength": 104,
      "FlipAngle": 52.0,
      "HighBit": 15,
      "ImageOrientationPatient": [0.99918191646501, -0.0400638624801, 0.00551223479876, 0.03978196133999, 0.94920693817724, -0.3121275125139],
      "ImagePositionPatient": [-867.79391383635, -786.14877825309, 227.68151344551],
      "ImageType": [
        "ORIGINAL",
        "PRIMARY",
        "P",
        "MB",
        "ND",
        "MOSAIC"
],
      "ImagedNucleus": "1H",
      "ImagingFrequency": 123.258808,
      "InPlanePhaseEncodingDirection": "COL",
      "LargestImagePixelValue": 4095,
      "MRAcquisitionType": "2D",
      "MagneticFieldStrength": 3.0,
      "Manufacturer": "SIEMENS",
      "ManufacturerModelName": "Prisma_fit",
      "Modality": "MR",
      "NumberOfAverages": 1.0,
      "NumberOfPhaseEncodingSteps": 104,
      "PercentPhaseFieldOfView": 100.0,
      "PercentSampling": 100.0,
      "PerformedProcedureStepStartTime": "144304.218000",
      "PhotometricInterpretation": "MONOCHROME2",
      "PixelBandwidth": 2290.0,
      "PixelRepresentation": 0,
      "PixelSpacing": [2.0, 2.0],
      "ProtocolName": "func_task-mariostars_run-02",
      "RepetitionTime": 1490.0,
      "RescaleIntercept": -4096.0,
      "RescaleSlope": 2.0,
      "RescaleType": "US",
      "Rows": 832,
      "SAR": 0.03135935543416,
      "SamplesPerPixel": 1,
      "ScanOptions": "FS",
      "ScanningSequence": "EP",
      "SequenceName": "epfid2d1_104",
      "SequenceVariant": [
        "SK",
        "SS"
],
      "SeriesDescription": "func_task-mariostars_run-02",
      "SeriesNumber": 14,
      "SeriesTime": "155013.296000",
      "SliceLocation": -35.358637405504,
      "SliceThickness": 2.0,
      "SmallestImagePixelValue": 0,
      "SoftwareVersions": "syngo MR E11",
      "SpacingBetweenSlices": 1.9999999495218,
      "SpecificCharacterSet": "ISO_IR 100",
      "StudyID": "1",
      "StudyTime": "144304.127000",
      "TransmitCoilName": "Body",
      "VariableFlipAngleFlag": "N",
      "WindowCenterWidthExplanation": "Algo1",
      "dBdt": 0.0},
    "slices": {}
  },
  "time": {
    "samples": {
      "AcquisitionNumber": [1, 2, 3, 4, 5, 6, 7, 8, 9, 10, 11, 12, 13, 14, 15, 16, 17, 18, 19, 20, 21, 22, 23, 24, 25, 26, 27, 28, 29, 30, 31, 32, 33, 34, 35, 36, 37, 38, 39, 40, 41, 42, 43, 44, 45, 46, 47, 48, 49, 50, 51, 52, 53, 54, 55, 56, 57, 58, 59, 60, 61, 62, 63, 64, 65, 66, 67, 68, 69, 70, 71, 72, 73, 74, 75, 76, 77, 78, 79, 80, 81, 82, 83, 84, 85, 86, 87, 88, 89, 90, 91, 92, 93, 94, 95, 96, 97, 98, 99, 100, 101, 102, 103, 104, 105, 106, 107, 108, 109, 110, 111, 112, 113, 114, 115, 116, 117, 118, 119, 120, 121, 122, 123, 124, 125, 126, 127, 128, 129, 130, 131, 132, 133, 134, 135, 136, 137, 138, 139, 140, 141, 142, 143, 144, 145, 146, 147, 148, 149, 150, 151, 152, 153, 154, 155, 156, 157, 158, 159, 160, 161, 162, 163, 164, 165, 166, 167, 168, 169, 170, 171, 172, 173, 174, 175, 176, 177, 178, 179, 180, 181, 182, 183, 184, 185, 186, 187, 188, 189, 190, 191, 192, 193, 194, 195, 196, 197, 198, 199, 200, 201, 202, 203, 204, 205, 206, 207, 208, 209, 210, 211, 212, 213, 214, 215, 216, 217, 218, 219, 220, 221, 222, 223, 224, 225, 226, 227, 228, 229, 230, 231, 232, 233, 234, 235, 236, 237, 238, 239, 240, 241, 242, 243, 244, 245, 246, 247, 248, 249, 250, 251, 252, 253, 254, 255, 256, 257, 258, 259, 260, 261, 262, 263, 264, 265, 266, 267, 268, 269, 270, 271, 272, 273, 274, 275, 276, 277, 278, 279, 280, 281, 282, 283, 284, 285, 286, 287, 288, 289, 290, 291, 292, 293, 294, 295, 296, 297, 298, 299, 300, 301, 302, 303, 304, 305, 306, 307, 308, 309, 310, 311, 312, 313, 314, 315, 316, 317, 318, 319, 320, 321, 322, 323, 324, 325, 326, 327, 328, 329, 330, 331, 332, 333, 334, 335, 336, 337, 338, 339, 340, 341, 342, 343, 344, 345, 346, 347, 348, 349, 350, 351, 352, 353, 354, 355, 356, 357, 358, 359, 360, 361, 362, 363, 364, 365, 366, 367, 368, 369, 370, 371, 372, 373, 374, 375, 376, 377, 378, 379, 380, 381, 382, 383, 384, 385, 386, 387, 388, 389, 390, 391, 392, 393, 394, 395, 396, 397, 398, 399, 400, 401, 402, 403, 404, 405, 406, 407, 408, 409, 410, 411, 412, 413, 414, 415, 416, 417, 418, 419, 420, 421, 422, 423, 424, 425, 426, 427, 428, 429, 430, 431, 432, 433],
      "AcquisitionTime": ["154906.587500", "154908.077500", "154909.567500", "154911.057500", "154912.547500", "154914.037500", "154915.527500", "154917.017500", "154918.507500", "154919.997500", "154921.487500", "154922.977500", "154924.467500", "154925.957500", "154927.447500", "154928.937500", "154930.427500", "154931.917500", "154933.407500", "154934.897500", "154936.387500", "154937.877500", "154939.367500", "154940.857500", "154942.347500", "154943.837500", "154945.327500", "154946.817500", "154948.307500", "154949.797500", "154951.287500", "154952.777500", "154954.267500", "154955.757500", "154957.247500", "154958.737500", "155000.227500", "155001.717500", "155003.207500", "155004.697500", "155006.187500", "155007.677500", "155009.167500", "155010.657500", "155012.147500", "155013.637500", "155015.127500", "155016.617500", "155018.107500", "155019.597500", "155021.087500", "155022.577500", "155024.067500", "155025.557500", "155027.047500", "155028.537500", "155030.027500", "155031.517500", "155033.007500", "155034.497500", "155035.987500", "155037.477500", "155038.967500", "155040.457500", "155041.947500", "155043.437500", "155044.927500", "155046.417500", "155047.907500", "155049.397500", "155050.887500", "155052.377500", "155053.867500", "155055.357500", "155056.847500", "155058.337500", "155059.827500", "155101.317500", "155102.807500", "155104.297500", "155105.787500", "155107.277500", "155108.767500", "155110.257500", "155111.747500", "155113.237500", "155114.727500", "155116.217500", "155117.707500", "155119.197500", "155120.687500", "155122.177500", "155123.667500", "155125.157500", "155126.647500", "155128.137500", "155129.627500", "155131.117500", "155132.607500", "155134.097500", "155135.587500", "155137.077500", "155138.567500", "155140.057500", "155141.547500", "155143.037500", "155144.527500", "155146.017500", "155147.507500", "155148.997500", "155150.487500", "155151.977500", "155153.467500", "155154.957500", "155156.447500", "155157.937500", "155159.427500", "155200.917500", "155202.407500", "155203.897500", "155205.387500", "155206.877500", "155208.367500", "155209.857500", "155211.347500", "155212.837500", "155214.327500", "155215.817500", "155217.307500", "155218.797500", "155220.287500", "155221.777500", "155223.267500", "155224.757500", "155226.247500", "155227.737500", "155229.227500", "155230.717500", "155232.207500", "155233.697500", "155235.187500", "155236.677500", "155238.167500", "155239.657500", "155241.147500", "155242.637500", "155244.127500", "155245.617500", "155247.107500", "155248.597500", "155250.087500", "155251.577500", "155253.067500", "155254.557500", "155256.047500", "155257.537500", "155259.027500", "155300.517500", "155302.007500", "155303.497500", "155304.987500", "155306.477500", "155307.967500", "155309.457500", "155310.947500", "155312.437500", "155313.927500", "155315.417500", "155316.907500", "155318.397500", "155319.887500", "155321.377500", "155322.867500", "155324.357500", "155325.847500", "155327.337500", "155328.827500", "155330.317500", "155331.807500", "155333.297500", "155334.787500", "155336.277500", "155337.767500", "155339.257500", "155340.747500", "155342.237500", "155343.727500", "155345.217500", "155346.707500", "155348.197500", "155349.687500", "155351.177500", "155352.667500", "155354.157500", "155355.647500", "155357.137500", "155358.627500", "155400.117500", "155401.607500", "155403.097500", "155404.587500", "155406.077500", "155407.567500", "155409.057500", "155410.547500", "155412.037500", "155413.527500", "155415.017500", "155416.507500", "155417.997500", "155419.487500", "155420.977500", "155422.467500", "155423.957500", "155425.447500", "155426.937500", "155428.427500", "155429.917500", "155431.407500", "155432.897500", "155434.387500", "155435.877500", "155437.367500", "155438.857500", "155440.347500", "155441.837500", "155443.327500", "155444.817500", "155446.307500", "155447.797500", "155449.287500", "155450.777500", "155452.267500", "155453.757500", "155455.247500", "155456.737500", "155458.227500", "155459.717500", "155501.207500", "155502.697500", "155504.187500", "155505.677500", "155507.167500", "155508.657500", "155510.147500", "155511.637500", "155513.127500", "155514.617500", "155516.107500", "155517.597500", "155519.087500", "155520.577500", "155522.067500", "155523.557500", "155525.047500", "155526.537500", "155528.027500", "155529.517500", "155531.007500", "155532.497500", "155533.987500", "155535.477500", "155536.967500", "155538.457500", "155539.947500", "155541.437500", "155542.927500", "155544.417500", "155545.907500", "155547.397500", "155548.887500", "155550.377500", "155551.867500", "155553.357500", "155554.847500", "155556.337500", "155557.827500", "155559.317500", "155600.807500", "155602.297500", "155603.787500", "155605.277500", "155606.767500", "155608.257500", "155609.747500", "155611.237500", "155612.727500", "155614.217500", "155615.707500", "155617.197500", "155618.687500", "155620.177500", "155621.667500", "155623.157500", "155624.647500", "155626.137500", "155627.627500", "155629.117500", "155630.607500", "155632.097500", "155633.587500", "155635.077500", "155636.567500", "155638.057500", "155639.547500", "155641.037500", "155642.527500", "155644.017500", "155645.507500", "155646.997500", "155648.487500", "155649.977500", "155651.467500", "155652.957500", "155654.447500", "155655.937500", "155657.427500", "155658.917500", "155700.407500", "155701.897500", "155703.387500", "155704.877500", "155706.367500", "155707.857500", "155709.347500", "155710.837500", "155712.327500", "155713.817500", "155715.307500", "155716.797500", "155718.287500", "155719.777500", "155721.267500", "155722.757500", "155724.247500", "155725.737500", "155727.227500", "155728.717500", "155730.207500", "155731.697500", "155733.187500", "155734.677500", "155736.167500", "155737.657500", "155739.147500", "155740.637500", "155742.127500", "155743.617500", "155745.107500", "155746.597500", "155748.087500", "155749.577500", "155751.067500", "155752.557500", "155754.047500", "155755.537500", "155757.027500", "155758.517500", "155800.007500", "155801.497500", "155802.987500", "155804.477500", "155805.967500", "155807.457500", "155808.947500", "155810.437500", "155811.927500", "155813.417500", "155814.907500", "155816.397500", "155817.887500", "155819.377500", "155820.867500", "155822.357500", "155823.847500", "155825.337500", "155826.827500", "155828.317500", "155829.807500", "155831.297500", "155832.787500", "155834.277500", "155835.767500", "155837.257500", "155838.747500", "155840.237500", "155841.727500", "155843.217500", "155844.707500", "155846.197500", "155847.687500", "155849.177500", "155850.667500", "155852.157500", "155853.647500", "155855.137500", "155856.627500", "155858.117500", "155859.607500", "155901.097500", "155902.587500", "155904.077500", "155905.567500", "155907.057500", "155908.547500", "155910.037500", "155911.527500", "155913.017500", "155914.507500", "155915.997500", "155917.487500", "155918.977500", "155920.467500", "155921.957500", "155923.447500", "155924.937500", "155926.427500", "155927.917500", "155929.407500", "155930.897500", "155932.387500", "155933.877500", "155935.367500", "155936.857500", "155938.347500", "155939.837500", "155941.327500", "155942.817500", "155944.307500", "155945.797500", "155947.287500", "155948.777500", "155950.267500"],
      "ContentTime": ["155013.298000", "155013.301000", "155013.303000", "155013.306000", "155013.309000", "155013.311000", "155013.314000", "155013.318000", "155013.320000", "155013.323000", "155013.325000", "155013.328000", "155013.330000", "155033.284000", "155033.287000", "155033.289000", "155033.292000", "155033.294000", "155033.297000", "155033.299000", "155033.302000", "155033.305000", "155033.307000", "155033.310000", "155033.312000", "155033.315000", "155033.328000", "155033.330000", "155033.333000", "155033.335000", "155033.338000", "155033.341000", "155033.343000", "155053.283000", "155053.286000", "155053.288000", "155053.291000", "155053.294000", "155053.296000", "155053.299000", "155053.302000", "155053.304000", "155053.307000", "155053.309000", "155053.317000", "155053.320000", "155053.322000", "155053.325000", "155053.327000", "155053.330000", "155053.333000", "155053.335000", "155053.338000", "155113.276000", "155113.279000", "155113.281000", "155113.284000", "155113.287000", "155113.289000", "155113.292000", "155113.294000", "155113.297000", "155113.299000", "155113.302000", "155113.305000", "155113.307000", "155113.310000", "155113.312000", "155113.315000", "155113.317000", "155113.320000", "155113.323000", "155113.325000", "155133.269000", "155133.272000", "155133.275000", "155133.277000", "155133.284000", "155133.286000", "155133.289000", "155133.291000", "155133.294000", "155133.297000", "155133.299000", "155133.302000", "155133.304000", "155133.307000", "155133.309000", "155133.312000", "155133.315000", "155133.317000", "155133.320000", "155133.322000", "155213.335000", "155213.338000", "155213.340000", "155213.343000", "155213.345000", "155213.348000", "155213.351000", "155213.353000", "155213.356000", "155213.364000", "155213.366000", "155213.369000", "155213.371000", "155213.374000", "155213.376000", "155213.379000", "155213.381000", "155213.384000", "155213.387000", "155213.389000", "155213.392000", "155213.401000", "155213.404000", "155213.406000", "155213.409000", "155213.411000", "155213.414000", "155213.417000", "155213.419000", "155213.422000", "155213.425000", "155253.306000", "155253.309000", "155253.312000", "155253.314000", "155253.317000", "155253.319000", "155253.322000", "155253.332000", "155253.335000", "155253.337000", "155253.340000", "155253.343000", "155253.345000", "155253.348000", "155253.350000", "155253.353000", "155253.356000", "155253.358000", "155253.361000", "155253.363000", "155253.366000", "155253.368000", "155253.371000", "155253.374000", "155253.376000", "155253.379000", "155253.381000", "155333.296000", "155333.299000", "155333.302000", "155333.304000", "155333.307000", "155333.309000", "155333.312000", "155333.315000", "155333.317000", "155333.320000", "155333.322000", "155333.325000", "155333.328000", "155333.330000", "155333.333000", "155333.335000", "155333.338000", "155333.340000", "155333.343000", "155333.346000", "155333.348000", "155333.351000", "155333.353000", "155333.356000", "155333.358000", "155333.361000", "155333.364000", "155413.338000", "155413.341000", "155413.343000", "155413.346000", "155413.348000", "155413.351000", "155413.354000", "155413.356000", "155413.359000", "155413.361000", "155413.364000", "155413.366000", "155413.369000", "155413.372000", "155413.374000", "155413.377000", "155413.379000", "155413.382000", "155413.385000", "155413.387000", "155413.390000", "155413.392000", "155413.395000", "155413.397000", "155413.400000", "155413.402000", "155413.405000", "155453.301000", "155453.304000", "155453.307000", "155453.309000", "155453.312000", "155453.314000", "155453.317000", "155453.319000", "155453.322000", "155453.325000", "155453.327000", "155453.330000", "155453.332000", "155453.335000", "155453.338000", "155453.340000", "155453.343000", "155453.345000", "155453.348000", "155453.350000", "155453.353000", "155453.356000", "155453.358000", "155453.361000", "155453.363000", "155453.366000", "155533.309000", "155533.312000", "155533.314000", "155533.317000", "155533.319000", "155533.322000", "155533.325000", "155533.327000", "155533.330000", "155533.332000", "155533.335000", "155533.337000", "155533.340000", "155533.343000", "155533.345000", "155533.348000", "155533.350000", "155533.353000", "155533.357000", "155533.359000", "155533.362000", "155533.365000", "155533.367000", "155533.370000", "155533.373000", "155533.375000", "155533.378000", "155613.298000", "155613.301000", "155613.303000", "155613.306000", "155613.308000", "155613.311000", "155613.313000", "155613.316000", "155613.319000", "155613.321000", "155613.324000", "155613.326000", "155613.329000", "155613.331000", "155613.334000", "155613.337000", "155613.339000", "155613.342000", "155613.344000", "155613.347000", "155613.349000", "155613.352000", "155613.355000", "155613.357000", "155613.360000", "155613.362000", "155613.371000", "155653.335000", "155653.337000", "155653.340000", "155653.343000", "155653.345000", "155653.348000", "155653.351000", "155653.353000", "155653.356000", "155653.359000", "155653.361000", "155653.364000", "155653.366000", "155653.369000", "155653.372000", "155653.374000", "155653.377000", "155653.380000", "155653.382000", "155653.385000", "155653.387000", "155653.390000", "155653.393000", "155653.395000", "155653.398000", "155653.401000", "155653.403000", "155733.321000", "155733.324000", "155733.326000", "155733.329000", "155733.331000", "155733.334000", "155733.337000", "155733.339000", "155733.342000", "155733.344000", "155733.347000", "155733.350000", "155733.352000", "155733.355000", "155733.358000", "155733.360000", "155733.363000", "155733.366000", "155733.368000", "155733.371000", "155733.374000", "155733.376000", "155733.379000", "155733.382000", "155733.384000", "155733.387000", "155733.389000", "155813.306000", "155813.309000", "155813.311000", "155813.314000", "155813.316000", "155813.319000", "155813.322000", "155813.324000", "155813.327000", "155813.329000", "155813.332000", "155813.334000", "155813.337000", "155813.340000", "155813.342000", "155813.345000", "155813.347000", "155813.350000", "155813.353000", "155813.355000", "155813.358000", "155813.360000", "155813.363000", "155813.366000", "155813.368000", "155813.371000", "155813.374000", "155853.308000", "155853.311000", "155853.314000", "155853.316000", "155853.331000", "155853.333000", "155853.336000", "155853.338000", "155853.341000", "155853.343000", "155853.346000", "155853.349000", "155853.351000", "155853.354000", "155853.356000", "155853.359000", "155853.362000", "155853.364000", "155853.367000", "155853.369000", "155853.372000", "155853.374000", "155853.377000", "155853.380000", "155853.382000", "155853.385000", "155933.289000", "155933.292000", "155933.294000", "155933.297000", "155933.300000", "155933.302000", "155933.305000", "155933.307000", "155933.310000", "155933.312000", "155933.315000", "155933.318000", "155933.320000", "155933.323000", "155933.325000", "155933.328000", "155933.331000", "155933.333000", "155933.345000", "155933.348000", "155933.350000", "155933.353000", "155933.355000", "155933.358000", "155933.361000", "155933.364000", "155933.366000", "155952.911000", "155952.914000", "155952.917000", "155952.920000", "155952.922000", "155952.925000", "155952.927000", "155952.930000", "155952.933000", "155952.935000", "155952.938000", "155952.940000", "155952.943000", "155952.946000"],
