{
  "AcquisitionMatrixPE": 104,
  "AcquisitionNumber": 1,
  "AcquisitionTime": "15:36:3.482500",
  "BandwidthPerPixelPhaseEncode": 17.17,
  "BaseResolution": 104,
  "BodyPartExamined": "BRAIN",
  "CoilCombinationMethod": "Sum of Squares",
  "ConsistencyInfo": "N4_VE11C_LATEST_20160120",
  "ConversionSoftware": "dcm2niix",
  "ConversionSoftwareVersion": "v1.0.20211006",
  "DerivedVendorReportedEchoSpacing": 0.000560011,
  "DeviceSerialNumber": "167006",
  "DwellTime": 2.1e-06,
  "EchoTime": 0.037,
  "EchoTrainLength": 104,
  "EffectiveEchoSpacing": 0.000560011,
  "FlipAngle": 52,
  "HeudiconvVersion": "0.11.3.post9+gc939bf8",
  "ImageComments": "Unaliased MB4/PE3/LB",
  "ImageOrientationPatientDICOM": [0.999182, -0.0400639, 0.00551223, 0.039782, 0.949207, -0.312128],
  "ImageOrientationText": "Tra>Cor(-18.2)>Sag(-0.4)",
  "ImageType": [
    "ORIGINAL",
    "PRIMARY",
    "M",
    "MB",
    "ND",
    "MOSAIC"
],
  "ImagingFrequency": 123.259,
  "InPlanePhaseEncodingDirectionDICOM": "COL",
  "InstitutionAddress": "Chemin Queen-Mary 4565,Montreal,District,CA,H3W 1W5",
  "InstitutionName": "IUGM",
  "InstitutionalDepartmentName": "Department",
  "MRAcquisitionType": "2D",
  "MagneticFieldStrength": 3,
  "Manufacturer": "Siemens",
  "ManufacturersModelName": "Prisma_fit",
  "MatrixCoilMode": "SENSE",
  "Modality": "MR",
  "MultibandAccelerationFactor": 4,
  "PartialFourier": 1,
  "PatientPosition": "HFS",
  "PercentPhaseFOV": 100,
  "PercentSampling": 100,
  "PhaseEncodingDirection": "j",
  "PhaseEncodingSteps": 104,
  "PhaseResolution": 1,
  "PixelBandwidth": 2290,
  "ProcedureStepDescription": "games^mariostars",
  "ProtocolName": "func_task-mariostars_run-01",
  "PulseSequenceDetails": "%CustomerSeq%\\cmrr_mbep2d_bold",
  "ReceiveCoilActiveElements": "HC1-7;NC1,2",
  "ReceiveCoilName": "HeadNeck_64",
  "ReconMatrixPE": 104,
  "RepetitionTime": 1.49,
  "SAR": 0.0313594,
  "ScanOptions": "FS",
  "ScanningSequence": "EP",
  "SequenceName": "epfid2d1_104",
  "SequenceVariant": "SK\\SS",
  "SeriesDescription": "func_task-mariostars_run-01",
  "SeriesNumber": 10,
  "ShimSetting": [632, -7268, -8815, 598, 14, -230, -42, -4],
  "SliceThickness": 2,
  "SliceTiming": [0, 0.7825, 0.0975, 0.8825, 0.195, 0.98, 0.295, 1.0775, 0.3925, 1.175, 0.49, 1.2725, 0.5875, 1.3725, 0.685, 0, 0.7825, 0.0975, 0.8825, 0.195, 0.98, 0.295, 1.0775, 0.3925, 1.175, 0.49, 1.2725, 0.5875, 1.3725, 0.685, 0, 0.7825, 0.0975, 0.8825, 0.195, 0.98, 0.295, 1.0775, 0.3925, 1.175, 0.49, 1.2725, 0.5875, 1.3725, 0.685, 0, 0.7825, 0.0975, 0.8825, 0.195, 0.98, 0.295, 1.0775, 0.3925, 1.175, 0.49, 1.2725, 0.5875, 1.3725, 0.685],
  "SoftwareVersions": "syngo MR E11",
  "SpacingBetweenSlices": 2,
  "StationName": "MRC35049",
  "TaskName": "mariostars",
  "TotalReadoutTime": 0.0576811,
  "TxRefAmp": 218.99,
  "WipMemBlock": "68d52e42-ff0f-4329-8d59-2492c7862d38||Sequence: R016 ve11c/master r/e634e98; Dec 19 2017 11:00:25 by eja",
  "dcmmeta_affine": [
    [-1.9983638525009155, 0.0795639231801033, -0.014545564539730549, 103.23312377929688],
    [0.08012772351503372, 1.898413896560669, -0.6241828799247742, -71.24401092529297],
    [0.011024469509720802, 0.6242550015449524, 1.9000483751296997, -59.83267593383789],
    [0.0, 0.0, 0.0, 1.0]
],
  "dcmmeta_reorient_transform": [
    [0.0, -1.0, 0.0, 103.0],
    [1.0, 0.0, 0.0, 0.0],
    [0.0, 0.0, 1.0, 0.0],
    [0.0, 0.0, 0.0, 1.0]
],
  "dcmmeta_shape": [104, 104, 60, 481],
  "dcmmeta_slice_dim": 2,
  "dcmmeta_version": 0.6,
  "global": {
    "const": {
      "AcquisitionMatrix": [104, 0, 0, 104],
      "AngioFlag": "N",
      "BitsAllocated": 16,
      "BitsStored": 16,
      "BodyPartExamined": "BRAIN",
      "Columns": 832,
      "EchoNumbers": 1,
      "EchoTime": 37.0,
      "EchoTrainLength": 104,
      "FlipAngle": 52.0,
      "HighBit": 15,
      "ImageOrientationPatient": [0.99918191646501, -0.0400638624801, 0.00551223479876, 0.03978196133999, 0.94920693817724, -0.3121275125139],
      "ImagePositionPatient": [-867.79391383635, -786.14877825309, 227.68151344551],
      "ImageType": [
        "ORIGINAL",
        "PRIMARY",
        "M",
        "MB",
        "ND",
        "MOSAIC"
],
      "ImagedNucleus": "1H",
      "ImagingFrequency": 123.258799,
      "InPlanePhaseEncodingDirection": "COL",
      "MRAcquisitionType": "2D",
      "MagneticFieldStrength": 3.0,
      "Manufacturer": "SIEMENS",
      "ManufacturerModelName": "Prisma_fit",
      "Modality": "MR",
      "NumberOfAverages": 1.0,
      "NumberOfPhaseEncodingSteps": 104,
      "PercentPhaseFieldOfView": 100.0,
      "PercentSampling": 100.0,
      "PerformedProcedureStepStartTime": "144304.218000",
      "PhotometricInterpretation": "MONOCHROME2",
      "PixelBandwidth": 2290.0,
      "PixelRepresentation": 0,
      "PixelSpacing": [2.0, 2.0],
      "ProtocolName": "func_task-mariostars_run-01",
      "RepetitionTime": 1490.0,
      "Rows": 832,
      "SAR": 0.03135935543416,
      "SamplesPerPixel": 1,
      "ScanOptions": "FS",
      "ScanningSequence": "EP",
      "SequenceName": "epfid2d1_104",
      "SequenceVariant": [
        "SK",
        "SS"
],
      "SeriesDescription": "func_task-mariostars_run-01",
      "SeriesNumber": 10,
      "SeriesTime": "153730.335000",
      "SliceLocation": -35.358637405504,
      "SliceThickness": 2.0,
      "SmallestImagePixelValue": 0,
      "SoftwareVersions": "syngo MR E11",
      "SpacingBetweenSlices": 1.9999999495218,
      "SpecificCharacterSet": "ISO_IR 100",
      "StudyID": "1",
      "StudyTime": "144304.127000",
      "TransmitCoilName": "Body",
      "VariableFlipAngleFlag": "N",
      "WindowCenterWidthExplanation": "Algo1",
      "dBdt": 0.0},
    "slices": {}
  },
  "time": {
    "samples": {
      "AcquisitionNumber": [1, 2, 3, 4, 5, 6, 7, 8, 9, 10, 11, 12, 13, 14, 15, 16, 17, 18, 19, 20, 21, 22, 23, 24, 25, 26, 27, 28, 29, 30, 31, 32, 33, 34, 35, 36, 37, 38, 39, 40, 41, 42, 43, 44, 45, 46, 47, 48, 49, 50, 51, 52, 53, 54, 55, 56, 57, 58, 59, 60, 61, 62, 63, 64, 65, 66, 67, 68, 69, 70, 71, 72, 73, 74, 75, 76, 77, 78, 79, 80, 81, 82, 83, 84, 85, 86, 87, 88, 89, 90, 91, 92, 93, 94, 95, 96, 97, 98, 99, 100, 101, 102, 103, 104, 105, 106, 107, 108, 109, 110, 111, 112, 113, 114, 115, 116, 117, 118, 119, 120, 121, 122, 123, 124, 125, 126, 127, 128, 129, 130, 131, 132, 133, 134, 135, 136, 137, 138, 139, 140, 141, 142, 143, 144, 145, 146, 147, 148, 149, 150, 151, 152, 153, 154, 155, 156, 157, 158, 159, 160, 161, 162, 163, 164, 165, 166, 167, 168, 169, 170, 171, 172, 173, 174, 175, 176, 177, 178, 179, 180, 181, 182, 183, 184, 185, 186, 187, 188, 189, 190, 191, 192, 193, 194, 195, 196, 197, 198, 199, 200, 201, 202, 203, 204, 205, 206, 207, 208, 209, 210, 211, 212, 213, 214, 215, 216, 217, 218, 219, 220, 221, 222, 223, 224, 225, 226, 227, 228, 229, 230, 231, 232, 233, 234, 235, 236, 237, 238, 239, 240, 241, 242, 243, 244, 245, 246, 247, 248, 249, 250, 251, 252, 253, 254, 255, 256, 257, 258, 259, 260, 261, 262, 263, 264, 265, 266, 267, 268, 269, 270, 271, 272, 273, 274, 275, 276, 277, 278, 279, 280, 281, 282, 283, 284, 285, 286, 287, 288, 289, 290, 291, 292, 293, 294, 295, 296, 297, 298, 299, 300, 301, 302, 303, 304, 305, 306, 307, 308, 309, 310, 311, 312, 313, 314, 315, 316, 317, 318, 319, 320, 321, 322, 323, 324, 325, 326, 327, 328, 329, 330, 331, 332, 333, 334, 335, 336, 337, 338, 339, 340, 341, 342, 343, 344, 345, 346, 347, 348, 349, 350, 351, 352, 353, 354, 355, 356, 357, 358, 359, 360, 361, 362, 363, 364, 365, 366, 367, 368, 369, 370, 371, 372, 373, 374, 375, 376, 377, 378, 379, 380, 381, 382, 383, 384, 385, 386, 387, 388, 389, 390, 391, 392, 393, 394, 395, 396, 397, 398, 399, 400, 401, 402, 403, 404, 405, 406, 407, 408, 409, 410, 411, 412, 413, 414, 415, 416, 417, 418, 419, 420, 421, 422, 423, 424, 425, 426, 427, 428, 429, 430, 431, 432, 433, 434, 435, 436, 437, 438, 439, 440, 441, 442, 443, 444, 445, 446, 447, 448, 449, 450, 451, 452, 453, 454, 455, 456, 457, 458, 459, 460, 461, 462, 463, 464, 465, 466, 467, 468, 469, 470, 471, 472, 473, 474, 475, 476, 477, 478, 479, 480, 481],
      "AcquisitionTime": ["153603.482500", "153604.972500", "153606.462500", "153607.952500", "153609.442500", "153610.932500", "153612.422500", "153613.912500", "153615.402500", "153616.892500", "153618.382500", "153619.872500", "153621.362500", "153622.852500", "153624.342500", "153625.832500", "153627.322500", "153628.812500", "153630.302500", "153631.792500", "153633.282500", "153634.772500", "153636.262500", "153637.752500", "153639.242500", "153640.732500", "153642.222500", "153643.712500", "153645.202500", "153646.692500", "153648.182500", "153649.672500", "153651.162500", "153652.652500", "153654.142500", "153655.632500", "153657.122500", "153658.612500", "153700.102500", "153701.592500", "153703.082500", "153704.572500", "153706.062500", "153707.552500", "153709.042500", "153710.532500", "153712.022500", "153713.512500", "153715.002500", "153716.492500", "153717.982500", "153719.472500", "153720.962500", "153722.452500", "153723.942500", "153725.432500", "153726.922500", "153728.412500", "153729.902500", "153731.392500", "153732.882500", "153734.372500", "153735.862500", "153737.352500", "153738.842500", "153740.332500", "153741.822500", "153743.312500", "153744.802500", "153746.292500", "153747.782500", "153749.272500", "153750.762500", "153752.252500", "153753.742500", "153755.232500", "153756.722500", "153758.212500", "153759.702500", "153801.192500", "153802.682500", "153804.172500", "153805.662500", "153807.152500", "153808.642500", "153810.132500", "153811.622500", "153813.112500", "153814.602500", "153816.092500", "153817.582500", "153819.072500", "153820.562500", "153822.052500", "153823.542500", "153825.032500", "153826.522500", "153828.012500", "153829.502500", "153830.992500", "153832.482500", "153833.972500", "153835.462500", "153836.952500", "153838.442500", "153839.932500", "153841.422500", "153842.912500", "153844.402500", "153845.892500", "153847.382500", "153848.872500", "153850.362500", "153851.852500", "153853.342500", "153854.832500", "153856.322500", "153857.812500", "153859.302500", "153900.792500", "153902.282500", "153903.772500", "153905.262500", "153906.752500", "153908.242500", "153909.732500", "153911.222500", "153912.712500", "153914.202500", "153915.692500", "153917.182500", "153918.672500", "153920.162500", "153921.652500", "153923.142500", "153924.632500", "153926.122500", "153927.612500", "153929.102500", "153930.592500", "153932.082500", "153933.572500", "153935.062500", "153936.552500", "153938.042500", "153939.532500", "153941.022500", "153942.512500", "153944.002500", "153945.492500", "153946.982500", "153948.472500", "153949.962500", "153951.452500", "153952.942500", "153954.432500", "153955.922500", "153957.412500", "153958.902500", "154000.392500", "154001.882500", "154003.372500", "154004.862500", "154006.352500", "154007.842500", "154009.332500", "154010.822500", "154012.312500", "154013.802500", "154015.292500", "154016.782500", "154018.272500", "154019.762500", "154021.252500", "154022.742500", "154024.232500", "154025.722500", "154027.212500", "154028.702500", "154030.192500", "154031.682500", "154033.172500", "154034.662500", "154036.152500", "154037.642500", "154039.132500", "154040.622500", "154042.112500", "154043.602500", "154045.092500", "154046.582500", "154048.072500", "154049.562500", "154051.052500", "154052.542500", "154054.032500", "154055.522500", "154057.012500", "154058.502500", "154059.992500", "154101.482500", "154102.972500", "154104.462500", "154105.952500", "154107.442500", "154108.932500", "154110.422500", "154111.912500", "154113.402500", "154114.892500", "154116.382500", "154117.872500", "154119.362500", "154120.852500", "154122.342500", "154123.832500", "154125.322500", "154126.812500", "154128.302500", "154129.792500", "154131.282500", "154132.772500", "154134.262500", "154135.752500", "154137.242500", "154138.732500", "154140.222500", "154141.712500", "154143.202500", "154144.692500", "154146.182500", "154147.672500", "154149.162500", "154150.652500", "154152.142500", "154153.632500", "154155.122500", "154156.612500", "154158.102500", "154159.592500", "154201.082500", "154202.572500", "154204.062500", "154205.552500", "154207.042500", "154208.532500", "154210.022500", "154211.512500", "154213.002500", "154214.492500", "154215.982500", "154217.472500", "154218.962500", "154220.452500", "154221.942500", "154223.432500", "154224.922500", "154226.412500", "154227.902500", "154229.392500", "154230.882500", "154232.372500", "154233.862500", "154235.352500", "154236.842500", "154238.332500", "154239.822500", "154241.312500", "154242.802500", "154244.292500", "154245.782500", "154247.272500", "154248.762500", "154250.252500", "154251.742500", "154253.232500", "154254.722500", "154256.212500", "154257.702500", "154259.192500", "154300.682500", "154302.172500", "154303.662500", "154305.152500", "154306.642500", "154308.132500", "154309.622500", "154311.112500", "154312.602500", "154314.092500", "154315.582500", "154317.072500", "154318.562500", "154320.052500", "154321.542500", "154323.032500", "154324.522500", "154326.012500", "154327.502500", "154328.992500", "154330.482500", "154331.972500", "154333.462500", "154334.952500", "154336.442500", "154337.932500", "154339.422500", "154340.912500", "154342.402500", "154343.892500", "154345.382500", "154346.872500", "154348.362500", "154349.852500", "154351.342500", "154352.832500", "154354.322500", "154355.812500", "154357.302500", "154358.792500", "154400.282500", "154401.772500", "154403.262500", "154404.752500", "154406.242500", "154407.732500", "154409.222500", "154410.712500", "154412.202500", "154413.692500", "154415.182500", "154416.672500", "154418.162500", "154419.652500", "154421.142500", "154422.632500", "154424.122500", "154425.612500", "154427.102500", "154428.592500", "154430.082500", "154431.572500", "154433.062500", "154434.552500", "154436.042500", "154437.532500", "154439.022500", "154440.512500", "154442.002500", "154443.492500", "154444.982500", "154446.472500", "154447.962500", "154449.452500", "154450.942500", "154452.432500", "154453.922500", "154455.412500", "154456.902500", "154458.392500", "154459.882500", "154501.372500", "154502.862500", "154504.352500", "154505.842500", "154507.332500", "154508.822500", "154510.312500", "154511.802500", "154513.292500", "154514.782500", "154516.272500", "154517.762500", "154519.252500", "154520.742500", "154522.232500", "154523.722500", "154525.212500", "154526.702500", "154528.192500", "154529.682500", "154531.172500", "154532.662500", "154534.152500", "154535.642500", "154537.132500", "154538.622500", "154540.112500", "154541.602500", "154543.092500", "154544.582500", "154546.072500", "154547.562500", "154549.052500", "154550.542500", "154552.032500", "154553.522500", "154555.012500", "154556.502500", "154557.992500", "154559.482500", "154600.972500", "154602.462500", "154603.952500", "154605.442500", "154606.932500", "154608.422500", "154609.912500", "154611.402500", "154612.892500", "154614.382500", "154615.872500", "154617.362500", "154618.852500", "154620.342500", "154621.832500", "154623.322500", "154624.812500", "154626.302500", "154627.792500", "154629.282500", "154630.772500", "154632.262500", "154633.752500", "154635.242500", "154636.732500", "154638.222500", "154639.712500", "154641.202500", "154642.692500", "154644.182500", "154645.672500", "154647.162500", "154648.652500", "154650.142500", "154651.632500", "154653.122500", "154654.612500", "154656.102500", "154657.592500", "154659.082500", "154700.572500", "154702.062500", "154703.552500", "154705.042500", "154706.532500", "154708.022500", "154709.512500", "154711.002500", "154712.492500", "154713.982500", "154715.472500", "154716.962500", "154718.452500", "154719.942500", "154721.432500", "154722.922500", "154724.412500", "154725.902500", "154727.392500", "154728.882500", "154730.372500", "154731.862500", "154733.352500", "154734.842500", "154736.332500", "154737.822500", "154739.312500", "154740.802500", "154742.292500", "154743.782500", "154745.272500", "154746.762500", "154748.252500", "154749.742500", "154751.232500", "154752.722500", "154754.212500", "154755.702500", "154757.192500", "154758.682500"],
      "ContentTime": ["153730.338000", "153730.342000", "153730.345000", "153730.349000", "153730.352000", "153730.355000", "153730.359000", "153730.362000", "153730.374000", "153730.377000", "153730.380000", "153730.384000", "153730.387000", "153730.391000", "153730.394000", "153730.397000", "153730.401000", "153730.404000", "153730.408000", "153730.411000", "153730.414000", "153730.418000", "153730.421000", "153730.425000", "153730.428000", "153730.431000", "153730.435000", "153730.438000", "153730.442000", "153730.445000", "153730.448000", "153730.452000", "153750.292000", "153750.296000", "153750.299000", "153750.303000", "153750.306000", "153750.310000", "153750.321000", "153750.325000", "153750.338000", "153750.342000", "153750.345000", "153750.348000", "153750.352000", "153750.355000", "153750.359000", "153750.362000", "153750.366000", "153750.369000", "153750.372000", "153750.376000", "153810.292000", "153810.296000", "153810.299000", "153810.303000", "153810.306000", "153810.310000", "153810.313000", "153810.316000", "153810.320000", "153810.323000", "153810.327000", "153810.330000", "153810.333000", "153810.337000", "153810.340000", "153810.344000", "153810.347000", "153810.350000", "153810.354000", "153810.357000", "153810.361000", "153830.291000", "153830.305000", "153830.308000", "153830.311000", "153830.315000", "153830.318000", "153830.322000", "153830.325000", "153830.328000", "153830.332000", "153830.335000", "153830.339000", "153830.342000", "153830.346000", "153830.349000", "153830.355000", "153830.358000", "153830.362000", "153830.365000", "153830.369000", "153910.293000", "153910.297000", "153910.300000", "153910.304000", "153910.307000", "153910.311000", "153910.314000", "153910.317000", "153910.321000", "153910.324000", "153910.328000", "153910.331000", "153910.335000", "153910.338000", "153910.341000", "153910.345000", "153910.348000", "153910.352000", "153910.355000", "153910.358000", "153910.362000", "153910.365000", "153910.369000", "153910.372000", "153910.376000", "153910.379000", "153910.383000", "153910.386000", "153910.390000", "153910.393000", "153910.397000", "153910.400000", "153950.293000", "153950.297000", "153950.300000", "153950.304000", "153950.323000", "153950.326000", "153950.330000", "153950.333000", "153950.337000", "153950.341000", "153950.344000", "153950.348000", "153950.351000", "153950.355000", "153950.358000", "153950.362000", "153950.365000", "153950.369000", "153950.372000", "153950.376000", "153950.379000", "153950.383000", "153950.386000", "153950.390000", "153950.400000", "153950.404000", "153950.408000", "154010.292000", "154010.296000", "154010.299000", "154010.303000", "154010.306000", "154010.310000", "154010.313000", "154010.317000", "154010.320000", "154010.323000", "154010.327000", "154010.330000", "154010.334000", "154050.291000", "154050.295000", "154050.299000", "154050.302000", "154050.306000", "154050.309000", "154050.313000", "154050.316000", "154050.320000", "154050.323000", "154050.327000", "154050.330000", "154050.333000", "154050.337000", "154050.340000", "154050.344000", "154050.347000", "154050.351000", "154050.354000", "154050.358000", "154050.361000", "154050.364000", "154050.368000", "154050.371000", "154050.375000", "154050.378000", "154050.382000", "154130.292000", "154130.296000", "154130.300000", "154130.303000", "154130.306000", "154130.310000", "154130.313000", "154130.317000", "154130.320000", "154130.324000", "154130.327000", "154130.331000", "154130.334000", "154130.338000", "154130.341000", "154130.345000", "154130.348000", "154130.352000", "154130.355000", "154130.359000", "154130.362000", "154130.366000", "154130.369000", "154130.373000", "154130.376000", "154130.380000", "154130.383000", "154210.292000", "154210.296000", "154210.299000", "154210.303000", "154210.306000", "154210.310000", "154210.314000", "154210.317000", "154210.333000", "154210.337000", "154210.346000", "154210.349000", "154210.352000", "154210.356000", "154210.359000", "154210.363000", "154210.366000", "154210.370000", "154210.373000", "154210.377000", "154210.380000", "154210.383000", "154210.387000", "154210.390000", "154210.394000", "154210.397000", "154210.401000", "154250.293000", "154250.296000", "154250.301000", "154250.304000", "154250.308000", "154250.311000", "154250.315000", "154250.318000", "154250.322000", "154250.330000", "154250.334000", "154250.337000", "154250.341000", "154250.344000", "154250.347000", "154250.351000", "154250.354000", "154250.358000", "154250.362000", "154250.365000", "154250.368000", "154250.372000", "154250.375000", "154250.379000", "154250.382000", "154250.385000", "154330.292000", "154330.296000", "154330.300000", "154330.303000", "154330.307000", "154330.310000", "154330.314000", "154330.317000", "154330.321000", "154330.324000", "154330.327000", "154330.331000", "154330.334000", "154330.338000", "154330.341000", "154330.345000", "154330.348000", "154330.352000", "154330.355000", "154330.359000", "154330.369000", "154330.372000", "154330.376000", "154330.379000", "154330.382000", "154330.386000", "154330.389000", "154410.292000", "154410.296000", "154410.300000", "154410.303000", "154410.307000", "154410.310000", "154410.313000", "154410.317000", "154410.320000", "154410.324000", "154410.328000", "154410.331000", "154410.334000", "154410.338000", "154410.341000", "154410.345000", "154410.348000", "154410.352000", "154410.355000", "154410.358000", "154410.362000", "154410.365000", "154410.369000", "154410.372000", "154410.376000", "154410.379000", "154410.382000", "154450.292000", "154450.296000", "154450.300000", "154450.303000", "154450.306000", "154450.310000", "154450.313000", "154450.317000", "154450.320000", "154450.323000", "154450.327000", "154450.330000", "154450.334000", "154450.337000", "154450.341000", "154450.344000", "154450.348000", "154450.351000", "154450.354000", "154450.358000", "154450.361000", "154450.365000", "154450.368000", "154450.372000", "154450.375000", "154450.379000", "154450.382000", "154530.292000", "154530.295000", "154530.299000", "154530.302000", "154530.306000", "154530.309000", "154530.312000", "154530.316000", "154530.319000", "154530.323000", "154530.326000", "154530.330000", "154530.333000", "154530.337000", "154530.340000", "154530.343000", "154530.347000", "154530.350000", "154530.354000", "154530.357000", "154530.361000", "154530.364000", "154530.367000", "154530.371000", "154530.374000", "154530.378000", "154530.383000", "154610.292000", "154610.405000", "154610.408000", "154610.411000", "154610.415000", "154610.418000", "154610.422000", "154610.425000", "154610.428000", "154610.432000", "154610.435000", "154610.439000", "154610.442000", "154610.445000", "154610.449000", "154610.452000", "154610.456000", "154610.459000", "154610.463000", "154610.466000", "154610.469000", "154610.473000", "154610.476000", "154610.480000", "154610.483000", "154610.487000", "154610.490000", "154650.292000", "154650.296000", "154650.311000", "154650.316000", "154650.320000", "154650.323000", "154650.327000", "154650.332000", "154650.336000", "154650.340000", "154650.351000", "154650.355000", "154650.359000", "154650.362000", "154650.366000", "154650.369000", "154650.373000", "154650.376000", "154650.379000", "154650.383000", "154650.386000", "154650.390000", "154650.393000", "154650.397000", "154650.400000", "154650.413000", "154730.292000", "154730.296000", "154730.300000", "154730.303000", "154730.306000", "154730.310000", "154730.313000", "154730.317000", "154730.320000", "154730.324000", "154730.327000", "154730.330000", "154730.334000", "154730.337000", "154730.341000", "154730.344000", "154730.347000", "154730.351000", "154730.354000", "154730.358000", "154730.361000", "154730.364000", "154730.368000", "154730.371000", "154730.375000", "154730.378000", "154730.381000", "154801.759000", "154801.764000", "154801.768000", "154801.771000", "154801.774000", "154801.778000", "154801.781000", "154801.785000", "154801.788000", "154801.792000", "154801.795000", "154801.799000", "154801.802000", "154801.806000", "154801.809000", "154801.813000", "154801.816000", "154801.819000", "154801.823000", "154801.826000", "154801.830000"],
