{
  "AcquisitionMatrixPE": 104,
  "AcquisitionNumber": 1,
  "AcquisitionTime": "15:36:3.482500",
  "BandwidthPerPixelPhaseEncode": 17.17,
  "BaseResolution": 104,
  "BodyPartExamined": "BRAIN",
  "CoilCombinationMethod": "Sum of Squares",
  "ConsistencyInfo": "N4_VE11C_LATEST_20160120",
  "ConversionSoftware": "dcm2niix",
  "ConversionSoftwareVersion": "v1.0.20211006",
  "DerivedVendorReportedEchoSpacing": 0.000560011,
  "DeviceSerialNumber": "167006",
  "DwellTime": 2.1e-06,
  "EchoTime": 0.037,
  "EchoTime1": 0.037,
  "EchoTime2": 0.001,
  "EchoTrainLength": 104,
  "EffectiveEchoSpacing": 0.000560011,
  "FlipAngle": 52,
  "HeudiconvVersion": "0.11.3.post9+gc939bf8",
  "ImageComments": "Unaliased MB4/PE3/LB",
  "ImageOrientationPatientDICOM": [0.999182, -0.0400639, 0.00551223, 0.039782, 0.949207, -0.312128],
  "ImageOrientationText": "Tra>Cor(-18.2)>Sag(-0.4)",
  "ImageType": [
    "ORIGINAL",
    "PRIMARY",
    "P",
    "MB",
    "ND",
    "MOSAIC",
    "PHASE"
],
  "ImagingFrequency": 123.259,
  "InPlanePhaseEncodingDirectionDICOM": "COL",
  "InstitutionAddress": "Chemin Queen-Mary 4565,Montreal,District,CA,H3W 1W5",
  "InstitutionName": "IUGM",
  "InstitutionalDepartmentName": "Department",
  "MRAcquisitionType": "2D",
  "MagneticFieldStrength": 3,
  "Manufacturer": "Siemens",
  "ManufacturersModelName": "Prisma_fit",
  "MatrixCoilMode": "SENSE",
  "Modality": "MR",
  "MultibandAccelerationFactor": 4,
  "PartialFourier": 1,
  "PatientPosition": "HFS",
  "PercentPhaseFOV": 100,
  "PercentSampling": 100,
  "PhaseEncodingDirection": "j",
  "PhaseEncodingSteps": 104,
  "PhaseResolution": 1,
  "PixelBandwidth": 2290,
  "ProcedureStepDescription": "games^mariostars",
  "ProtocolName": "func_task-mariostars_run-01",
  "PulseSequenceDetails": "%CustomerSeq%\\cmrr_mbep2d_bold",
  "ReceiveCoilActiveElements": "HC1-7;NC1,2",
  "ReceiveCoilName": "HeadNeck_64",
  "ReconMatrixPE": 104,
  "RepetitionTime": 1.49,
  "SAR": 0.0313594,
  "ScanOptions": "FS",
  "ScanningSequence": "EP",
  "SequenceName": "epfid2d1_104",
  "SequenceVariant": "SK\\SS",
  "SeriesDescription": "func_task-mariostars_run-01",
  "SeriesNumber": 11,
  "ShimSetting": [632, -7268, -8815, 598, 14, -230, -42, -4],
  "SliceThickness": 2,
  "SliceTiming": [0, 0.7825, 0.0975, 0.8825, 0.195, 0.98, 0.295, 1.0775, 0.3925, 1.175, 0.49, 1.2725, 0.5875, 1.3725, 0.685, 0, 0.7825, 0.0975, 0.8825, 0.195, 0.98, 0.295, 1.0775, 0.3925, 1.175, 0.49, 1.2725, 0.5875, 1.3725, 0.685, 0, 0.7825, 0.0975, 0.8825, 0.195, 0.98, 0.295, 1.0775, 0.3925, 1.175, 0.49, 1.2725, 0.5875, 1.3725, 0.685, 0, 0.7825, 0.0975, 0.8825, 0.195, 0.98, 0.295, 1.0775, 0.3925, 1.175, 0.49, 1.2725, 0.5875, 1.3725, 0.685],
  "SoftwareVersions": "syngo MR E11",
  "SpacingBetweenSlices": 2,
  "StationName": "MRC35049",
  "TaskName": "mariostars",
  "TotalReadoutTime": 0.0576811,
  "TxRefAmp": 218.99,
  "WipMemBlock": "68d52e42-ff0f-4329-8d59-2492c7862d38||Sequence: R016 ve11c/master r/e634e98; Dec 19 2017 11:00:25 by eja",
  "dcmmeta_affine": [
    [-1.9983638525009155, 0.0795639231801033, -0.014545564539730549, 103.23312377929688],
    [0.08012772351503372, 1.898413896560669, -0.6241828799247742, -71.24401092529297],
    [0.011024469509720802, 0.6242550015449524, 1.9000483751296997, -59.83267593383789],
    [0.0, 0.0, 0.0, 1.0]
],
  "dcmmeta_reorient_transform": [
    [0.0, -1.0, 0.0, 103.0],
    [1.0, 0.0, 0.0, 0.0],
    [0.0, 0.0, 1.0, 0.0],
    [0.0, 0.0, 0.0, 1.0]
],
  "dcmmeta_shape": [104, 104, 60, 481],
  "dcmmeta_slice_dim": 2,
  "dcmmeta_version": 0.6,
  "global": {
    "const": {
      "AcquisitionMatrix": [104, 0, 0, 104],
      "AngioFlag": "N",
      "BitsAllocated": 16,
      "BitsStored": 16,
      "BodyPartExamined": "BRAIN",
      "Columns": 832,
      "EchoNumbers": 1,
      "EchoTime": 37.0,
      "EchoTrainLength": 104,
      "FlipAngle": 52.0,
      "HighBit": 15,
      "ImageOrientationPatient": [0.99918191646501, -0.0400638624801, 0.00551223479876, 0.03978196133999, 0.94920693817724, -0.3121275125139],
      "ImagePositionPatient": [-867.79391383635, -786.14877825309, 227.68151344551],
      "ImageType": [
        "ORIGINAL",
        "PRIMARY",
        "P",
        "MB",
        "ND",
        "MOSAIC"
],
      "ImagedNucleus": "1H",
      "ImagingFrequency": 123.258799,
      "InPlanePhaseEncodingDirection": "COL",
      "LargestImagePixelValue": 4095,
      "MRAcquisitionType": "2D",
      "MagneticFieldStrength": 3.0,
      "Manufacturer": "SIEMENS",
      "ManufacturerModelName": "Prisma_fit",
      "Modality": "MR",
      "NumberOfAverages": 1.0,
      "NumberOfPhaseEncodingSteps": 104,
      "PercentPhaseFieldOfView": 100.0,
      "PercentSampling": 100.0,
      "PerformedProcedureStepStartTime": "144304.218000",
      "PhotometricInterpretation": "MONOCHROME2",
      "PixelBandwidth": 2290.0,
      "PixelRepresentation": 0,
      "PixelSpacing": [2.0, 2.0],
      "ProtocolName": "func_task-mariostars_run-01",
      "RepetitionTime": 1490.0,
      "RescaleIntercept": -4096.0,
      "RescaleSlope": 2.0,
      "RescaleType": "US",
      "Rows": 832,
      "SAR": 0.03135935543416,
      "SamplesPerPixel": 1,
      "ScanOptions": "FS",
      "ScanningSequence": "EP",
      "SequenceName": "epfid2d1_104",
      "SequenceVariant": [
        "SK",
        "SS"
],
      "SeriesDescription": "func_task-mariostars_run-01",
      "SeriesNumber": 11,
      "SeriesTime": "153730.494000",
      "SliceLocation": -35.358637405504,
      "SliceThickness": 2.0,
      "SmallestImagePixelValue": 0,
      "SoftwareVersions": "syngo MR E11",
      "SpacingBetweenSlices": 1.9999999495218,
      "SpecificCharacterSet": "ISO_IR 100",
      "StudyID": "1",
      "StudyTime": "144304.127000",
      "TransmitCoilName": "Body",
      "VariableFlipAngleFlag": "N",
      "WindowCenterWidthExplanation": "Algo1",
      "dBdt": 0.0},
    "slices": {}
  },
  "time": {
    "samples": {
      "AcquisitionNumber": [1, 2, 3, 4, 5, 6, 7, 8, 9, 10, 11, 12, 13, 14, 15, 16, 17, 18, 19, 20, 21, 22, 23, 24, 25, 26, 27, 28, 29, 30, 31, 32, 33, 34, 35, 36, 37, 38, 39, 40, 41, 42, 43, 44, 45, 46, 47, 48, 49, 50, 51, 52, 53, 54, 55, 56, 57, 58, 59, 60, 61, 62, 63, 64, 65, 66, 67, 68, 69, 70, 71, 72, 73, 74, 75, 76, 77, 78, 79, 80, 81, 82, 83, 84, 85, 86, 87, 88, 89, 90, 91, 92, 93, 94, 95, 96, 97, 98, 99, 100, 101, 102, 103, 104, 105, 106, 107, 108, 109, 110, 111, 112, 113, 114, 115, 116, 117, 118, 119, 120, 121, 122, 123, 124, 125, 126, 127, 128, 129, 130, 131, 132, 133, 134, 135, 136, 137, 138, 139, 140, 141, 142, 143, 144, 145, 146, 147, 148, 149, 150, 151, 152, 153, 154, 155, 156, 157, 158, 159, 160, 161, 162, 163, 164, 165, 166, 167, 168, 169, 170, 171, 172, 173, 174, 175, 176, 177, 178, 179, 180, 181, 182, 183, 184, 185, 186, 187, 188, 189, 190, 191, 192, 193, 194, 195, 196, 197, 198, 199, 200, 201, 202, 203, 204, 205, 206, 207, 208, 209, 210, 211, 212, 213, 214, 215, 216, 217, 218, 219, 220, 221, 222, 223, 224, 225, 226, 227, 228, 229, 230, 231, 232, 233, 234, 235, 236, 237, 238, 239, 240, 241, 242, 243, 244, 245, 246, 247, 248, 249, 250, 251, 252, 253, 254, 255, 256, 257, 258, 259, 260, 261, 262, 263, 264, 265, 266, 267, 268, 269, 270, 271, 272, 273, 274, 275, 276, 277, 278, 279, 280, 281, 282, 283, 284, 285, 286, 287, 288, 289, 290, 291, 292, 293, 294, 295, 296, 297, 298, 299, 300, 301, 302, 303, 304, 305, 306, 307, 308, 309, 310, 311, 312, 313, 314, 315, 316, 317, 318, 319, 320, 321, 322, 323, 324, 325, 326, 327, 328, 329, 330, 331, 332, 333, 334, 335, 336, 337, 338, 339, 340, 341, 342, 343, 344, 345, 346, 347, 348, 349, 350, 351, 352, 353, 354, 355, 356, 357, 358, 359, 360, 361, 362, 363, 364, 365, 366, 367, 368, 369, 370, 371, 372, 373, 374, 375, 376, 377, 378, 379, 380, 381, 382, 383, 384, 385, 386, 387, 388, 389, 390, 391, 392, 393, 394, 395, 396, 397, 398, 399, 400, 401, 402, 403, 404, 405, 406, 407, 408, 409, 410, 411, 412, 413, 414, 415, 416, 417, 418, 419, 420, 421, 422, 423, 424, 425, 426, 427, 428, 429, 430, 431, 432, 433, 434, 435, 436, 437, 438, 439, 440, 441, 442, 443, 444, 445, 446, 447, 448, 449, 450, 451, 452, 453, 454, 455, 456, 457, 458, 459, 460, 461, 462, 463, 464, 465, 466, 467, 468, 469, 470, 471, 472, 473, 474, 475, 476, 477, 478, 479, 480, 481],
      "AcquisitionTime": ["153603.482500", "153604.972500", "153606.462500", "153607.952500", "153609.442500", "153610.932500", "153612.422500", "153613.912500", "153615.402500", "153616.892500", "153618.382500", "153619.872500", "153621.362500", "153622.852500", "153624.342500", "153625.832500", "153627.322500", "153628.812500", "153630.302500", "153631.792500", "153633.282500", "153634.772500", "153636.262500", "153637.752500", "153639.242500", "153640.732500", "153642.222500", "153643.712500", "153645.202500", "153646.692500", "153648.182500", "153649.672500", "153651.162500", "153652.652500", "153654.142500", "153655.632500", "153657.122500", "153658.612500", "153700.102500", "153701.592500", "153703.082500", "153704.572500", "153706.062500", "153707.552500", "153709.042500", "153710.532500", "153712.022500", "153713.512500", "153715.002500", "153716.492500", "153717.982500", "153719.472500", "153720.962500", "153722.452500", "153723.942500", "153725.432500", "153726.922500", "153728.412500", "153729.902500", "153731.392500", "153732.882500", "153734.372500", "153735.862500", "153737.352500", "153738.842500", "153740.332500", "153741.822500", "153743.312500", "153744.802500", "153746.292500", "153747.782500", "153749.272500", "153750.762500", "153752.252500", "153753.742500", "153755.232500", "153756.722500", "153758.212500", "153759.702500", "153801.192500", "153802.682500", "153804.172500", "153805.662500", "153807.152500", "153808.642500", "153810.132500", "153811.622500", "153813.112500", "153814.602500", "153816.092500", "153817.582500", "153819.072500", "153820.562500", "153822.052500", "153823.542500", "153825.032500", "153826.522500", "153828.012500", "153829.502500", "153830.992500", "153832.482500", "153833.972500", "153835.462500", "153836.952500", "153838.442500", "153839.932500", "153841.422500", "153842.912500", "153844.402500", "153845.892500", "153847.382500", "153848.872500", "153850.362500", "153851.852500", "153853.342500", "153854.832500", "153856.322500", "153857.812500", "153859.302500", "153900.792500", "153902.282500", "153903.772500", "153905.262500", "153906.752500", "153908.242500", "153909.732500", "153911.222500", "153912.712500", "153914.202500", "153915.692500", "153917.182500", "153918.672500", "153920.162500", "153921.652500", "153923.142500", "153924.632500", "153926.122500", "153927.612500", "153929.102500", "153930.592500", "153932.082500", "153933.572500", "153935.062500", "153936.552500", "153938.042500", "153939.532500", "153941.022500", "153942.512500", "153944.002500", "153945.492500", "153946.982500", "153948.472500", "153949.962500", "153951.452500", "153952.942500", "153954.432500", "153955.922500", "153957.412500", "153958.902500", "154000.392500", "154001.882500", "154003.372500", "154004.862500", "154006.352500", "154007.842500", "154009.332500", "154010.822500", "154012.312500", "154013.802500", "154015.292500", "154016.782500", "154018.272500", "154019.762500", "154021.252500", "154022.742500", "154024.232500", "154025.722500", "154027.212500", "154028.702500", "154030.192500", "154031.682500", "154033.172500", "154034.662500", "154036.152500", "154037.642500", "154039.132500", "154040.622500", "154042.112500", "154043.602500", "154045.092500", "154046.582500", "154048.072500", "154049.562500", "154051.052500", "154052.542500", "154054.032500", "154055.522500", "154057.012500", "154058.502500", "154059.992500", "154101.482500", "154102.972500", "154104.462500", "154105.952500", "154107.442500", "154108.932500", "154110.422500", "154111.912500", "154113.402500", "154114.892500", "154116.382500", "154117.872500", "154119.362500", "154120.852500", "154122.342500", "154123.832500", "154125.322500", "154126.812500", "154128.302500", "154129.792500", "154131.282500", "154132.772500", "154134.262500", "154135.752500", "154137.242500", "154138.732500", "154140.222500", "154141.712500", "154143.202500", "154144.692500", "154146.182500", "154147.672500", "154149.162500", "154150.652500", "154152.142500", "154153.632500", "154155.122500", "154156.612500", "154158.102500", "154159.592500", "154201.082500", "154202.572500", "154204.062500", "154205.552500", "154207.042500", "154208.532500", "154210.022500", "154211.512500", "154213.002500", "154214.492500", "154215.982500", "154217.472500", "154218.962500", "154220.452500", "154221.942500", "154223.432500", "154224.922500", "154226.412500", "154227.902500", "154229.392500", "154230.882500", "154232.372500", "154233.862500", "154235.352500", "154236.842500", "154238.332500", "154239.822500", "154241.312500", "154242.802500", "154244.292500", "154245.782500", "154247.272500", "154248.762500", "154250.252500", "154251.742500", "154253.232500", "154254.722500", "154256.212500", "154257.702500", "154259.192500", "154300.682500", "154302.172500", "154303.662500", "154305.152500", "154306.642500", "154308.132500", "154309.622500", "154311.112500", "154312.602500", "154314.092500", "154315.582500", "154317.072500", "154318.562500", "154320.052500", "154321.542500", "154323.032500", "154324.522500", "154326.012500", "154327.502500", "154328.992500", "154330.482500", "154331.972500", "154333.462500", "154334.952500", "154336.442500", "154337.932500", "154339.422500", "154340.912500", "154342.402500", "154343.892500", "154345.382500", "154346.872500", "154348.362500", "154349.852500", "154351.342500", "154352.832500", "154354.322500", "154355.812500", "154357.302500", "154358.792500", "154400.282500", "154401.772500", "154403.262500", "154404.752500", "154406.242500", "154407.732500", "154409.222500", "154410.712500", "154412.202500", "154413.692500", "154415.182500", "154416.672500", "154418.162500", "154419.652500", "154421.142500", "154422.632500", "154424.122500", "154425.612500", "154427.102500", "154428.592500", "154430.082500", "154431.572500", "154433.062500", "154434.552500", "154436.042500", "154437.532500", "154439.022500", "154440.512500", "154442.002500", "154443.492500", "154444.982500", "154446.472500", "154447.962500", "154449.452500", "154450.942500", "154452.432500", "154453.922500", "154455.412500", "154456.902500", "154458.392500", "154459.882500", "154501.372500", "154502.862500", "154504.352500", "154505.842500", "154507.332500", "154508.822500", "154510.312500", "154511.802500", "154513.292500", "154514.782500", "154516.272500", "154517.762500", "154519.252500", "154520.742500", "154522.232500", "154523.722500", "154525.212500", "154526.702500", "154528.192500", "154529.682500", "154531.172500", "154532.662500", "154534.152500", "154535.642500", "154537.132500", "154538.622500", "154540.112500", "154541.602500", "154543.092500", "154544.582500", "154546.072500", "154547.562500", "154549.052500", "154550.542500", "154552.032500", "154553.522500", "154555.012500", "154556.502500", "154557.992500", "154559.482500", "154600.972500", "154602.462500", "154603.952500", "154605.442500", "154606.932500", "154608.422500", "154609.912500", "154611.402500", "154612.892500", "154614.382500", "154615.872500", "154617.362500", "154618.852500", "154620.342500", "154621.832500", "154623.322500", "154624.812500", "154626.302500", "154627.792500", "154629.282500", "154630.772500", "154632.262500", "154633.752500", "154635.242500", "154636.732500", "154638.222500", "154639.712500", "154641.202500", "154642.692500", "154644.182500", "154645.672500", "154647.162500", "154648.652500", "154650.142500", "154651.632500", "154653.122500", "154654.612500", "154656.102500", "154657.592500", "154659.082500", "154700.572500", "154702.062500", "154703.552500", "154705.042500", "154706.532500", "154708.022500", "154709.512500", "154711.002500", "154712.492500", "154713.982500", "154715.472500", "154716.962500", "154718.452500", "154719.942500", "154721.432500", "154722.922500", "154724.412500", "154725.902500", "154727.392500", "154728.882500", "154730.372500", "154731.862500", "154733.352500", "154734.842500", "154736.332500", "154737.822500", "154739.312500", "154740.802500", "154742.292500", "154743.782500", "154745.272500", "154746.762500", "154748.252500", "154749.742500", "154751.232500", "154752.722500", "154754.212500", "154755.702500", "154757.192500", "154758.682500"],
      "ContentTime": ["153730.496000", "153730.506000", "153730.508000", "153730.511000", "153730.513000", "153730.516000", "153730.519000", "153730.521000", "153730.524000", "153730.526000", "153730.529000", "153730.531000", "153730.534000", "153730.536000", "153730.539000", "153730.542000", "153730.544000", "153730.547000", "153730.549000", "153730.552000", "153730.554000", "153730.557000", "153730.560000", "153730.562000", "153730.565000", "153730.567000", "153730.570000", "153730.572000", "153730.575000", "153730.577000", "153730.580000", "153730.583000", "153750.424000", "153750.427000", "153750.429000", "153750.432000", "153750.434000", "153750.437000", "153750.439000", "153750.442000", "153750.445000", "153750.447000", "153750.450000", "153750.452000", "153750.455000", "153750.457000", "153750.460000", "153750.462000", "153750.465000", "153750.467000", "153750.470000", "153750.473000", "153810.412000", "153810.414000", "153810.417000", "153810.420000", "153810.422000", "153810.425000", "153810.427000", "153810.430000", "153810.432000", "153810.435000", "153810.437000", "153810.440000", "153810.442000", "153810.445000", "153810.448000", "153810.451000", "153810.453000", "153810.456000", "153810.458000", "153810.461000", "153810.463000", "153830.405000", "153830.408000", "153830.410000", "153830.413000", "153830.415000", "153830.418000", "153830.421000", "153830.423000", "153830.426000", "153830.428000", "153830.431000", "153830.434000", "153830.436000", "153830.439000", "153830.442000", "153830.444000", "153830.447000", "153830.449000", "153830.452000", "153830.455000", "153910.449000", "153910.452000", "153910.454000", "153910.457000", "153910.459000", "153910.462000", "153910.465000", "153910.467000", "153910.470000", "153910.472000", "153910.475000", "153910.478000", "153910.480000", "153910.483000", "153910.485000", "153910.488000", "153910.498000", "153910.500000", "153910.503000", "153910.506000", "153910.508000", "153910.511000", "153910.513000", "153910.516000", "153910.519000", "153910.521000", "153910.524000", "153910.526000", "153910.529000", "153910.531000", "153910.534000", "153910.537000", "153950.451000", "153950.453000", "153950.456000", "153950.459000", "153950.462000", "153950.464000", "153950.467000", "153950.470000", "153950.472000", "153950.475000", "153950.477000", "153950.480000", "153950.482000", "153950.485000", "153950.488000", "153950.490000", "153950.493000", "153950.495000", "153950.498000", "153950.501000", "153950.503000", "153950.506000", "153950.508000", "153950.511000", "153950.513000", "153950.516000", "153950.518000", "154010.385000", "154010.388000", "154010.390000", "154010.393000", "154010.396000", "154010.398000", "154010.401000", "154010.403000", "154010.406000", "154010.409000", "154010.411000", "154010.414000", "154010.416000", "154050.428000", "154050.431000", "154050.433000", "154050.436000", "154050.439000", "154050.441000", "154050.444000", "154050.446000", "154050.449000", "154050.452000", "154050.454000", "154050.457000", "154050.459000", "154050.462000", "154050.464000", "154050.467000", "154050.470000", "154050.472000", "154050.475000", "154050.477000", "154050.480000", "154050.483000", "154050.485000", "154050.488000", "154050.490000", "154050.493000", "154050.495000", "154131.094000", "154131.102000", "154131.105000", "154131.108000", "154131.111000", "154131.114000", "154131.117000", "154131.119000", "154131.122000", "154131.125000", "154131.128000", "154131.131000", "154131.133000", "154131.136000", "154131.139000", "154131.142000", "154131.144000", "154131.147000", "154131.150000", "154131.153000", "154131.155000", "154131.158000", "154131.161000", "154131.164000", "154131.167000", "154131.170000", "154131.172000", "154210.449000", "154210.452000", "154210.455000", "154210.457000", "154210.460000", "154210.462000", "154210.465000", "154210.468000", "154210.470000", "154210.473000", "154210.475000", "154210.478000", "154210.481000", "154210.483000", "154210.486000", "154210.494000", "154210.496000", "154210.499000", "154210.501000", "154210.504000", "154210.507000", "154210.509000", "154210.512000", "154210.515000", "154210.517000", "154210.520000", "154210.523000", "154250.441000", "154250.454000", "154250.457000", "154250.459000", "154250.462000", "154250.465000", "154250.467000", "154250.470000", "154250.472000", "154250.475000", "154250.478000", "154250.480000", "154250.483000", "154250.485000", "154250.488000", "154250.490000", "154250.493000", "154250.496000", "154250.498000", "154250.501000", "154250.503000", "154250.506000", "154250.508000", "154250.511000", "154250.513000", "154250.516000", "154330.437000", "154330.440000", "154330.443000", "154330.445000", "154330.448000", "154330.450000", "154330.453000", "154330.456000", "154330.458000", "154330.461000", "154330.463000", "154330.466000", "154330.468000", "154330.471000", "154330.474000", "154330.476000", "154330.479000", "154330.481000", "154330.484000", "154330.486000", "154330.489000", "154330.492000", "154330.494000", "154330.497000", "154330.499000", "154330.502000", "154330.505000", "154410.451000", "154410.454000", "154410.457000", "154410.459000", "154410.462000", "154410.464000", "154410.467000", "154410.469000", "154410.472000", "154410.474000", "154410.477000", "154410.480000", "154410.482000", "154410.485000", "154410.499000", "154410.501000", "154410.504000", "154410.507000", "154410.509000", "154410.512000", "154410.515000", "154410.517000", "154410.520000", "154410.522000", "154410.525000", "154410.527000", "154410.530000", "154450.429000", "154450.432000", "154450.434000", "154450.437000", "154450.439000", "154450.442000", "154450.445000", "154450.447000", "154450.450000", "154450.452000", "154450.455000", "154450.457000", "154450.460000", "154450.463000", "154450.465000", "154450.468000", "154450.470000", "154450.473000", "154450.476000", "154450.478000", "154450.481000", "154450.483000", "154450.486000", "154450.489000", "154450.491000", "154450.494000", "154450.497000", "154530.426000", "154530.429000", "154530.431000", "154530.434000", "154530.437000", "154530.439000", "154530.442000", "154530.444000", "154530.447000", "154530.449000", "154530.452000", "154530.455000", "154530.457000", "154530.460000", "154530.462000", "154530.465000", "154530.468000", "154530.470000", "154530.473000", "154530.475000", "154530.478000", "154530.480000", "154530.483000", "154530.486000", "154530.488000", "154530.491000", "154530.493000", "154610.549000", "154610.552000", "154610.554000", "154610.557000", "154610.560000", "154610.562000", "154610.565000", "154610.568000", "154610.570000", "154610.573000", "154610.575000", "154610.578000", "154610.580000", "154610.583000", "154610.586000", "154610.588000", "154610.591000", "154610.593000", "154610.596000", "154610.599000", "154610.601000", "154610.604000", "154610.606000", "154610.609000", "154610.611000", "154610.614000", "154610.617000", "154650.455000", "154650.457000", "154650.471000", "154650.474000", "154650.477000", "154650.479000", "154650.482000", "154650.485000", "154650.487000", "154650.490000", "154650.492000", "154650.495000", "154650.498000", "154650.500000", "154650.503000", "154650.505000", "154650.508000", "154650.511000", "154650.513000", "154650.516000", "154650.519000", "154650.521000", "154650.524000", "154650.526000", "154650.529000", "154650.532000", "154730.429000", "154730.432000", "154730.434000", "154730.437000", "154730.439000", "154730.442000", "154730.445000", "154730.447000", "154730.450000", "154730.453000", "154730.455000", "154730.458000", "154730.460000", "154730.463000", "154730.466000", "154730.468000", "154730.471000", "154730.474000", "154730.476000", "154730.479000", "154730.482000", "154730.484000", "154730.487000", "154730.489000", "154730.492000", "154730.495000", "154730.497000", "154801.876000", "154801.879000", "154801.882000", "154801.884000", "154801.887000", "154801.890000", "154801.892000", "154801.895000", "154801.898000", "154801.900000", "154801.903000", "154801.908000", "154801.911000", "154801.913000", "154801.916000", "154801.919000", "154801.921000", "154801.924000", "154801.926000", "154801.929000", "154801.932000"],
