{
  "AcquisitionMatrixPE": 104,
  "AcquisitionNumber": 1,
  "AcquisitionTime": "13:31:19.245000",
  "BandwidthPerPixelPhaseEncode": 17.17,
  "BaseResolution": 104,
  "BodyPartExamined": "BRAIN",
  "CoilCombinationMethod": "Sum of Squares",
  "ConsistencyInfo": "N4_VE11C_LATEST_20160120",
  "ConversionSoftware": "dcm2niix",
  "ConversionSoftwareVersion": "v1.0.20211006",
  "DerivedVendorReportedEchoSpacing": 0.000560011,
  "DeviceSerialNumber": "167006",
  "DwellTime": 2.1e-06,
  "EchoTime": 0.037,
  "EchoTrainLength": 104,
  "EffectiveEchoSpacing": 0.000560011,
  "FlipAngle": 52,
  "HeudiconvVersion": "0.11.3.post9+gc939bf8",
  "ImageComments": "Unaliased MB4/PE3/LB",
  "ImageOrientationPatientDICOM": [0.999868, 0.0134595, 0.00905598, -0.010471, 0.961835, -0.27343],
  "ImageOrientationText": "Tra>Cor(-15.9)>Sag(0.7)",
  "ImageType": [
    "ORIGINAL",
    "PRIMARY",
    "M",
    "MB",
    "ND",
    "MOSAIC"
],
  "ImagingFrequency": 123.259,
  "InPlanePhaseEncodingDirectionDICOM": "COL",
  "InstitutionAddress": "Chemin Queen-Mary 4565,Montreal,District,CA,H3W 1W5",
  "InstitutionName": "IUGM",
  "InstitutionalDepartmentName": "Department",
  "MRAcquisitionType": "2D",
  "MagneticFieldStrength": 3,
  "Manufacturer": "Siemens",
  "ManufacturersModelName": "Prisma_fit",
  "MatrixCoilMode": "SENSE",
  "Modality": "MR",
  "MultibandAccelerationFactor": 4,
  "PartialFourier": 1,
  "PatientPosition": "HFS",
  "PercentPhaseFOV": 100,
  "PercentSampling": 100,
  "PhaseEncodingDirection": "j",
  "PhaseEncodingSteps": 104,
  "PhaseResolution": 1,
  "PixelBandwidth": 2290,
  "ProcedureStepDescription": "games^mariostars",
  "ProtocolName": "func_task-mariostars_run-01",
  "PulseSequenceDetails": "%CustomerSeq%\\cmrr_mbep2d_bold",
  "ReceiveCoilActiveElements": "HC1-7;NC1,2",
  "ReceiveCoilName": "HeadNeck_64",
  "ReconMatrixPE": 104,
  "RepetitionTime": 1.49,
  "SAR": 0.0418724,
  "ScanOptions": "FS",
  "ScanningSequence": "EP",
  "SequenceName": "epfid2d1_104",
  "SequenceVariant": "SK\\SS",
  "SeriesDescription": "func_task-mariostars_run-01",
  "SeriesNumber": 11,
  "ShimSetting": [629, -7208, -8746, 701, 46, 3, 27, 0],
  "SliceThickness": 2,
  "SliceTiming": [0, 0.785, 0.0975, 0.8825, 0.195, 0.98, 0.295, 1.0775, 0.3925, 1.175, 0.49, 1.275, 0.5875, 1.3725, 0.685, 0, 0.785, 0.0975, 0.8825, 0.195, 0.98, 0.295, 1.0775, 0.3925, 1.175, 0.49, 1.275, 0.5875, 1.3725, 0.685, 0, 0.785, 0.0975, 0.8825, 0.195, 0.98, 0.295, 1.0775, 0.3925, 1.175, 0.49, 1.275, 0.5875, 1.3725, 0.685, 0, 0.785, 0.0975, 0.8825, 0.195, 0.98, 0.295, 1.0775, 0.3925, 1.175, 0.49, 1.275, 0.5875, 1.3725, 0.685],
  "SoftwareVersions": "syngo MR E11",
  "SpacingBetweenSlices": 2,
  "StationName": "MRC35049",
  "TaskName": "mariostars",
  "TotalReadoutTime": 0.0576811,
  "TxRefAmp": 215.276,
  "WipMemBlock": "da5d6c28-7856-46d7-8dfb-edd364bf252d||Sequence: R017 ve11c/master r/75a17815+; Jun 28 2022 16:32:11 by eja",
  "dcmmeta_affine": [
    [-1.9997367858886719, -0.02094196528196335, 0.024781152606010437, 109.3250732421875],
    [-0.026918921619653702, 1.9236699342727661, -0.5465980768203735, -71.72674560546875],
    [0.018111959099769592, 0.5468597412109375, 1.9236985445022583, -54.1620979309082],
    [0.0, 0.0, 0.0, 1.0]
],
  "dcmmeta_reorient_transform": [
    [0.0, -1.0, 0.0, 103.0],
    [1.0, 0.0, 0.0, 0.0],
    [0.0, 0.0, 1.0, 0.0],
    [0.0, 0.0, 0.0, 1.0]
],
  "dcmmeta_shape": [104, 104, 60, 451],
  "dcmmeta_slice_dim": 2,
  "dcmmeta_version": 0.6,
  "global": {
    "const": {
      "AcquisitionMatrix": [104, 0, 0, 104],
      "AngioFlag": "N",
      "BitsAllocated": 16,
      "BitsStored": 16,
      "BodyPartExamined": "BRAIN",
      "Columns": 832,
      "EchoNumbers": 1,
      "EchoTime": 37.0,
      "EchoTrainLength": 104,
      "FlipAngle": 52.0,
      "HighBit": 15,
      "ImageOrientationPatient": [0.99986840741598, 0.01345946085318, 0.0090559795151, -0.0104709825471, 0.9618349496363, -0.2734298597129],
      "ImagePositionPatient": [-827.4493746349, -836.42558612393, 194.62863734009],
      "ImageType": [
        "ORIGINAL",
        "PRIMARY",
        "M",
        "MB",
        "ND",
        "MOSAIC"
],
      "ImagedNucleus": "1H",
      "ImagingFrequency": 123.258779,
      "InPlanePhaseEncodingDirection": "COL",
      "MRAcquisitionType": "2D",
      "MagneticFieldStrength": 3.0,
      "Manufacturer": "SIEMENS",
      "ManufacturerModelName": "Prisma_fit",
      "Modality": "MR",
      "NumberOfAverages": 1.0,
      "NumberOfPhaseEncodingSteps": 104,
      "PercentPhaseFieldOfView": 100.0,
      "PercentSampling": 100.0,
      "PerformedProcedureStepStartTime": "132743.102000",
      "PhotometricInterpretation": "MONOCHROME2",
      "PixelBandwidth": 2290.0,
      "PixelRepresentation": 0,
      "PixelSpacing": [2.0, 2.0],
      "ProtocolName": "func_task-mariostars_run-01",
      "RepetitionTime": 1490.0,
      "Rows": 832,
      "SAR": 0.04187244092482,
      "SamplesPerPixel": 1,
      "ScanOptions": "FS",
      "ScanningSequence": "EP",
      "SequenceName": "epfid2d1_104",
      "SequenceVariant": [
        "SK",
        "SS"
],
      "SeriesDescription": "func_task-mariostars_run-01",
      "SeriesNumber": 11,
      "SeriesTime": "133239.501000",
      "SliceLocation": -31.138325330842,
      "SliceThickness": 2.0,
      "SmallestImagePixelValue": 0,
      "SoftwareVersions": "syngo MR E11",
      "SpacingBetweenSlices": 1.9999999612191,
      "SpecificCharacterSet": "ISO_IR 100",
      "StudyID": "1",
      "StudyTime": "132743.031000",
      "TransmitCoilName": "Body",
      "VariableFlipAngleFlag": "N",
      "WindowCenterWidthExplanation": "Algo1",
      "dBdt": 0.0},
    "slices": {}
  },
  "time": {
    "samples": {
      "AcquisitionNumber": [1, 2, 3, 4, 5, 6, 7, 8, 9, 10, 11, 12, 13, 14, 15, 16, 17, 18, 19, 20, 21, 22, 23, 24, 25, 26, 27, 28, 29, 30, 31, 32, 33, 34, 35, 36, 37, 38, 39, 40, 41, 42, 43, 44, 45, 46, 47, 48, 49, 50, 51, 52, 53, 54, 55, 56, 57, 58, 59, 60, 61, 62, 63, 64, 65, 66, 67, 68, 69, 70, 71, 72, 73, 74, 75, 76, 77, 78, 79, 80, 81, 82, 83, 84, 85, 86, 87, 88, 89, 90, 91, 92, 93, 94, 95, 96, 97, 98, 99, 100, 101, 102, 103, 104, 105, 106, 107, 108, 109, 110, 111, 112, 113, 114, 115, 116, 117, 118, 119, 120, 121, 122, 123, 124, 125, 126, 127, 128, 129, 130, 131, 132, 133, 134, 135, 136, 137, 138, 139, 140, 141, 142, 143, 144, 145, 146, 147, 148, 149, 150, 151, 152, 153, 154, 155, 156, 157, 158, 159, 160, 161, 162, 163, 164, 165, 166, 167, 168, 169, 170, 171, 172, 173, 174, 175, 176, 177, 178, 179, 180, 181, 182, 183, 184, 185, 186, 187, 188, 189, 190, 191, 192, 193, 194, 195, 196, 197, 198, 199, 200, 201, 202, 203, 204, 205, 206, 207, 208, 209, 210, 211, 212, 213, 214, 215, 216, 217, 218, 219, 220, 221, 222, 223, 224, 225, 226, 227, 228, 229, 230, 231, 232, 233, 234, 235, 236, 237, 238, 239, 240, 241, 242, 243, 244, 245, 246, 247, 248, 249, 250, 251, 252, 253, 254, 255, 256, 257, 258, 259, 260, 261, 262, 263, 264, 265, 266, 267, 268, 269, 270, 271, 272, 273, 274, 275, 276, 277, 278, 279, 280, 281, 282, 283, 284, 285, 286, 287, 288, 289, 290, 291, 292, 293, 294, 295, 296, 297, 298, 299, 300, 301, 302, 303, 304, 305, 306, 307, 308, 309, 310, 311, 312, 313, 314, 315, 316, 317, 318, 319, 320, 321, 322, 323, 324, 325, 326, 327, 328, 329, 330, 331, 332, 333, 334, 335, 336, 337, 338, 339, 340, 341, 342, 343, 344, 345, 346, 347, 348, 349, 350, 351, 352, 353, 354, 355, 356, 357, 358, 359, 360, 361, 362, 363, 364, 365, 366, 367, 368, 369, 370, 371, 372, 373, 374, 375, 376, 377, 378, 379, 380, 381, 382, 383, 384, 385, 386, 387, 388, 389, 390, 391, 392, 393, 394, 395, 396, 397, 398, 399, 400, 401, 402, 403, 404, 405, 406, 407, 408, 409, 410, 411, 412, 413, 414, 415, 416, 417, 418, 419, 420, 421, 422, 423, 424, 425, 426, 427, 428, 429, 430, 431, 432, 433, 434, 435, 436, 437, 438, 439, 440, 441, 442, 443, 444, 445, 446, 447, 448, 449, 450, 451],
      "AcquisitionTime": ["133119.245000", "133120.735000", "133122.225000", "133123.715000", "133125.205000", "133126.695000", "133128.185000", "133129.675000", "133131.165000", "133132.655000", "133134.145000", "133135.635000", "133137.125000", "133138.615000", "133140.105000", "133141.595000", "133143.085000", "133144.575000", "133146.065000", "133147.555000", "133149.045000", "133150.535000", "133152.025000", "133153.515000", "133155.005000", "133156.495000", "133157.985000", "133159.475000", "133200.965000", "133202.455000", "133203.945000", "133205.435000", "133206.925000", "133208.415000", "133209.905000", "133211.395000", "133212.885000", "133214.375000", "133215.865000", "133217.355000", "133218.845000", "133220.335000", "133221.825000", "133223.315000", "133224.805000", "133226.295000", "133227.785000", "133229.275000", "133230.765000", "133232.255000", "133233.745000", "133235.235000", "133236.725000", "133238.215000", "133239.705000", "133241.195000", "133242.685000", "133244.175000", "133245.665000", "133247.155000", "133248.645000", "133250.135000", "133251.625000", "133253.115000", "133254.605000", "133256.095000", "133257.585000", "133259.075000", "133300.565000", "133302.055000", "133303.545000", "133305.035000", "133306.525000", "133308.015000", "133309.505000", "133310.995000", "133312.485000", "133313.975000", "133315.465000", "133316.955000", "133318.445000", "133319.935000", "133321.425000", "133322.915000", "133324.405000", "133325.895000", "133327.385000", "133328.875000", "133330.365000", "133331.855000", "133333.345000", "133334.835000", "133336.325000", "133337.815000", "133339.305000", "133340.795000", "133342.285000", "133343.775000", "133345.265000", "133346.755000", "133348.245000", "133349.735000", "133351.225000", "133352.715000", "133354.205000", "133355.695000", "133357.185000", "133358.675000", "133400.165000", "133401.655000", "133403.145000", "133404.635000", "133406.125000", "133407.615000", "133409.105000", "133410.595000", "133412.085000", "133413.575000", "133415.065000", "133416.555000", "133418.045000", "133419.535000", "133421.025000", "133422.515000", "133424.005000", "133425.495000", "133426.985000", "133428.475000", "133429.965000", "133431.455000", "133432.945000", "133434.435000", "133435.925000", "133437.415000", "133438.905000", "133440.395000", "133441.885000", "133443.375000", "133444.865000", "133446.355000", "133447.845000", "133449.335000", "133450.825000", "133452.315000", "133453.805000", "133455.295000", "133456.785000", "133458.275000", "133459.765000", "133501.255000", "133502.745000", "133504.235000", "133505.725000", "133507.215000", "133508.705000", "133510.195000", "133511.685000", "133513.175000", "133514.665000", "133516.155000", "133517.645000", "133519.135000", "133520.625000", "133522.115000", "133523.605000", "133525.095000", "133526.585000", "133528.075000", "133529.565000", "133531.055000", "133532.545000", "133534.035000", "133535.525000", "133537.015000", "133538.505000", "133539.995000", "133541.485000", "133542.975000", "133544.465000", "133545.955000", "133547.445000", "133548.935000", "133550.425000", "133551.915000", "133553.405000", "133554.895000", "133556.385000", "133557.875000", "133559.365000", "133600.855000", "133602.345000", "133603.835000", "133605.325000", "133606.815000", "133608.305000", "133609.795000", "133611.285000", "133612.775000", "133614.265000", "133615.755000", "133617.245000", "133618.735000", "133620.225000", "133621.715000", "133623.205000", "133624.695000", "133626.185000", "133627.675000", "133629.165000", "133630.655000", "133632.145000", "133633.635000", "133635.125000", "133636.615000", "133638.105000", "133639.595000", "133641.085000", "133642.575000", "133644.065000", "133645.555000", "133647.045000", "133648.535000", "133650.025000", "133651.515000", "133653.005000", "133654.495000", "133655.985000", "133657.475000", "133658.965000", "133700.455000", "133701.945000", "133703.435000", "133704.925000", "133706.415000", "133707.905000", "133709.395000", "133710.885000", "133712.375000", "133713.865000", "133715.355000", "133716.845000", "133718.335000", "133719.825000", "133721.315000", "133722.805000", "133724.295000", "133725.785000", "133727.275000", "133728.765000", "133730.255000", "133731.745000", "133733.235000", "133734.725000", "133736.215000", "133737.705000", "133739.195000", "133740.685000", "133742.175000", "133743.665000", "133745.155000", "133746.645000", "133748.135000", "133749.625000", "133751.115000", "133752.605000", "133754.095000", "133755.585000", "133757.075000", "133758.565000", "133800.055000", "133801.545000", "133803.035000", "133804.525000", "133806.015000", "133807.505000", "133808.995000", "133810.485000", "133811.975000", "133813.465000", "133814.955000", "133816.445000", "133817.935000", "133819.425000", "133820.915000", "133822.405000", "133823.895000", "133825.385000", "133826.875000", "133828.365000", "133829.855000", "133831.345000", "133832.835000", "133834.325000", "133835.815000", "133837.305000", "133838.795000", "133840.285000", "133841.775000", "133843.265000", "133844.755000", "133846.245000", "133847.735000", "133849.225000", "133850.715000", "133852.205000", "133853.695000", "133855.185000", "133856.675000", "133858.165000", "133859.655000", "133901.145000", "133902.635000", "133904.125000", "133905.615000", "133907.105000", "133908.595000", "133910.085000", "133911.575000", "133913.065000", "133914.555000", "133916.045000", "133917.535000", "133919.025000", "133920.515000", "133922.005000", "133923.495000", "133924.985000", "133926.475000", "133927.965000", "133929.455000", "133930.945000", "133932.435000", "133933.925000", "133935.415000", "133936.905000", "133938.395000", "133939.885000", "133941.375000", "133942.865000", "133944.355000", "133945.845000", "133947.335000", "133948.825000", "133950.315000", "133951.805000", "133953.295000", "133954.785000", "133956.275000", "133957.765000", "133959.255000", "134000.745000", "134002.235000", "134003.725000", "134005.215000", "134006.705000", "134008.195000", "134009.685000", "134011.175000", "134012.665000", "134014.155000", "134015.645000", "134017.135000", "134018.625000", "134020.115000", "134021.605000", "134023.095000", "134024.585000", "134026.075000", "134027.565000", "134029.055000", "134030.545000", "134032.035000", "134033.525000", "134035.015000", "134036.505000", "134037.995000", "134039.485000", "134040.975000", "134042.465000", "134043.955000", "134045.445000", "134046.935000", "134048.425000", "134049.915000", "134051.405000", "134052.895000", "134054.385000", "134055.875000", "134057.365000", "134058.855000", "134100.345000", "134101.835000", "134103.325000", "134104.815000", "134106.305000", "134107.795000", "134109.285000", "134110.775000", "134112.265000", "134113.755000", "134115.245000", "134116.735000", "134118.225000", "134119.715000", "134121.205000", "134122.695000", "134124.185000", "134125.675000", "134127.165000", "134128.655000", "134130.145000", "134131.635000", "134133.125000", "134134.615000", "134136.105000", "134137.595000", "134139.085000", "134140.575000", "134142.065000", "134143.555000", "134145.045000", "134146.535000", "134148.025000", "134149.515000", "134151.005000", "134152.495000", "134153.985000", "134155.475000", "134156.965000", "134158.455000", "134159.945000", "134201.435000", "134202.925000", "134204.415000", "134205.905000", "134207.395000", "134208.885000", "134210.375000", "134211.865000", "134213.355000", "134214.845000", "134216.335000", "134217.825000", "134219.315000", "134220.805000", "134222.295000", "134223.785000", "134225.275000", "134226.765000", "134228.255000", "134229.745000"],
      "ContentTime": ["133239.504000", "133239.508000", "133239.511000", "133239.515000", "133239.518000", "133239.521000", "133239.525000", "133239.533000", "133239.537000", "133239.540000", "133239.543000", "133239.547000", "133239.550000", "133239.553000", "133239.557000", "133239.560000", "133239.563000", "133239.566000", "133239.570000", "133239.573000", "133239.576000", "133239.580000", "133239.583000", "133239.586000", "133239.590000", "133239.593000", "133239.596000", "133239.600000", "133239.603000", "133239.606000", "133259.466000", "133259.482000", "133259.486000", "133259.489000", "133259.492000", "133259.496000", "133259.499000", "133259.502000", "133259.505000", "133259.509000", "133259.512000", "133259.515000", "133259.519000", "133259.522000", "133259.525000", "133259.529000", "133259.532000", "133259.535000", "133259.538000", "133259.542000", "133319.465000", "133319.469000", "133319.472000", "133319.475000", "133319.487000", "133319.490000", "133319.494000", "133319.497000", "133319.500000", "133319.504000", "133319.507000", "133319.510000", "133319.514000", "133319.517000", "133319.520000", "133319.524000", "133319.527000", "133319.530000", "133319.534000", "133319.537000", "133339.465000", "133339.469000", "133339.472000", "133339.476000", "133339.479000", "133339.482000", "133339.485000", "133339.495000", "133339.499000", "133339.502000", "133339.505000", "133339.509000", "133339.512000", "133339.515000", "133339.518000", "133339.522000", "133339.525000", "133339.528000", "133339.532000", "133339.535000", "133419.465000", "133419.469000", "133419.472000", "133419.476000", "133419.479000", "133419.482000", "133419.486000", "133419.489000", "133419.492000", "133419.496000", "133419.499000", "133419.502000", "133419.506000", "133419.509000", "133419.512000", "133419.526000", "133419.529000", "133419.533000", "133419.536000", "133419.539000", "133419.543000", "133419.546000", "133419.549000", "133419.553000", "133419.556000", "133419.559000", "133419.563000", "133419.566000", "133419.569000", "133419.573000", "133459.465000", "133459.469000", "133459.473000", "133459.476000", "133459.480000", "133459.483000", "133459.486000", "133459.490000", "133459.493000", "133459.496000", "133459.500000", "133459.503000", "133459.506000", "133459.509000", "133459.513000", "133459.516000", "133459.519000", "133459.534000", "133459.537000", "133459.541000", "133459.544000", "133459.547000", "133459.551000", "133459.554000", "133459.557000", "133459.561000", "133459.564000", "133539.465000", "133539.469000", "133539.472000", "133539.476000", "133539.479000", "133539.487000", "133539.491000", "133539.494000", "133539.497000", "133539.501000", "133539.504000", "133539.507000", "133539.511000", "133539.514000", "133539.517000", "133539.521000", "133539.524000", "133539.527000", "133539.531000", "133539.534000", "133539.537000", "133539.541000", "133539.544000", "133539.547000", "133539.551000", "133539.554000", "133539.557000", "133619.465000", "133619.469000", "133619.472000", "133619.476000", "133619.479000", "133619.482000", "133619.486000", "133619.489000", "133619.492000", "133619.496000", "133619.499000", "133619.502000", "133619.505000", "133619.509000", "133619.513000", "133619.516000", "133619.520000", "133619.523000", "133619.526000", "133619.529000", "133619.533000", "133619.536000", "133619.539000", "133619.543000", "133619.546000", "133619.549000", "133659.465000", "133659.469000", "133659.472000", "133659.476000", "133659.479000", "133659.482000", "133659.486000", "133659.489000", "133659.492000", "133659.496000", "133659.499000", "133659.502000", "133659.506000", "133659.509000", "133659.513000", "133659.516000", "133659.520000", "133659.523000", "133659.527000", "133659.530000", "133659.533000", "133659.537000", "133659.540000", "133659.544000", "133659.547000", "133659.550000", "133659.553000", "133739.466000", "133739.470000", "133739.473000", "133739.477000", "133739.480000", "133739.492000", "133739.496000", "133739.499000", "133739.502000", "133739.506000", "133739.509000", "133739.512000", "133739.515000", "133739.519000", "133739.522000", "133739.525000", "133739.529000", "133739.532000", "133739.536000", "133739.539000", "133739.542000", "133739.546000", "133739.549000", "133739.552000", "133739.556000", "133739.559000", "133739.562000", "133819.466000", "133819.469000", "133819.473000", "133819.476000", "133819.479000", "133819.482000", "133819.486000", "133819.489000", "133819.493000", "133819.496000", "133819.499000", "133819.502000", "133819.506000", "133819.509000", "133819.512000", "133819.516000", "133819.519000", "133819.522000", "133819.526000", "133819.529000", "133819.532000", "133819.536000", "133819.539000", "133819.542000", "133819.546000", "133819.549000", "133819.552000", "133859.465000", "133859.469000", "133859.472000", "133859.476000", "133859.479000", "133859.482000", "133859.486000", "133859.489000", "133859.492000", "133859.495000", "133859.499000", "133859.502000", "133859.506000", "133859.509000", "133859.512000", "133859.515000", "133859.519000", "133859.522000", "133859.525000", "133859.529000", "133859.532000", "133859.535000", "133859.539000", "133859.542000", "133859.545000", "133859.549000", "133859.552000", "133939.465000", "133939.469000", "133939.481000", "133939.484000", "133939.488000", "133939.491000", "133939.494000", "133939.498000", "133939.501000", "133939.504000", "133939.507000", "133939.511000", "133939.514000", "133939.517000", "133939.521000", "133939.524000", "133939.527000", "133939.531000", "133939.550000", "133939.553000", "133939.557000", "133939.560000", "133939.563000", "133939.567000", "133939.570000", "133939.573000", "133939.577000", "134019.465000", "134019.469000", "134019.473000", "134019.476000", "134019.479000", "134019.483000", "134019.486000", "134019.489000", "134019.493000", "134019.496000", "134019.500000", "134019.503000", "134019.506000", "134019.510000", "134019.513000", "134019.518000", "134019.522000", "134019.526000", "134019.529000", "134019.533000", "134019.537000", "134019.540000", "134019.543000", "134019.547000", "134019.550000", "134019.553000", "134059.465000", "134059.469000", "134059.472000", "134059.476000", "134059.479000", "134059.482000", "134059.486000", "134059.489000", "134059.492000", "134059.496000", "134059.499000", "134059.503000", "134059.506000", "134059.510000", "134059.514000", "134059.517000", "134059.521000", "134059.524000", "134059.527000", "134059.531000", "134059.534000", "134059.537000", "134059.541000", "134059.544000", "134059.547000", "134059.551000", "134059.554000", "134139.465000", "134139.469000", "134139.472000", "134139.476000", "134139.479000", "134139.482000", "134139.486000", "134139.489000", "134139.492000", "134139.496000", "134139.499000", "134139.502000", "134139.505000", "134139.509000", "134139.512000", "134139.515000", "134139.519000", "134139.522000", "134139.525000", "134139.529000", "134139.532000", "134139.535000", "134139.539000", "134139.542000", "134139.545000", "134139.549000", "134139.552000", "134219.466000", "134219.470000", "134219.474000", "134219.485000", "134219.488000", "134219.492000", "134219.495000", "134219.498000", "134219.502000", "134219.505000", "134219.509000", "134219.512000", "134219.515000", "134219.519000", "134219.522000", "134219.525000", "134219.529000", "134219.532000", "134219.535000", "134219.539000", "134219.542000", "134219.545000", "134219.549000", "134219.552000", "134219.555000", "134219.559000", "134219.562000", "134232.367000", "134232.370000", "134232.374000", "134232.377000", "134232.381000", "134232.385000", "134232.388000", "134232.392000", "134232.395000"],
