{
  "AcquisitionMatrixPE": 104,
  "AcquisitionNumber": 1,
  "AcquisitionTime": "13:43:47.555000",
  "BandwidthPerPixelPhaseEncode": 17.17,
  "BaseResolution": 104,
  "BodyPartExamined": "BRAIN",
  "CoilCombinationMethod": "Sum of Squares",
  "ConsistencyInfo": "N4_VE11C_LATEST_20160120",
  "ConversionSoftware": "dcm2niix",
  "ConversionSoftwareVersion": "v1.0.20211006",
  "DerivedVendorReportedEchoSpacing": 0.000560011,
  "DeviceSerialNumber": "167006",
  "DwellTime": 2.1e-06,
  "EchoTime": 0.037,
  "EchoTime1": 0.037,
  "EchoTime2": 0.001,
  "EchoTrainLength": 104,
  "EffectiveEchoSpacing": 0.000560011,
  "FlipAngle": 52,
  "HeudiconvVersion": "0.11.3.post9+gc939bf8",
  "ImageComments": "Unaliased MB4/PE3/LB",
  "ImageOrientationPatientDICOM": [0.999868, 0.0134595, 0.00905598, -0.010471, 0.961835, -0.27343],
  "ImageOrientationText": "Tra>Cor(-15.9)>Sag(0.7)",
  "ImageType": [
    "ORIGINAL",
    "PRIMARY",
    "P",
    "MB",
    "ND",
    "MOSAIC",
    "PHASE"
],
  "ImagingFrequency": 123.259,
  "InPlanePhaseEncodingDirectionDICOM": "COL",
  "InstitutionAddress": "Chemin Queen-Mary 4565,Montreal,District,CA,H3W 1W5",
  "InstitutionName": "IUGM",
  "InstitutionalDepartmentName": "Department",
  "MRAcquisitionType": "2D",
  "MagneticFieldStrength": 3,
  "Manufacturer": "Siemens",
  "ManufacturersModelName": "Prisma_fit",
  "MatrixCoilMode": "SENSE",
  "Modality": "MR",
  "MultibandAccelerationFactor": 4,
  "PartialFourier": 1,
  "PatientPosition": "HFS",
  "PercentPhaseFOV": 100,
  "PercentSampling": 100,
  "PhaseEncodingDirection": "j",
  "PhaseEncodingSteps": 104,
  "PhaseResolution": 1,
  "PixelBandwidth": 2290,
  "ProcedureStepDescription": "games^mariostars",
  "ProtocolName": "func_task-mariostars_run-02",
  "PulseSequenceDetails": "%CustomerSeq%\\cmrr_mbep2d_bold",
  "ReceiveCoilActiveElements": "HC1-7;NC1,2",
  "ReceiveCoilName": "HeadNeck_64",
  "ReconMatrixPE": 104,
  "RepetitionTime": 1.49,
  "SAR": 0.0418724,
  "ScanOptions": "FS",
  "ScanningSequence": "EP",
  "SequenceName": "epfid2d1_104",
  "SequenceVariant": "SK\\SS",
  "SeriesDescription": "func_task-mariostars_run-02",
  "SeriesNumber": 15,
  "ShimSetting": [629, -7208, -8746, 701, 46, 3, 27, 0],
  "SliceThickness": 2,
  "SliceTiming": [0, 0.7825, 0.0975, 0.8825, 0.195, 0.98, 0.2925, 1.0775, 0.3925, 1.175, 0.49, 1.2725, 0.5875, 1.3725, 0.685, 0, 0.7825, 0.0975, 0.8825, 0.195, 0.98, 0.2925, 1.0775, 0.3925, 1.175, 0.49, 1.2725, 0.5875, 1.3725, 0.685, 0, 0.7825, 0.0975, 0.8825, 0.195, 0.98, 0.2925, 1.0775, 0.3925, 1.175, 0.49, 1.2725, 0.5875, 1.3725, 0.685, 0, 0.7825, 0.0975, 0.8825, 0.195, 0.98, 0.2925, 1.0775, 0.3925, 1.175, 0.49, 1.2725, 0.5875, 1.3725, 0.685],
  "SoftwareVersions": "syngo MR E11",
  "SpacingBetweenSlices": 2,
  "StationName": "MRC35049",
  "TaskName": "mariostars",
  "TotalReadoutTime": 0.0576811,
  "TxRefAmp": 215.276,
  "WipMemBlock": "5518230f-2d06-4bfa-b5bb-1be59568d7fb||Sequence: R017 ve11c/master r/75a17815+; Jun 28 2022 16:32:11 by eja",
  "dcmmeta_affine": [
    [-1.9997367858886719, -0.02094196528196335, 0.024781152606010437, 109.3250732421875],
    [-0.026918921619653702, 1.9236699342727661, -0.5465980768203735, -71.72674560546875],
    [0.018111959099769592, 0.5468597412109375, 1.9236985445022583, -54.1620979309082],
    [0.0, 0.0, 0.0, 1.0]
],
  "dcmmeta_reorient_transform": [
    [0.0, -1.0, 0.0, 103.0],
    [1.0, 0.0, 0.0, 0.0],
    [0.0, 0.0, 1.0, 0.0],
    [0.0, 0.0, 0.0, 1.0]
],
  "dcmmeta_shape": [104, 104, 60, 453],
  "dcmmeta_slice_dim": 2,
  "dcmmeta_version": 0.6,
  "global": {
    "const": {
      "AcquisitionMatrix": [104, 0, 0, 104],
      "AngioFlag": "N",
      "BitsAllocated": 16,
      "BitsStored": 16,
      "BodyPartExamined": "BRAIN",
      "Columns": 832,
      "EchoNumbers": 1,
      "EchoTime": 37.0,
      "EchoTrainLength": 104,
      "FlipAngle": 52.0,
      "HighBit": 15,
      "ImageOrientationPatient": [0.99986840741598, 0.01345946085318, 0.0090559795151, -0.0104709825471, 0.9618349496363, -0.2734298597129],
      "ImagePositionPatient": [-827.4493746349, -836.42558612393, 194.62863734009],
      "ImageType": [
        "ORIGINAL",
        "PRIMARY",
        "P",
        "MB",
        "ND",
        "MOSAIC"
],
      "ImagedNucleus": "1H",
      "ImagingFrequency": 123.258789,
      "InPlanePhaseEncodingDirection": "COL",
      "LargestImagePixelValue": 4095,
      "MRAcquisitionType": "2D",
      "MagneticFieldStrength": 3.0,
      "Manufacturer": "SIEMENS",
      "ManufacturerModelName": "Prisma_fit",
      "Modality": "MR",
      "NumberOfAverages": 1.0,
      "NumberOfPhaseEncodingSteps": 104,
      "PercentPhaseFieldOfView": 100.0,
      "PercentSampling": 100.0,
      "PerformedProcedureStepStartTime": "132743.102000",
      "PhotometricInterpretation": "MONOCHROME2",
      "PixelBandwidth": 2290.0,
      "PixelRepresentation": 0,
      "PixelSpacing": [2.0, 2.0],
      "ProtocolName": "func_task-mariostars_run-02",
      "RepetitionTime": 1490.0,
      "RescaleIntercept": -4096.0,
      "RescaleSlope": 2.0,
      "RescaleType": "US",
      "Rows": 832,
      "SAR": 0.04187244092482,
      "SamplesPerPixel": 1,
      "ScanOptions": "FS",
      "ScanningSequence": "EP",
      "SequenceName": "epfid2d1_104",
      "SequenceVariant": [
        "SK",
        "SS"
],
      "SeriesDescription": "func_task-mariostars_run-02",
      "SeriesNumber": 15,
      "SeriesTime": "134514.477000",
      "SliceLocation": -31.138325330842,
      "SliceThickness": 2.0,
      "SmallestImagePixelValue": 0,
      "SoftwareVersions": "syngo MR E11",
      "SpacingBetweenSlices": 1.9999999612191,
      "SpecificCharacterSet": "ISO_IR 100",
      "StudyID": "1",
      "StudyTime": "132743.031000",
      "TransmitCoilName": "Body",
      "VariableFlipAngleFlag": "N",
      "WindowCenterWidthExplanation": "Algo1",
      "dBdt": 0.0},
    "slices": {}
  },
  "time": {
    "samples": {
      "AcquisitionNumber": [1, 2, 3, 4, 5, 6, 7, 8, 9, 10, 11, 12, 13, 14, 15, 16, 17, 18, 19, 20, 21, 22, 23, 24, 25, 26, 27, 28, 29, 30, 31, 32, 33, 34, 35, 36, 37, 38, 39, 40, 41, 42, 43, 44, 45, 46, 47, 48, 49, 50, 51, 52, 53, 54, 55, 56, 57, 58, 59, 60, 61, 62, 63, 64, 65, 66, 67, 68, 69, 70, 71, 72, 73, 74, 75, 76, 77, 78, 79, 80, 81, 82, 83, 84, 85, 86, 87, 88, 89, 90, 91, 92, 93, 94, 95, 96, 97, 98, 99, 100, 101, 102, 103, 104, 105, 106, 107, 108, 109, 110, 111, 112, 113, 114, 115, 116, 117, 118, 119, 120, 121, 122, 123, 124, 125, 126, 127, 128, 129, 130, 131, 132, 133, 134, 135, 136, 137, 138, 139, 140, 141, 142, 143, 144, 145, 146, 147, 148, 149, 150, 151, 152, 153, 154, 155, 156, 157, 158, 159, 160, 161, 162, 163, 164, 165, 166, 167, 168, 169, 170, 171, 172, 173, 174, 175, 176, 177, 178, 179, 180, 181, 182, 183, 184, 185, 186, 187, 188, 189, 190, 191, 192, 193, 194, 195, 196, 197, 198, 199, 200, 201, 202, 203, 204, 205, 206, 207, 208, 209, 210, 211, 212, 213, 214, 215, 216, 217, 218, 219, 220, 221, 222, 223, 224, 225, 226, 227, 228, 229, 230, 231, 232, 233, 234, 235, 236, 237, 238, 239, 240, 241, 242, 243, 244, 245, 246, 247, 248, 249, 250, 251, 252, 253, 254, 255, 256, 257, 258, 259, 260, 261, 262, 263, 264, 265, 266, 267, 268, 269, 270, 271, 272, 273, 274, 275, 276, 277, 278, 279, 280, 281, 282, 283, 284, 285, 286, 287, 288, 289, 290, 291, 292, 293, 294, 295, 296, 297, 298, 299, 300, 301, 302, 303, 304, 305, 306, 307, 308, 309, 310, 311, 312, 313, 314, 315, 316, 317, 318, 319, 320, 321, 322, 323, 324, 325, 326, 327, 328, 329, 330, 331, 332, 333, 334, 335, 336, 337, 338, 339, 340, 341, 342, 343, 344, 345, 346, 347, 348, 349, 350, 351, 352, 353, 354, 355, 356, 357, 358, 359, 360, 361, 362, 363, 364, 365, 366, 367, 368, 369, 370, 371, 372, 373, 374, 375, 376, 377, 378, 379, 380, 381, 382, 383, 384, 385, 386, 387, 388, 389, 390, 391, 392, 393, 394, 395, 396, 397, 398, 399, 400, 401, 402, 403, 404, 405, 406, 407, 408, 409, 410, 411, 412, 413, 414, 415, 416, 417, 418, 419, 420, 421, 422, 423, 424, 425, 426, 427, 428, 429, 430, 431, 432, 433, 434, 435, 436, 437, 438, 439, 440, 441, 442, 443, 444, 445, 446, 447, 448, 449, 450, 451, 452, 453],
      "AcquisitionTime": ["134347.555000", "134349.045000", "134350.535000", "134352.025000", "134353.515000", "134355.005000", "134356.495000", "134357.985000", "134359.475000", "134400.965000", "134402.455000", "134403.945000", "134405.435000", "134406.925000", "134408.415000", "134409.905000", "134411.395000", "134412.885000", "134414.375000", "134415.865000", "134417.355000", "134418.845000", "134420.335000", "134421.825000", "134423.315000", "134424.805000", "134426.295000", "134427.785000", "134429.275000", "134430.765000", "134432.255000", "134433.745000", "134435.235000", "134436.725000", "134438.215000", "134439.705000", "134441.195000", "134442.685000", "134444.175000", "134445.665000", "134447.155000", "134448.645000", "134450.135000", "134451.625000", "134453.115000", "134454.605000", "134456.095000", "134457.585000", "134459.075000", "134500.565000", "134502.055000", "134503.545000", "134505.035000", "134506.525000", "134508.015000", "134509.505000", "134510.995000", "134512.485000", "134513.975000", "134515.465000", "134516.955000", "134518.445000", "134519.935000", "134521.425000", "134522.915000", "134524.405000", "134525.895000", "134527.385000", "134528.875000", "134530.365000", "134531.855000", "134533.345000", "134534.835000", "134536.325000", "134537.815000", "134539.305000", "134540.795000", "134542.285000", "134543.775000", "134545.265000", "134546.755000", "134548.245000", "134549.735000", "134551.225000", "134552.715000", "134554.205000", "134555.695000", "134557.185000", "134558.675000", "134600.165000", "134601.655000", "134603.145000", "134604.635000", "134606.125000", "134607.615000", "134609.105000", "134610.595000", "134612.085000", "134613.575000", "134615.065000", "134616.555000", "134618.045000", "134619.535000", "134621.025000", "134622.515000", "134624.005000", "134625.495000", "134626.985000", "134628.475000", "134629.965000", "134631.455000", "134632.945000", "134634.435000", "134635.925000", "134637.415000", "134638.905000", "134640.395000", "134641.885000", "134643.375000", "134644.865000", "134646.355000", "134647.845000", "134649.335000", "134650.825000", "134652.315000", "134653.805000", "134655.295000", "134656.785000", "134658.275000", "134659.765000", "134701.255000", "134702.745000", "134704.235000", "134705.725000", "134707.215000", "134708.705000", "134710.195000", "134711.685000", "134713.175000", "134714.665000", "134716.155000", "134717.645000", "134719.135000", "134720.625000", "134722.115000", "134723.605000", "134725.095000", "134726.585000", "134728.075000", "134729.565000", "134731.055000", "134732.545000", "134734.035000", "134735.525000", "134737.015000", "134738.505000", "134739.995000", "134741.485000", "134742.975000", "134744.465000", "134745.955000", "134747.445000", "134748.935000", "134750.425000", "134751.915000", "134753.405000", "134754.895000", "134756.385000", "134757.875000", "134759.365000", "134800.855000", "134802.345000", "134803.835000", "134805.325000", "134806.815000", "134808.305000", "134809.795000", "134811.285000", "134812.775000", "134814.265000", "134815.755000", "134817.245000", "134818.735000", "134820.225000", "134821.715000", "134823.205000", "134824.695000", "134826.185000", "134827.675000", "134829.165000", "134830.655000", "134832.145000", "134833.635000", "134835.125000", "134836.615000", "134838.105000", "134839.595000", "134841.085000", "134842.575000", "134844.065000", "134845.555000", "134847.045000", "134848.535000", "134850.025000", "134851.515000", "134853.005000", "134854.495000", "134855.985000", "134857.475000", "134858.965000", "134900.455000", "134901.945000", "134903.435000", "134904.925000", "134906.415000", "134907.905000", "134909.395000", "134910.885000", "134912.375000", "134913.865000", "134915.355000", "134916.845000", "134918.335000", "134919.825000", "134921.315000", "134922.805000", "134924.295000", "134925.785000", "134927.275000", "134928.765000", "134930.255000", "134931.745000", "134933.235000", "134934.725000", "134936.215000", "134937.705000", "134939.195000", "134940.685000", "134942.175000", "134943.665000", "134945.155000", "134946.645000", "134948.135000", "134949.625000", "134951.115000", "134952.605000", "134954.095000", "134955.585000", "134957.075000", "134958.565000", "135000.055000", "135001.545000", "135003.035000", "135004.525000", "135006.015000", "135007.505000", "135008.995000", "135010.485000", "135011.975000", "135013.465000", "135014.955000", "135016.445000", "135017.935000", "135019.425000", "135020.915000", "135022.405000", "135023.895000", "135025.385000", "135026.875000", "135028.365000", "135029.855000", "135031.345000", "135032.835000", "135034.325000", "135035.815000", "135037.305000", "135038.795000", "135040.285000", "135041.775000", "135043.265000", "135044.755000", "135046.245000", "135047.735000", "135049.225000", "135050.715000", "135052.205000", "135053.695000", "135055.185000", "135056.675000", "135058.165000", "135059.655000", "135101.145000", "135102.635000", "135104.125000", "135105.615000", "135107.105000", "135108.595000", "135110.085000", "135111.575000", "135113.065000", "135114.555000", "135116.045000", "135117.535000", "135119.025000", "135120.515000", "135122.005000", "135123.495000", "135124.985000", "135126.475000", "135127.965000", "135129.455000", "135130.945000", "135132.435000", "135133.925000", "135135.415000", "135136.905000", "135138.395000", "135139.885000", "135141.375000", "135142.865000", "135144.355000", "135145.845000", "135147.335000", "135148.825000", "135150.315000", "135151.805000", "135153.295000", "135154.785000", "135156.275000", "135157.765000", "135159.255000", "135200.745000", "135202.235000", "135203.725000", "135205.215000", "135206.705000", "135208.195000", "135209.685000", "135211.175000", "135212.665000", "135214.155000", "135215.645000", "135217.135000", "135218.625000", "135220.115000", "135221.605000", "135223.095000", "135224.585000", "135226.075000", "135227.565000", "135229.055000", "135230.545000", "135232.035000", "135233.525000", "135235.015000", "135236.505000", "135237.995000", "135239.485000", "135240.975000", "135242.465000", "135243.955000", "135245.445000", "135246.935000", "135248.425000", "135249.915000", "135251.405000", "135252.895000", "135254.385000", "135255.875000", "135257.365000", "135258.855000", "135300.345000", "135301.835000", "135303.325000", "135304.815000", "135306.305000", "135307.795000", "135309.285000", "135310.775000", "135312.265000", "135313.755000", "135315.245000", "135316.735000", "135318.225000", "135319.715000", "135321.205000", "135322.695000", "135324.185000", "135325.675000", "135327.165000", "135328.655000", "135330.145000", "135331.635000", "135333.125000", "135334.615000", "135336.105000", "135337.595000", "135339.085000", "135340.575000", "135342.065000", "135343.555000", "135345.045000", "135346.535000", "135348.025000", "135349.515000", "135351.005000", "135352.495000", "135353.985000", "135355.475000", "135356.965000", "135358.455000", "135359.945000", "135401.435000", "135402.925000", "135404.415000", "135405.905000", "135407.395000", "135408.885000", "135410.375000", "135411.865000", "135413.355000", "135414.845000", "135416.335000", "135417.825000", "135419.315000", "135420.805000", "135422.295000", "135423.785000", "135425.275000", "135426.765000", "135428.255000", "135429.745000", "135431.235000", "135432.725000", "135434.215000", "135435.705000", "135437.195000", "135438.685000", "135440.175000", "135441.665000", "135443.155000", "135444.645000", "135446.135000", "135447.625000", "135449.115000", "135450.605000", "135452.095000", "135453.585000", "135455.075000", "135456.565000", "135458.055000", "135459.545000", "135501.035000"],
      "ContentTime": ["134514.479000", "134514.482000", "134514.484000", "134514.487000", "134514.489000", "134514.492000", "134514.494000", "134514.497000", "134514.499000", "134514.501000", "134514.504000", "134514.506000", "134514.509000", "134514.511000", "134514.521000", "134514.523000", "134514.526000", "134514.528000", "134514.531000", "134514.533000", "134514.536000", "134514.538000", "134514.541000", "134514.543000", "134514.546000", "134514.548000", "134514.551000", "134514.553000", "134514.556000", "134514.558000", "134514.570000", "134514.573000", "134514.575000", "134514.579000", "134514.581000", "134514.584000", "134514.586000", "134514.589000", "134514.591000", "134534.362000", "134534.364000", "134534.367000", "134534.374000", "134534.377000", "134534.379000", "134534.382000", "134534.384000", "134534.387000", "134534.389000", "134534.392000", "134534.394000", "134534.397000", "134534.399000", "134534.402000", "134534.404000", "134534.407000", "134534.409000", "134534.412000", "134534.414000", "134554.355000", "134554.357000", "134554.360000", "134554.362000", "134554.365000", "134554.367000", "134554.370000", "134554.373000", "134554.376000", "134554.378000", "134554.381000", "134554.383000", "134554.386000", "134554.388000", "134554.391000", "134554.393000", "134554.396000", "134554.398000", "134554.401000", "134554.403000", "134634.432000", "134634.434000", "134634.437000", "134634.439000", "134634.442000", "134634.444000", "134634.447000", "134634.449000", "134634.452000", "134634.454000", "134634.457000", "134634.459000", "134634.462000", "134634.464000", "134634.467000", "134634.470000", "134634.472000", "134634.475000", "134634.477000", "134634.480000", "134634.482000", "134634.485000", "134634.487000", "134634.490000", "134634.492000", "134634.495000", "134634.497000", "134634.500000", "134634.502000", "134634.505000", "134634.508000", "134634.510000", "134714.376000", "134714.379000", "134714.381000", "134714.384000", "134714.387000", "134714.389000", "134714.392000", "134714.394000", "134714.403000", "134714.405000", "134714.408000", "134714.410000", "134714.413000", "134714.415000", "134714.418000", "134714.420000", "134714.423000", "134714.425000", "134714.428000", "134714.430000", "134714.433000", "134714.435000", "134714.438000", "134714.440000", "134714.443000", "134714.445000", "134714.448000", "134754.826000", "134754.829000", "134754.831000", "134754.833000", "134754.836000", "134754.838000", "134754.841000", "134754.843000", "134754.846000", "134754.848000", "134754.851000", "134754.853000", "134754.856000", "134754.858000", "134754.861000", "134754.864000", "134754.866000", "134754.869000", "134754.911000", "134754.914000", "134754.917000", "134754.919000", "134754.922000", "134754.924000", "134754.927000", "134754.929000", "134754.932000", "134834.387000", "134834.390000", "134834.393000", "134834.395000", "134834.398000", "134834.400000", "134834.403000", "134834.405000", "134834.408000", "134834.411000", "134834.413000", "134834.416000", "134834.418000", "134834.421000", "134834.423000", "134834.426000", "134834.428000", "134834.431000", "134834.434000", "134834.436000", "134834.438000", "134834.441000", "134834.443000", "134834.446000", "134834.448000", "134834.451000", "134914.394000", "134914.397000", "134914.399000", "134914.402000", "134914.404000", "134914.407000", "134914.409000", "134914.412000", "134914.414000", "134914.417000", "134914.419000", "134914.422000", "134914.424000", "134914.427000", "134914.429000", "134914.432000", "134914.435000", "134914.437000", "134914.440000", "134914.442000", "134914.445000", "134914.447000", "134914.450000", "134914.452000", "134914.455000", "134914.457000", "134914.460000", "134954.403000", "134954.405000", "134954.408000", "134954.410000", "134954.413000", "134954.416000", "134954.418000", "134954.421000", "134954.423000", "134954.425000", "134954.428000", "134954.431000", "134954.433000", "134954.436000", "134954.438000", "134954.441000", "134954.443000", "134954.446000", "134954.448000", "134954.450000", "134954.453000", "134954.455000", "134954.458000", "134954.460000", "134954.463000", "134954.465000", "134954.468000", "135034.393000", "135034.396000", "135034.399000", "135034.401000", "135034.404000", "135034.406000", "135034.409000", "135034.411000", "135034.414000", "135034.416000", "135034.419000", "135034.421000", "135034.424000", "135034.426000", "135034.429000", "135034.431000", "135034.434000", "135034.436000", "135034.439000", "135034.441000", "135034.444000", "135034.446000", "135034.449000", "135034.451000", "135034.454000", "135034.456000", "135034.459000", "135114.390000", "135114.393000", "135114.395000", "135114.398000", "135114.400000", "135114.403000", "135114.405000", "135114.408000", "135114.410000", "135114.413000", "135114.415000", "135114.418000", "135114.420000", "135114.423000", "135114.425000", "135114.428000", "135114.430000", "135114.433000", "135114.435000", "135114.438000", "135114.440000", "135114.443000", "135114.445000", "135114.448000", "135114.450000", "135114.453000", "135114.455000", "135154.403000", "135154.406000", "135154.409000", "135154.411000", "135154.414000", "135154.416000", "135154.419000", "135154.421000", "135154.424000", "135154.426000", "135154.429000", "135154.431000", "135154.434000", "135154.436000", "135154.455000", "135154.457000", "135154.460000", "135154.462000", "135154.465000", "135154.467000", "135154.470000", "135154.472000", "135154.475000", "135154.477000", "135154.480000", "135154.482000", "135154.485000", "135234.405000", "135234.408000", "135234.411000", "135234.413000", "135234.416000", "135234.418000", "135234.421000", "135234.423000", "135234.426000", "135234.429000", "135234.431000", "135234.434000", "135234.436000", "135234.439000", "135234.441000", "135234.444000", "135234.446000", "135234.449000", "135234.451000", "135234.454000", "135234.456000", "135234.459000", "135234.469000", "135234.472000", "135234.474000", "135234.477000", "135254.329000", "135254.332000", "135254.335000", "135254.337000", "135254.340000", "135254.342000", "135254.345000", "135254.347000", "135254.350000", "135254.352000", "135254.355000", "135254.357000", "135254.360000", "135254.362000", "135334.378000", "135334.381000", "135334.383000", "135334.386000", "135334.388000", "135334.391000", "135334.393000", "135334.396000", "135334.398000", "135334.401000", "135334.403000", "135334.406000", "135334.408000", "135334.411000", "135334.413000", "135334.416000", "135334.419000", "135334.421000", "135334.424000", "135334.426000", "135334.429000", "135334.431000", "135334.434000", "135334.436000", "135334.439000", "135334.441000", "135334.444000", "135414.397000", "135414.400000", "135414.402000", "135414.405000", "135414.408000", "135414.410000", "135414.413000", "135414.415000", "135414.418000", "135414.420000", "135414.423000", "135414.425000", "135414.428000", "135414.430000", "135414.433000", "135414.435000", "135414.438000", "135414.440000", "135414.443000", "135414.445000", "135414.448000", "135414.450000", "135414.453000", "135414.455000", "135414.458000", "135414.460000", "135414.463000", "135454.406000", "135454.409000", "135454.412000", "135454.414000", "135454.417000", "135454.419000", "135454.422000", "135454.424000", "135454.427000", "135454.429000", "135454.432000", "135454.434000", "135454.437000", "135454.439000", "135454.442000", "135454.444000", "135454.447000", "135454.450000", "135454.452000", "135454.455000", "135454.457000", "135454.460000", "135454.462000", "135454.465000", "135454.467000", "135454.470000", "135504.643000", "135504.646000", "135504.649000", "135504.651000", "135504.654000", "135504.656000", "135504.659000"],
