{
  "AcquisitionMatrixPE": 104,
  "AcquisitionNumber": 1,
  "AcquisitionTime": "14:09:16.732500",
  "BandwidthPerPixelPhaseEncode": 17.17,
  "BaseResolution": 104,
  "BodyPartExamined": "BRAIN",
  "CoilCombinationMethod": "Sum of Squares",
  "ConsistencyInfo": "N4_VE11C_LATEST_20160120",
  "ConversionSoftware": "dcm2niix",
  "ConversionSoftwareVersion": "v1.0.20211006",
  "DerivedVendorReportedEchoSpacing": 0.000560011,
  "DeviceSerialNumber": "167006",
  "DwellTime": 2.1e-06,
  "EchoTime": 0.037,
  "EchoTime1": 0.037,
  "EchoTime2": 0.001,
  "EchoTrainLength": 104,
  "EffectiveEchoSpacing": 0.000560011,
  "FlipAngle": 52,
  "HeudiconvVersion": "0.11.3.post9+gc939bf8",
  "ImageComments": "Unaliased MB4/PE3/LB",
  "ImageOrientationPatientDICOM": [0.999868, 0.0134595, 0.00905598, -0.010471, 0.961835, -0.27343],
  "ImageOrientationText": "Tra>Cor(-15.9)>Sag(0.7)",
  "ImageType": [
    "ORIGINAL",
    "PRIMARY",
    "P",
    "MB",
    "ND",
    "MOSAIC",
    "PHASE"
],
  "ImagingFrequency": 123.259,
  "InPlanePhaseEncodingDirectionDICOM": "COL",
  "InstitutionAddress": "Chemin Queen-Mary 4565,Montreal,District,CA,H3W 1W5",
  "InstitutionName": "IUGM",
  "InstitutionalDepartmentName": "Department",
  "MRAcquisitionType": "2D",
  "MagneticFieldStrength": 3,
  "Manufacturer": "Siemens",
  "ManufacturersModelName": "Prisma_fit",
  "MatrixCoilMode": "SENSE",
  "Modality": "MR",
  "MultibandAccelerationFactor": 4,
  "PartialFourier": 1,
  "PatientPosition": "HFS",
  "PercentPhaseFOV": 100,
  "PercentSampling": 100,
  "PhaseEncodingDirection": "j",
  "PhaseEncodingSteps": 104,
  "PhaseResolution": 1,
  "PixelBandwidth": 2290,
  "ProcedureStepDescription": "games^mariostars",
  "ProtocolName": "func_task-mariostars_run-04",
  "PulseSequenceDetails": "%CustomerSeq%\\cmrr_mbep2d_bold",
  "ReceiveCoilActiveElements": "HC1-7;NC1,2",
  "ReceiveCoilName": "HeadNeck_64",
  "ReconMatrixPE": 104,
  "RepetitionTime": 1.49,
  "SAR": 0.0418724,
  "ScanOptions": "FS",
  "ScanningSequence": "EP",
  "SequenceName": "epfid2d1_104",
  "SequenceVariant": "SK\\SS",
  "SeriesDescription": "func_task-mariostars_run-04",
  "SeriesNumber": 21,
  "ShimSetting": [629, -7208, -8746, 701, 46, 3, 27, 0],
  "SliceThickness": 2,
  "SliceTiming": [0, 0.7825, 0.0975, 0.8825, 0.195, 0.98, 0.2925, 1.0775, 0.3925, 1.175, 0.49, 1.2725, 0.5875, 1.3725, 0.685, 0, 0.7825, 0.0975, 0.8825, 0.195, 0.98, 0.2925, 1.0775, 0.3925, 1.175, 0.49, 1.2725, 0.5875, 1.3725, 0.685, 0, 0.7825, 0.0975, 0.8825, 0.195, 0.98, 0.2925, 1.0775, 0.3925, 1.175, 0.49, 1.2725, 0.5875, 1.3725, 0.685, 0, 0.7825, 0.0975, 0.8825, 0.195, 0.98, 0.2925, 1.0775, 0.3925, 1.175, 0.49, 1.2725, 0.5875, 1.3725, 0.685],
  "SoftwareVersions": "syngo MR E11",
  "SpacingBetweenSlices": 2,
  "StationName": "MRC35049",
  "TaskName": "mariostars",
  "TotalReadoutTime": 0.0576811,
  "TxRefAmp": 215.276,
  "WipMemBlock": "84fd5b94-40f5-43ae-94a7-c19b9cab028f||Sequence: R017 ve11c/master r/75a17815+; Jun 28 2022 16:32:11 by eja",
  "dcmmeta_affine": [
    [-1.9997367858886719, -0.02094196528196335, 0.024781152606010437, 109.3250732421875],
    [-0.026918921619653702, 1.9236699342727661, -0.5465980768203735, -71.72674560546875],
    [0.018111959099769592, 0.5468597412109375, 1.9236985445022583, -54.1620979309082],
    [0.0, 0.0, 0.0, 1.0]
],
  "dcmmeta_reorient_transform": [
    [0.0, -1.0, 0.0, 103.0],
    [1.0, 0.0, 0.0, 0.0],
    [0.0, 0.0, 1.0, 0.0],
    [0.0, 0.0, 0.0, 1.0]
],
  "dcmmeta_shape": [104, 104, 60, 482],
  "dcmmeta_slice_dim": 2,
  "dcmmeta_version": 0.6,
  "global": {
    "const": {
      "AcquisitionMatrix": [104, 0, 0, 104],
      "AngioFlag": "N",
      "BitsAllocated": 16,
      "BitsStored": 16,
      "BodyPartExamined": "BRAIN",
      "Columns": 832,
      "EchoNumbers": 1,
      "EchoTime": 37.0,
      "EchoTrainLength": 104,
      "FlipAngle": 52.0,
      "HighBit": 15,
      "ImageOrientationPatient": [0.99986840741598, 0.01345946085318, 0.0090559795151, -0.0104709825471, 0.9618349496363, -0.2734298597129],
      "ImagePositionPatient": [-827.4493746349, -836.42558612393, 194.62863734009],
      "ImageType": [
        "ORIGINAL",
        "PRIMARY",
        "P",
        "MB",
        "ND",
        "MOSAIC"
],
      "ImagedNucleus": "1H",
      "ImagingFrequency": 123.2588,
      "InPlanePhaseEncodingDirection": "COL",
      "LargestImagePixelValue": 4095,
      "MRAcquisitionType": "2D",
      "MagneticFieldStrength": 3.0,
      "Manufacturer": "SIEMENS",
      "ManufacturerModelName": "Prisma_fit",
      "Modality": "MR",
      "NumberOfAverages": 1.0,
      "NumberOfPhaseEncodingSteps": 104,
      "PercentPhaseFieldOfView": 100.0,
      "PercentSampling": 100.0,
      "PerformedProcedureStepStartTime": "132743.102000",
      "PhotometricInterpretation": "MONOCHROME2",
      "PixelBandwidth": 2290.0,
      "PixelRepresentation": 0,
      "PixelSpacing": [2.0, 2.0],
      "ProtocolName": "func_task-mariostars_run-04",
      "RepetitionTime": 1490.0,
      "RescaleIntercept": -4096.0,
      "RescaleSlope": 2.0,
      "RescaleType": "US",
      "Rows": 832,
      "SAR": 0.04187244092482,
      "SamplesPerPixel": 1,
      "ScanOptions": "FS",
      "ScanningSequence": "EP",
      "SequenceName": "epfid2d1_104",
      "SequenceVariant": [
        "SK",
        "SS"
],
      "SeriesDescription": "func_task-mariostars_run-04",
      "SeriesNumber": 21,
      "SeriesTime": "141039.687000",
      "SliceLocation": -31.138325330842,
      "SliceThickness": 2.0,
      "SmallestImagePixelValue": 0,
      "SoftwareVersions": "syngo MR E11",
      "SpacingBetweenSlices": 1.9999999612191,
      "SpecificCharacterSet": "ISO_IR 100",
      "StudyID": "1",
      "StudyTime": "132743.031000",
      "TransmitCoilName": "Body",
      "VariableFlipAngleFlag": "N",
      "WindowCenterWidthExplanation": "Algo1",
      "dBdt": 0.0},
    "slices": {}
  },
  "time": {
    "samples": {
      "AcquisitionNumber": [1, 2, 3, 4, 5, 6, 7, 8, 9, 10, 11, 12, 13, 14, 15, 16, 17, 18, 19, 20, 21, 22, 23, 24, 25, 26, 27, 28, 29, 30, 31, 32, 33, 34, 35, 36, 37, 38, 39, 40, 41, 42, 43, 44, 45, 46, 47, 48, 49, 50, 51, 52, 53, 54, 55, 56, 57, 58, 59, 60, 61, 62, 63, 64, 65, 66, 67, 68, 69, 70, 71, 72, 73, 74, 75, 76, 77, 78, 79, 80, 81, 82, 83, 84, 85, 86, 87, 88, 89, 90, 91, 92, 93, 94, 95, 96, 97, 98, 99, 100, 101, 102, 103, 104, 105, 106, 107, 108, 109, 110, 111, 112, 113, 114, 115, 116, 117, 118, 119, 120, 121, 122, 123, 124, 125, 126, 127, 128, 129, 130, 131, 132, 133, 134, 135, 136, 137, 138, 139, 140, 141, 142, 143, 144, 145, 146, 147, 148, 149, 150, 151, 152, 153, 154, 155, 156, 157, 158, 159, 160, 161, 162, 163, 164, 165, 166, 167, 168, 169, 170, 171, 172, 173, 174, 175, 176, 177, 178, 179, 180, 181, 182, 183, 184, 185, 186, 187, 188, 189, 190, 191, 192, 193, 194, 195, 196, 197, 198, 199, 200, 201, 202, 203, 204, 205, 206, 207, 208, 209, 210, 211, 212, 213, 214, 215, 216, 217, 218, 219, 220, 221, 222, 223, 224, 225, 226, 227, 228, 229, 230, 231, 232, 233, 234, 235, 236, 237, 238, 239, 240, 241, 242, 243, 244, 245, 246, 247, 248, 249, 250, 251, 252, 253, 254, 255, 256, 257, 258, 259, 260, 261, 262, 263, 264, 265, 266, 267, 268, 269, 270, 271, 272, 273, 274, 275, 276, 277, 278, 279, 280, 281, 282, 283, 284, 285, 286, 287, 288, 289, 290, 291, 292, 293, 294, 295, 296, 297, 298, 299, 300, 301, 302, 303, 304, 305, 306, 307, 308, 309, 310, 311, 312, 313, 314, 315, 316, 317, 318, 319, 320, 321, 322, 323, 324, 325, 326, 327, 328, 329, 330, 331, 332, 333, 334, 335, 336, 337, 338, 339, 340, 341, 342, 343, 344, 345, 346, 347, 348, 349, 350, 351, 352, 353, 354, 355, 356, 357, 358, 359, 360, 361, 362, 363, 364, 365, 366, 367, 368, 369, 370, 371, 372, 373, 374, 375, 376, 377, 378, 379, 380, 381, 382, 383, 384, 385, 386, 387, 388, 389, 390, 391, 392, 393, 394, 395, 396, 397, 398, 399, 400, 401, 402, 403, 404, 405, 406, 407, 408, 409, 410, 411, 412, 413, 414, 415, 416, 417, 418, 419, 420, 421, 422, 423, 424, 425, 426, 427, 428, 429, 430, 431, 432, 433, 434, 435, 436, 437, 438, 439, 440, 441, 442, 443, 444, 445, 446, 447, 448, 449, 450, 451, 452, 453, 454, 455, 456, 457, 458, 459, 460, 461, 462, 463, 464, 465, 466, 467, 468, 469, 470, 471, 472, 473, 474, 475, 476, 477, 478, 479, 480, 481, 482],
      "AcquisitionTime": ["140916.732500", "140918.222500", "140919.712500", "140921.202500", "140922.692500", "140924.182500", "140925.672500", "140927.162500", "140928.652500", "140930.142500", "140931.632500", "140933.122500", "140934.612500", "140936.102500", "140937.592500", "140939.082500", "140940.572500", "140942.062500", "140943.552500", "140945.042500", "140946.532500", "140948.022500", "140949.512500", "140951.002500", "140952.492500", "140953.982500", "140955.472500", "140956.962500", "140958.452500", "140959.942500", "141001.432500", "141002.922500", "141004.412500", "141005.902500", "141007.392500", "141008.882500", "141010.372500", "141011.862500", "141013.352500", "141014.842500", "141016.332500", "141017.822500", "141019.312500", "141020.802500", "141022.292500", "141023.782500", "141025.272500", "141026.762500", "141028.252500", "141029.742500", "141031.232500", "141032.722500", "141034.212500", "141035.702500", "141037.192500", "141038.682500", "141040.172500", "141041.662500", "141043.152500", "141044.642500", "141046.132500", "141047.622500", "141049.112500", "141050.602500", "141052.092500", "141053.582500", "141055.072500", "141056.562500", "141058.052500", "141059.542500", "141101.032500", "141102.522500", "141104.012500", "141105.502500", "141106.992500", "141108.482500", "141109.972500", "141111.462500", "141112.952500", "141114.442500", "141115.932500", "141117.422500", "141118.912500", "141120.402500", "141121.892500", "141123.382500", "141124.872500", "141126.362500", "141127.852500", "141129.342500", "141130.832500", "141132.322500", "141133.812500", "141135.302500", "141136.792500", "141138.282500", "141139.772500", "141141.262500", "141142.752500", "141144.242500", "141145.732500", "141147.222500", "141148.712500", "141150.202500", "141151.692500", "141153.182500", "141154.672500", "141156.162500", "141157.652500", "141159.142500", "141200.632500", "141202.122500", "141203.612500", "141205.102500", "141206.592500", "141208.082500", "141209.572500", "141211.062500", "141212.552500", "141214.042500", "141215.532500", "141217.022500", "141218.512500", "141220.002500", "141221.492500", "141222.982500", "141224.472500", "141225.962500", "141227.452500", "141228.942500", "141230.432500", "141231.922500", "141233.412500", "141234.902500", "141236.392500", "141237.882500", "141239.372500", "141240.862500", "141242.352500", "141243.842500", "141245.332500", "141246.822500", "141248.312500", "141249.802500", "141251.292500", "141252.782500", "141254.272500", "141255.762500", "141257.252500", "141258.742500", "141300.232500", "141301.722500", "141303.212500", "141304.702500", "141306.192500", "141307.682500", "141309.172500", "141310.662500", "141312.152500", "141313.642500", "141315.132500", "141316.622500", "141318.112500", "141319.602500", "141321.092500", "141322.582500", "141324.072500", "141325.562500", "141327.052500", "141328.542500", "141330.032500", "141331.522500", "141333.012500", "141334.502500", "141335.992500", "141337.482500", "141338.972500", "141340.462500", "141341.952500", "141343.442500", "141344.932500", "141346.422500", "141347.912500", "141349.402500", "141350.892500", "141352.382500", "141353.872500", "141355.362500", "141356.852500", "141358.342500", "141359.832500", "141401.322500", "141402.812500", "141404.302500", "141405.792500", "141407.282500", "141408.772500", "141410.262500", "141411.752500", "141413.242500", "141414.732500", "141416.222500", "141417.712500", "141419.202500", "141420.692500", "141422.182500", "141423.672500", "141425.162500", "141426.652500", "141428.142500", "141429.632500", "141431.122500", "141432.612500", "141434.102500", "141435.592500", "141437.082500", "141438.572500", "141440.062500", "141441.552500", "141443.042500", "141444.532500", "141446.022500", "141447.512500", "141449.002500", "141450.492500", "141451.982500", "141453.472500", "141454.962500", "141456.452500", "141457.942500", "141459.432500", "141500.922500", "141502.412500", "141503.902500", "141505.392500", "141506.882500", "141508.372500", "141509.862500", "141511.352500", "141512.842500", "141514.332500", "141515.822500", "141517.312500", "141518.802500", "141520.292500", "141521.782500", "141523.272500", "141524.762500", "141526.252500", "141527.742500", "141529.232500", "141530.722500", "141532.212500", "141533.702500", "141535.192500", "141536.682500", "141538.172500", "141539.662500", "141541.152500", "141542.642500", "141544.132500", "141545.622500", "141547.112500", "141548.602500", "141550.092500", "141551.582500", "141553.072500", "141554.562500", "141556.052500", "141557.542500", "141559.032500", "141600.522500", "141602.012500", "141603.502500", "141604.992500", "141606.482500", "141607.972500", "141609.462500", "141610.952500", "141612.442500", "141613.932500", "141615.422500", "141616.912500", "141618.402500", "141619.892500", "141621.382500", "141622.872500", "141624.362500", "141625.852500", "141627.342500", "141628.832500", "141630.322500", "141631.812500", "141633.302500", "141634.792500", "141636.282500", "141637.772500", "141639.262500", "141640.752500", "141642.242500", "141643.732500", "141645.222500", "141646.712500", "141648.202500", "141649.692500", "141651.182500", "141652.672500", "141654.162500", "141655.652500", "141657.142500", "141658.632500", "141700.122500", "141701.612500", "141703.102500", "141704.592500", "141706.082500", "141707.572500", "141709.062500", "141710.552500", "141712.042500", "141713.532500", "141715.022500", "141716.512500", "141718.002500", "141719.492500", "141720.982500", "141722.472500", "141723.962500", "141725.452500", "141726.942500", "141728.432500", "141729.922500", "141731.412500", "141732.902500", "141734.392500", "141735.882500", "141737.372500", "141738.862500", "141740.352500", "141741.842500", "141743.332500", "141744.822500", "141746.312500", "141747.802500", "141749.292500", "141750.782500", "141752.272500", "141753.762500", "141755.252500", "141756.742500", "141758.232500", "141759.722500", "141801.212500", "141802.702500", "141804.192500", "141805.682500", "141807.172500", "141808.662500", "141810.152500", "141811.642500", "141813.132500", "141814.622500", "141816.112500", "141817.602500", "141819.092500", "141820.582500", "141822.072500", "141823.562500", "141825.052500", "141826.542500", "141828.032500", "141829.522500", "141831.012500", "141832.502500", "141833.992500", "141835.482500", "141836.972500", "141838.462500", "141839.952500", "141841.442500", "141842.932500", "141844.422500", "141845.912500", "141847.402500", "141848.892500", "141850.382500", "141851.872500", "141853.362500", "141854.852500", "141856.342500", "141857.832500", "141859.322500", "141900.812500", "141902.302500", "141903.792500", "141905.282500", "141906.772500", "141908.262500", "141909.752500", "141911.242500", "141912.732500", "141914.222500", "141915.712500", "141917.202500", "141918.692500", "141920.182500", "141921.672500", "141923.162500", "141924.652500", "141926.142500", "141927.632500", "141929.122500", "141930.612500", "141932.102500", "141933.592500", "141935.082500", "141936.572500", "141938.062500", "141939.552500", "141941.042500", "141942.532500", "141944.022500", "141945.512500", "141947.002500", "141948.492500", "141949.982500", "141951.472500", "141952.962500", "141954.452500", "141955.942500", "141957.432500", "141958.922500", "142000.412500", "142001.902500", "142003.392500", "142004.882500", "142006.372500", "142007.862500", "142009.352500", "142010.842500", "142012.332500", "142013.822500", "142015.312500", "142016.802500", "142018.292500", "142019.782500", "142021.272500", "142022.762500", "142024.252500", "142025.742500", "142027.232500", "142028.722500", "142030.212500", "142031.702500", "142033.192500", "142034.682500", "142036.172500", "142037.662500", "142039.152500", "142040.642500", "142042.132500", "142043.622500", "142045.112500", "142046.602500", "142048.092500", "142049.582500", "142051.072500", "142052.562500", "142054.052500", "142055.542500", "142057.032500", "142058.522500", "142100.012500", "142101.502500", "142102.992500", "142104.482500", "142105.972500", "142107.462500", "142108.952500", "142110.442500", "142111.932500", "142113.422500"],
      "ContentTime": ["141039.689000", "141039.692000", "141039.695000", "141039.697000", "141039.700000", "141039.702000", "141039.705000", "141039.707000", "141039.710000", "141039.712000", "141039.715000", "141039.717000", "141039.720000", "141039.722000", "141039.725000", "141039.727000", "141039.730000", "141039.733000", "141039.735000", "141039.738000", "141039.740000", "141039.743000", "141039.745000", "141039.748000", "141039.751000", "141039.753000", "141039.756000", "141039.758000", "141039.761000", "141039.763000", "141039.766000", "141039.768000", "141039.771000", "141059.607000", "141059.610000", "141059.612000", "141059.615000", "141059.617000", "141059.620000", "141059.622000", "141059.625000", "141059.627000", "141059.630000", "141059.632000", "141059.635000", "141059.637000", "141059.640000", "141059.642000", "141059.645000", "141059.647000", "141059.654000", "141059.656000", "141059.659000", "141059.661000", "141120.056000", "141120.059000", "141120.062000", "141120.064000", "141120.067000", "141120.069000", "141120.072000", "141120.075000", "141120.077000", "141120.080000", "141120.082000", "141120.085000", "141120.088000", "141120.090000", "141120.093000", "141120.095000", "141120.098000", "141120.100000", "141120.103000", "141120.105000", "141139.582000", "141139.585000", "141139.587000", "141139.590000", "141139.592000", "141139.595000", "141139.597000", "141139.600000", "141139.602000", "141139.605000", "141139.607000", "141139.610000", "141139.612000", "141139.615000", "141139.617000", "141139.620000", "141139.622000", "141139.625000", "141139.627000", "141139.630000", "141219.625000", "141219.628000", "141219.630000", "141219.633000", "141219.635000", "141219.638000", "141219.640000", "141219.643000", "141219.645000", "141219.648000", "141219.650000", "141219.653000", "141219.655000", "141219.658000", "141219.660000", "141219.663000", "141219.665000", "141219.668000", "141219.670000", "141219.673000", "141219.675000", "141219.678000", "141219.680000", "141219.683000", "141219.685000", "141219.688000", "141219.691000", "141219.693000", "141259.609000", "141259.612000", "141259.615000", "141259.617000", "141259.620000", "141259.622000", "141259.625000", "141259.627000", "141259.630000", "141259.632000", "141259.635000", "141259.637000", "141259.640000", "141259.642000", "141259.645000", "141259.647000", "141259.650000", "141259.652000", "141259.655000", "141259.657000", "141259.660000", "141259.662000", "141259.665000", "141259.668000", "141259.670000", "141259.673000", "141259.675000", "141339.594000", "141339.597000", "141339.600000", "141339.602000", "141339.605000", "141339.607000", "141339.610000", "141339.612000", "141339.615000", "141339.618000", "141339.620000", "141339.623000", "141339.625000", "141339.628000", "141339.630000", "141339.633000", "141339.635000", "141339.638000", "141339.640000", "141339.643000", "141339.646000", "141339.648000", "141339.651000", "141339.653000", "141339.656000", "141339.658000", "141339.661000", "141419.670000", "141419.673000", "141419.676000", "141419.678000", "141419.681000", "141419.683000", "141419.686000", "141419.688000", "141419.691000", "141419.693000", "141419.696000", "141419.698000", "141419.701000", "141419.703000", "141419.706000", "141419.708000", "141419.711000", "141419.713000", "141419.716000", "141419.719000", "141419.721000", "141419.724000", "141419.726000", "141419.729000", "141419.731000", "141419.734000", "141419.736000", "141459.605000", "141459.608000", "141459.610000", "141459.613000", "141459.615000", "141459.618000", "141459.621000", "141459.629000", "141459.632000", "141459.634000", "141459.637000", "141459.639000", "141459.642000", "141459.645000", "141459.647000", "141459.650000", "141459.652000", "141459.658000", "141459.661000", "141459.663000", "141459.666000", "141459.668000", "141459.671000", "141459.673000", "141459.676000", "141459.678000", "141539.629000", "141539.632000", "141539.635000", "141539.637000", "141539.640000", "141539.642000", "141539.645000", "141539.647000", "141539.650000", "141539.652000", "141539.655000", "141539.658000", "141539.660000", "141539.663000", "141539.665000", "141539.668000", "141539.671000", "141539.674000", "141539.677000", "141539.679000", "141539.682000", "141539.684000", "141539.687000", "141539.689000", "141539.692000", "141539.694000", "141539.697000", "141619.603000", "141619.606000", "141619.609000", "141619.611000", "141619.614000", "141619.616000", "141619.619000", "141619.621000", "141619.624000", "141619.626000", "141619.629000", "141619.631000", "141619.634000", "141619.637000", "141619.639000", "141619.642000", "141619.644000", "141619.647000", "141619.649000", "141619.652000", "141619.654000", "141619.657000", "141619.659000", "141619.662000", "141619.665000", "141619.667000", "141619.670000", "141659.611000", "141659.613000", "141659.616000", "141659.619000", "141659.621000", "141659.624000", "141659.626000", "141659.629000", "141659.631000", "141659.634000", "141659.636000", "141659.639000", "141659.641000", "141659.644000", "141659.646000", "141659.649000", "141659.651000", "141659.654000", "141659.656000", "141659.659000", "141659.661000", "141659.664000", "141659.666000", "141659.669000", "141659.672000", "141659.674000", "141659.677000", "141739.602000", "141739.604000", "141739.607000", "141739.616000", "141739.619000", "141739.621000", "141739.624000", "141739.626000", "141739.629000", "141739.631000", "141739.634000", "141739.636000", "141739.639000", "141739.641000", "141739.644000", "141739.647000", "141739.649000", "141739.652000", "141739.654000", "141739.657000", "141739.659000", "141739.662000", "141739.664000", "141739.667000", "141739.669000", "141739.672000", "141739.675000", "141819.621000", "141819.624000", "141819.626000", "141819.629000", "141819.631000", "141819.634000", "141819.637000", "141819.639000", "141819.641000", "141819.644000", "141819.646000", "141819.649000", "141819.651000", "141819.654000", "141819.657000", "141819.659000", "141819.662000", "141819.664000", "141819.667000", "141819.669000", "141819.671000", "141819.674000", "141819.677000", "141819.679000", "141819.682000", "141819.684000", "141819.687000", "141859.612000", "141859.615000", "141859.617000", "141859.620000", "141859.622000", "141859.625000", "141859.627000", "141859.630000", "141859.632000", "141859.635000", "141859.638000", "141859.640000", "141859.643000", "141859.645000", "141859.648000", "141859.650000", "141859.653000", "141859.656000", "141859.658000", "141859.661000", "141859.663000", "141859.666000", "141859.668000", "141859.671000", "141859.673000", "141859.676000", "141939.622000", "141939.624000", "141939.627000", "141939.629000", "141939.632000", "141939.634000", "141939.637000", "141939.639000", "141939.642000", "141939.645000", "141939.647000", "141939.650000", "141939.652000", "141939.655000", "141939.657000", "141939.660000", "141939.662000", "141939.665000", "141939.667000", "141939.670000", "141939.672000", "141939.675000", "141939.679000", "141939.681000", "141939.684000", "141939.686000", "141939.689000", "142019.612000", "142019.615000", "142019.618000", "142019.620000", "142019.623000", "142019.625000", "142019.628000", "142019.630000", "142019.633000", "142019.635000", "142019.638000", "142019.640000", "142019.643000", "142019.645000", "142019.648000", "142019.650000", "142019.653000", "142019.656000", "142019.658000", "142019.661000", "142019.663000", "142019.666000", "142019.668000", "142019.671000", "142019.673000", "142019.676000", "142019.678000", "142059.615000", "142059.618000", "142059.620000", "142059.623000", "142059.626000", "142059.628000", "142059.631000", "142059.633000", "142059.636000", "142059.638000", "142059.641000", "142059.643000", "142059.646000", "142059.648000", "142059.651000", "142059.653000", "142059.656000", "142059.658000", "142059.661000", "142059.663000", "142059.666000", "142059.668000", "142059.671000", "142059.673000", "142059.676000", "142059.679000", "142059.681000", "142116.329000", "142116.332000", "142116.334000", "142116.337000", "142116.340000", "142116.342000", "142116.345000", "142116.347000", "142116.350000", "142116.352000", "142116.355000"],
