{
  "AcquisitionMatrixPE": 104,
  "AcquisitionNumber": 1,
  "AcquisitionTime": "13:31:19.245000",
  "BandwidthPerPixelPhaseEncode": 17.17,
  "BaseResolution": 104,
  "BodyPartExamined": "BRAIN",
  "CoilCombinationMethod": "Sum of Squares",
  "ConsistencyInfo": "N4_VE11C_LATEST_20160120",
  "ConversionSoftware": "dcm2niix",
  "ConversionSoftwareVersion": "v1.0.20211006",
  "DerivedVendorReportedEchoSpacing": 0.000560011,
  "DeviceSerialNumber": "167006",
  "DwellTime": 2.1e-06,
  "EchoTime": 0.037,
  "EchoTime1": 0.037,
  "EchoTime2": 0.001,
  "EchoTrainLength": 104,
  "EffectiveEchoSpacing": 0.000560011,
  "FlipAngle": 52,
  "HeudiconvVersion": "0.11.3.post9+gc939bf8",
  "ImageComments": "Unaliased MB4/PE3/LB",
  "ImageOrientationPatientDICOM": [0.999868, 0.0134595, 0.00905598, -0.010471, 0.961835, -0.27343],
  "ImageOrientationText": "Tra>Cor(-15.9)>Sag(0.7)",
  "ImageType": [
    "ORIGINAL",
    "PRIMARY",
    "P",
    "MB",
    "ND",
    "MOSAIC",
    "PHASE"
],
  "ImagingFrequency": 123.259,
  "InPlanePhaseEncodingDirectionDICOM": "COL",
  "InstitutionAddress": "Chemin Queen-Mary 4565,Montreal,District,CA,H3W 1W5",
  "InstitutionName": "IUGM",
  "InstitutionalDepartmentName": "Department",
  "MRAcquisitionType": "2D",
  "MagneticFieldStrength": 3,
  "Manufacturer": "Siemens",
  "ManufacturersModelName": "Prisma_fit",
  "MatrixCoilMode": "SENSE",
  "Modality": "MR",
  "MultibandAccelerationFactor": 4,
  "PartialFourier": 1,
  "PatientPosition": "HFS",
  "PercentPhaseFOV": 100,
  "PercentSampling": 100,
  "PhaseEncodingDirection": "j",
  "PhaseEncodingSteps": 104,
  "PhaseResolution": 1,
  "PixelBandwidth": 2290,
  "ProcedureStepDescription": "games^mariostars",
  "ProtocolName": "func_task-mariostars_run-01",
  "PulseSequenceDetails": "%CustomerSeq%\\cmrr_mbep2d_bold",
  "ReceiveCoilActiveElements": "HC1-7;NC1,2",
  "ReceiveCoilName": "HeadNeck_64",
  "ReconMatrixPE": 104,
  "RepetitionTime": 1.49,
  "SAR": 0.0418724,
  "ScanOptions": "FS",
  "ScanningSequence": "EP",
  "SequenceName": "epfid2d1_104",
  "SequenceVariant": "SK\\SS",
  "SeriesDescription": "func_task-mariostars_run-01",
  "SeriesNumber": 12,
  "ShimSetting": [629, -7208, -8746, 701, 46, 3, 27, 0],
  "SliceThickness": 2,
  "SliceTiming": [0, 0.785, 0.0975, 0.8825, 0.195, 0.98, 0.295, 1.0775, 0.3925, 1.175, 0.49, 1.275, 0.5875, 1.3725, 0.685, 0, 0.785, 0.0975, 0.8825, 0.195, 0.98, 0.295, 1.0775, 0.3925, 1.175, 0.49, 1.275, 0.5875, 1.3725, 0.685, 0, 0.785, 0.0975, 0.8825, 0.195, 0.98, 0.295, 1.0775, 0.3925, 1.175, 0.49, 1.275, 0.5875, 1.3725, 0.685, 0, 0.785, 0.0975, 0.8825, 0.195, 0.98, 0.295, 1.0775, 0.3925, 1.175, 0.49, 1.275, 0.5875, 1.3725, 0.685],
  "SoftwareVersions": "syngo MR E11",
  "SpacingBetweenSlices": 2,
  "StationName": "MRC35049",
  "TaskName": "mariostars",
  "TotalReadoutTime": 0.0576811,
  "TxRefAmp": 215.276,
  "WipMemBlock": "da5d6c28-7856-46d7-8dfb-edd364bf252d||Sequence: R017 ve11c/master r/75a17815+; Jun 28 2022 16:32:11 by eja",
  "dcmmeta_affine": [
    [-1.9997367858886719, -0.02094196528196335, 0.024781152606010437, 109.3250732421875],
    [-0.026918921619653702, 1.9236699342727661, -0.5465980768203735, -71.72674560546875],
    [0.018111959099769592, 0.5468597412109375, 1.9236985445022583, -54.1620979309082],
    [0.0, 0.0, 0.0, 1.0]
],
  "dcmmeta_reorient_transform": [
    [0.0, -1.0, 0.0, 103.0],
    [1.0, 0.0, 0.0, 0.0],
    [0.0, 0.0, 1.0, 0.0],
    [0.0, 0.0, 0.0, 1.0]
],
  "dcmmeta_shape": [104, 104, 60, 451],
  "dcmmeta_slice_dim": 2,
  "dcmmeta_version": 0.6,
  "global": {
    "const": {
      "AcquisitionMatrix": [104, 0, 0, 104],
      "AngioFlag": "N",
      "BitsAllocated": 16,
      "BitsStored": 16,
      "BodyPartExamined": "BRAIN",
      "Columns": 832,
      "EchoNumbers": 1,
      "EchoTime": 37.0,
      "EchoTrainLength": 104,
      "FlipAngle": 52.0,
      "HighBit": 15,
      "ImageOrientationPatient": [0.99986840741598, 0.01345946085318, 0.0090559795151, -0.0104709825471, 0.9618349496363, -0.2734298597129],
      "ImagePositionPatient": [-827.4493746349, -836.42558612393, 194.62863734009],
      "ImageType": [
        "ORIGINAL",
        "PRIMARY",
        "P",
        "MB",
        "ND",
        "MOSAIC"
],
      "ImagedNucleus": "1H",
      "ImagingFrequency": 123.258779,
      "InPlanePhaseEncodingDirection": "COL",
      "LargestImagePixelValue": 4095,
      "MRAcquisitionType": "2D",
      "MagneticFieldStrength": 3.0,
      "Manufacturer": "SIEMENS",
      "ManufacturerModelName": "Prisma_fit",
      "Modality": "MR",
      "NumberOfAverages": 1.0,
      "NumberOfPhaseEncodingSteps": 104,
      "PercentPhaseFieldOfView": 100.0,
      "PercentSampling": 100.0,
      "PerformedProcedureStepStartTime": "132743.102000",
      "PhotometricInterpretation": "MONOCHROME2",
      "PixelBandwidth": 2290.0,
      "PixelRepresentation": 0,
      "PixelSpacing": [2.0, 2.0],
      "ProtocolName": "func_task-mariostars_run-01",
      "RepetitionTime": 1490.0,
      "RescaleIntercept": -4096.0,
      "RescaleSlope": 2.0,
      "RescaleType": "US",
      "Rows": 832,
      "SAR": 0.04187244092482,
      "SamplesPerPixel": 1,
      "ScanOptions": "FS",
      "ScanningSequence": "EP",
      "SequenceName": "epfid2d1_104",
      "SequenceVariant": [
        "SK",
        "SS"
],
      "SeriesDescription": "func_task-mariostars_run-01",
      "SeriesNumber": 12,
      "SeriesTime": "133239.659000",
      "SliceLocation": -31.138325330842,
      "SliceThickness": 2.0,
      "SmallestImagePixelValue": 0,
      "SoftwareVersions": "syngo MR E11",
      "SpacingBetweenSlices": 1.9999999612191,
      "SpecificCharacterSet": "ISO_IR 100",
      "StudyID": "1",
      "StudyTime": "132743.031000",
      "TransmitCoilName": "Body",
      "VariableFlipAngleFlag": "N",
      "WindowCenterWidthExplanation": "Algo1",
      "dBdt": 0.0},
    "slices": {}
  },
  "time": {
    "samples": {
      "AcquisitionNumber": [1, 2, 3, 4, 5, 6, 7, 8, 9, 10, 11, 12, 13, 14, 15, 16, 17, 18, 19, 20, 21, 22, 23, 24, 25, 26, 27, 28, 29, 30, 31, 32, 33, 34, 35, 36, 37, 38, 39, 40, 41, 42, 43, 44, 45, 46, 47, 48, 49, 50, 51, 52, 53, 54, 55, 56, 57, 58, 59, 60, 61, 62, 63, 64, 65, 66, 67, 68, 69, 70, 71, 72, 73, 74, 75, 76, 77, 78, 79, 80, 81, 82, 83, 84, 85, 86, 87, 88, 89, 90, 91, 92, 93, 94, 95, 96, 97, 98, 99, 100, 101, 102, 103, 104, 105, 106, 107, 108, 109, 110, 111, 112, 113, 114, 115, 116, 117, 118, 119, 120, 121, 122, 123, 124, 125, 126, 127, 128, 129, 130, 131, 132, 133, 134, 135, 136, 137, 138, 139, 140, 141, 142, 143, 144, 145, 146, 147, 148, 149, 150, 151, 152, 153, 154, 155, 156, 157, 158, 159, 160, 161, 162, 163, 164, 165, 166, 167, 168, 169, 170, 171, 172, 173, 174, 175, 176, 177, 178, 179, 180, 181, 182, 183, 184, 185, 186, 187, 188, 189, 190, 191, 192, 193, 194, 195, 196, 197, 198, 199, 200, 201, 202, 203, 204, 205, 206, 207, 208, 209, 210, 211, 212, 213, 214, 215, 216, 217, 218, 219, 220, 221, 222, 223, 224, 225, 226, 227, 228, 229, 230, 231, 232, 233, 234, 235, 236, 237, 238, 239, 240, 241, 242, 243, 244, 245, 246, 247, 248, 249, 250, 251, 252, 253, 254, 255, 256, 257, 258, 259, 260, 261, 262, 263, 264, 265, 266, 267, 268, 269, 270, 271, 272, 273, 274, 275, 276, 277, 278, 279, 280, 281, 282, 283, 284, 285, 286, 287, 288, 289, 290, 291, 292, 293, 294, 295, 296, 297, 298, 299, 300, 301, 302, 303, 304, 305, 306, 307, 308, 309, 310, 311, 312, 313, 314, 315, 316, 317, 318, 319, 320, 321, 322, 323, 324, 325, 326, 327, 328, 329, 330, 331, 332, 333, 334, 335, 336, 337, 338, 339, 340, 341, 342, 343, 344, 345, 346, 347, 348, 349, 350, 351, 352, 353, 354, 355, 356, 357, 358, 359, 360, 361, 362, 363, 364, 365, 366, 367, 368, 369, 370, 371, 372, 373, 374, 375, 376, 377, 378, 379, 380, 381, 382, 383, 384, 385, 386, 387, 388, 389, 390, 391, 392, 393, 394, 395, 396, 397, 398, 399, 400, 401, 402, 403, 404, 405, 406, 407, 408, 409, 410, 411, 412, 413, 414, 415, 416, 417, 418, 419, 420, 421, 422, 423, 424, 425, 426, 427, 428, 429, 430, 431, 432, 433, 434, 435, 436, 437, 438, 439, 440, 441, 442, 443, 444, 445, 446, 447, 448, 449, 450, 451],
      "AcquisitionTime": ["133119.245000", "133120.735000", "133122.225000", "133123.715000", "133125.205000", "133126.695000", "133128.185000", "133129.675000", "133131.165000", "133132.655000", "133134.145000", "133135.635000", "133137.125000", "133138.615000", "133140.105000", "133141.595000", "133143.085000", "133144.575000", "133146.065000", "133147.555000", "133149.045000", "133150.535000", "133152.025000", "133153.515000", "133155.005000", "133156.495000", "133157.985000", "133159.475000", "133200.965000", "133202.455000", "133203.945000", "133205.435000", "133206.925000", "133208.415000", "133209.905000", "133211.395000", "133212.885000", "133214.375000", "133215.865000", "133217.355000", "133218.845000", "133220.335000", "133221.825000", "133223.315000", "133224.805000", "133226.295000", "133227.785000", "133229.275000", "133230.765000", "133232.255000", "133233.745000", "133235.235000", "133236.725000", "133238.215000", "133239.705000", "133241.195000", "133242.685000", "133244.175000", "133245.665000", "133247.155000", "133248.645000", "133250.135000", "133251.625000", "133253.115000", "133254.605000", "133256.095000", "133257.585000", "133259.075000", "133300.565000", "133302.055000", "133303.545000", "133305.035000", "133306.525000", "133308.015000", "133309.505000", "133310.995000", "133312.485000", "133313.975000", "133315.465000", "133316.955000", "133318.445000", "133319.935000", "133321.425000", "133322.915000", "133324.405000", "133325.895000", "133327.385000", "133328.875000", "133330.365000", "133331.855000", "133333.345000", "133334.835000", "133336.325000", "133337.815000", "133339.305000", "133340.795000", "133342.285000", "133343.775000", "133345.265000", "133346.755000", "133348.245000", "133349.735000", "133351.225000", "133352.715000", "133354.205000", "133355.695000", "133357.185000", "133358.675000", "133400.165000", "133401.655000", "133403.145000", "133404.635000", "133406.125000", "133407.615000", "133409.105000", "133410.595000", "133412.085000", "133413.575000", "133415.065000", "133416.555000", "133418.045000", "133419.535000", "133421.025000", "133422.515000", "133424.005000", "133425.495000", "133426.985000", "133428.475000", "133429.965000", "133431.455000", "133432.945000", "133434.435000", "133435.925000", "133437.415000", "133438.905000", "133440.395000", "133441.885000", "133443.375000", "133444.865000", "133446.355000", "133447.845000", "133449.335000", "133450.825000", "133452.315000", "133453.805000", "133455.295000", "133456.785000", "133458.275000", "133459.765000", "133501.255000", "133502.745000", "133504.235000", "133505.725000", "133507.215000", "133508.705000", "133510.195000", "133511.685000", "133513.175000", "133514.665000", "133516.155000", "133517.645000", "133519.135000", "133520.625000", "133522.115000", "133523.605000", "133525.095000", "133526.585000", "133528.075000", "133529.565000", "133531.055000", "133532.545000", "133534.035000", "133535.525000", "133537.015000", "133538.505000", "133539.995000", "133541.485000", "133542.975000", "133544.465000", "133545.955000", "133547.445000", "133548.935000", "133550.425000", "133551.915000", "133553.405000", "133554.895000", "133556.385000", "133557.875000", "133559.365000", "133600.855000", "133602.345000", "133603.835000", "133605.325000", "133606.815000", "133608.305000", "133609.795000", "133611.285000", "133612.775000", "133614.265000", "133615.755000", "133617.245000", "133618.735000", "133620.225000", "133621.715000", "133623.205000", "133624.695000", "133626.185000", "133627.675000", "133629.165000", "133630.655000", "133632.145000", "133633.635000", "133635.125000", "133636.615000", "133638.105000", "133639.595000", "133641.085000", "133642.575000", "133644.065000", "133645.555000", "133647.045000", "133648.535000", "133650.025000", "133651.515000", "133653.005000", "133654.495000", "133655.985000", "133657.475000", "133658.965000", "133700.455000", "133701.945000", "133703.435000", "133704.925000", "133706.415000", "133707.905000", "133709.395000", "133710.885000", "133712.375000", "133713.865000", "133715.355000", "133716.845000", "133718.335000", "133719.825000", "133721.315000", "133722.805000", "133724.295000", "133725.785000", "133727.275000", "133728.765000", "133730.255000", "133731.745000", "133733.235000", "133734.725000", "133736.215000", "133737.705000", "133739.195000", "133740.685000", "133742.175000", "133743.665000", "133745.155000", "133746.645000", "133748.135000", "133749.625000", "133751.115000", "133752.605000", "133754.095000", "133755.585000", "133757.075000", "133758.565000", "133800.055000", "133801.545000", "133803.035000", "133804.525000", "133806.015000", "133807.505000", "133808.995000", "133810.485000", "133811.975000", "133813.465000", "133814.955000", "133816.445000", "133817.935000", "133819.425000", "133820.915000", "133822.405000", "133823.895000", "133825.385000", "133826.875000", "133828.365000", "133829.855000", "133831.345000", "133832.835000", "133834.325000", "133835.815000", "133837.305000", "133838.795000", "133840.285000", "133841.775000", "133843.265000", "133844.755000", "133846.245000", "133847.735000", "133849.225000", "133850.715000", "133852.205000", "133853.695000", "133855.185000", "133856.675000", "133858.165000", "133859.655000", "133901.145000", "133902.635000", "133904.125000", "133905.615000", "133907.105000", "133908.595000", "133910.085000", "133911.575000", "133913.065000", "133914.555000", "133916.045000", "133917.535000", "133919.025000", "133920.515000", "133922.005000", "133923.495000", "133924.985000", "133926.475000", "133927.965000", "133929.455000", "133930.945000", "133932.435000", "133933.925000", "133935.415000", "133936.905000", "133938.395000", "133939.885000", "133941.375000", "133942.865000", "133944.355000", "133945.845000", "133947.335000", "133948.825000", "133950.315000", "133951.805000", "133953.295000", "133954.785000", "133956.275000", "133957.765000", "133959.255000", "134000.745000", "134002.235000", "134003.725000", "134005.215000", "134006.705000", "134008.195000", "134009.685000", "134011.175000", "134012.665000", "134014.155000", "134015.645000", "134017.135000", "134018.625000", "134020.115000", "134021.605000", "134023.095000", "134024.585000", "134026.075000", "134027.565000", "134029.055000", "134030.545000", "134032.035000", "134033.525000", "134035.015000", "134036.505000", "134037.995000", "134039.485000", "134040.975000", "134042.465000", "134043.955000", "134045.445000", "134046.935000", "134048.425000", "134049.915000", "134051.405000", "134052.895000", "134054.385000", "134055.875000", "134057.365000", "134058.855000", "134100.345000", "134101.835000", "134103.325000", "134104.815000", "134106.305000", "134107.795000", "134109.285000", "134110.775000", "134112.265000", "134113.755000", "134115.245000", "134116.735000", "134118.225000", "134119.715000", "134121.205000", "134122.695000", "134124.185000", "134125.675000", "134127.165000", "134128.655000", "134130.145000", "134131.635000", "134133.125000", "134134.615000", "134136.105000", "134137.595000", "134139.085000", "134140.575000", "134142.065000", "134143.555000", "134145.045000", "134146.535000", "134148.025000", "134149.515000", "134151.005000", "134152.495000", "134153.985000", "134155.475000", "134156.965000", "134158.455000", "134159.945000", "134201.435000", "134202.925000", "134204.415000", "134205.905000", "134207.395000", "134208.885000", "134210.375000", "134211.865000", "134213.355000", "134214.845000", "134216.335000", "134217.825000", "134219.315000", "134220.805000", "134222.295000", "134223.785000", "134225.275000", "134226.765000", "134228.255000", "134229.745000"],
      "ContentTime": ["133239.661000", "133239.664000", "133239.667000", "133239.669000", "133239.672000", "133239.674000", "133239.677000", "133239.679000", "133239.681000", "133239.684000", "133239.686000", "133239.689000", "133239.691000", "133239.694000", "133239.696000", "133239.699000", "133239.701000", "133239.704000", "133239.706000", "133239.709000", "133239.711000", "133239.714000", "133239.716000", "133239.719000", "133239.721000", "133239.724000", "133239.726000", "133239.729000", "133239.731000", "133239.734000", "133259.591000", "133259.594000", "133259.596000", "133259.599000", "133259.601000", "133259.604000", "133259.606000", "133259.609000", "133259.611000", "133259.614000", "133259.616000", "133259.619000", "133259.621000", "133259.624000", "133259.626000", "133259.629000", "133259.631000", "133259.634000", "133259.636000", "133259.639000", "133319.578000", "133319.581000", "133319.584000", "133319.586000", "133319.589000", "133319.591000", "133319.594000", "133319.596000", "133319.599000", "133319.601000", "133319.604000", "133319.606000", "133319.609000", "133319.611000", "133319.614000", "133319.616000", "133319.619000", "133319.621000", "133319.624000", "133319.626000", "133339.595000", "133339.598000", "133339.600000", "133339.603000", "133339.605000", "133339.608000", "133339.610000", "133339.613000", "133339.615000", "133339.618000", "133339.620000", "133339.623000", "133339.625000", "133339.628000", "133339.631000", "133339.633000", "133339.636000", "133339.638000", "133339.641000", "133339.643000", "133419.631000", "133419.634000", "133419.637000", "133419.639000", "133419.642000", "133419.644000", "133419.647000", "133419.649000", "133419.652000", "133419.654000", "133419.657000", "133419.659000", "133419.662000", "133419.664000", "133419.667000", "133419.669000", "133419.672000", "133419.674000", "133419.677000", "133419.679000", "133419.682000", "133419.684000", "133419.687000", "133419.689000", "133419.692000", "133419.694000", "133419.697000", "133419.699000", "133419.702000", "133419.704000", "133459.621000", "133459.624000", "133459.627000", "133459.630000", "133459.632000", "133459.635000", "133459.637000", "133459.640000", "133459.642000", "133459.645000", "133459.647000", "133459.650000", "133459.652000", "133459.655000", "133459.657000", "133459.660000", "133459.662000", "133459.665000", "133459.667000", "133459.670000", "133459.672000", "133459.675000", "133459.677000", "133459.680000", "133459.682000", "133459.685000", "133459.687000", "133539.630000", "133539.633000", "133539.635000", "133539.638000", "133539.640000", "133539.643000", "133539.660000", "133539.663000", "133539.665000", "133539.668000", "133539.670000", "133539.673000", "133539.675000", "133539.678000", "133539.680000", "133539.683000", "133539.685000", "133539.688000", "133539.690000", "133539.693000", "133539.695000", "133539.698000", "133539.700000", "133539.703000", "133539.705000", "133539.708000", "133539.710000", "133620.128000", "133620.131000", "133620.133000", "133620.136000", "133620.139000", "133620.141000", "133620.144000", "133620.146000", "133620.149000", "133620.151000", "133620.154000", "133620.156000", "133620.159000", "133620.161000", "133620.164000", "133620.166000", "133620.169000", "133620.171000", "133620.174000", "133620.176000", "133620.179000", "133620.182000", "133620.184000", "133620.187000", "133620.194000", "133620.197000", "133659.605000", "133659.608000", "133659.611000", "133659.613000", "133659.616000", "133659.618000", "133659.621000", "133659.623000", "133659.626000", "133659.628000", "133659.631000", "133659.634000", "133659.636000", "133659.639000", "133659.641000", "133659.644000", "133659.646000", "133659.649000", "133659.651000", "133659.654000", "133659.656000", "133659.659000", "133659.662000", "133659.664000", "133659.667000", "133659.669000", "133659.672000", "133739.614000", "133739.617000", "133739.628000", "133739.631000", "133739.634000", "133739.636000", "133739.639000", "133739.641000", "133739.644000", "133739.646000", "133739.649000", "133739.651000", "133739.654000", "133739.656000", "133739.659000", "133739.661000", "133739.664000", "133739.666000", "133739.669000", "133739.671000", "133739.674000", "133739.676000", "133739.679000", "133739.681000", "133739.684000", "133739.686000", "133739.689000", "133819.610000", "133819.613000", "133819.616000", "133819.618000", "133819.621000", "133819.623000", "133819.626000", "133819.628000", "133819.631000", "133819.633000", "133819.636000", "133819.638000", "133819.641000", "133819.643000", "133819.646000", "133819.648000", "133819.651000", "133819.654000", "133819.656000", "133819.658000", "133819.661000", "133819.664000", "133819.666000", "133819.669000", "133819.671000", "133819.674000", "133819.676000", "133859.612000", "133859.615000", "133859.618000", "133859.620000", "133859.623000", "133859.625000", "133859.628000", "133859.630000", "133859.633000", "133859.635000", "133859.638000", "133859.642000", "133859.644000", "133859.647000", "133859.649000", "133859.652000", "133859.662000", "133859.665000", "133859.667000", "133859.670000", "133859.672000", "133859.675000", "133859.677000", "133859.680000", "133859.683000", "133859.685000", "133859.688000", "133939.620000", "133939.623000", "133939.626000", "133939.628000", "133939.631000", "133939.633000", "133939.636000", "133939.638000", "133939.641000", "133939.643000", "133939.646000", "133939.648000", "133939.651000", "133939.653000", "133939.656000", "133939.658000", "133939.661000", "133939.663000", "133939.666000", "133939.668000", "133939.671000", "133939.673000", "133939.676000", "133939.678000", "133939.681000", "133939.683000", "133939.686000", "134019.622000", "134019.625000", "134019.627000", "134019.630000", "134019.632000", "134019.635000", "134019.638000", "134019.640000", "134019.643000", "134019.645000", "134019.648000", "134019.650000", "134019.653000", "134019.655000", "134019.658000", "134019.660000", "134019.663000", "134019.665000", "134019.668000", "134019.670000", "134019.673000", "134019.675000", "134019.678000", "134019.680000", "134019.683000", "134019.685000", "134059.614000", "134059.616000", "134059.619000", "134059.621000", "134059.625000", "134059.627000", "134059.630000", "134059.633000", "134059.635000", "134059.638000", "134059.640000", "134059.643000", "134059.645000", "134059.648000", "134059.650000", "134059.653000", "134059.655000", "134059.658000", "134059.660000", "134059.663000", "134059.665000", "134059.668000", "134059.670000", "134059.673000", "134059.675000", "134059.678000", "134059.680000", "134139.610000", "134139.613000", "134139.616000", "134139.618000", "134139.621000", "134139.623000", "134139.626000", "134139.628000", "134139.631000", "134139.640000", "134139.642000", "134139.645000", "134139.647000", "134139.650000", "134139.652000", "134139.655000", "134139.657000", "134139.660000", "134139.662000", "134139.665000", "134139.667000", "134139.670000", "134139.672000", "134139.675000", "134139.677000", "134139.680000", "134139.682000", "134219.625000", "134219.628000", "134219.631000", "134219.633000", "134219.636000", "134219.638000", "134219.641000", "134219.643000", "134219.646000", "134219.649000", "134219.651000", "134219.654000", "134219.656000", "134219.659000", "134219.661000", "134219.664000", "134219.666000", "134219.669000", "134219.671000", "134219.674000", "134219.677000", "134219.679000", "134219.682000", "134219.684000", "134219.687000", "134219.689000", "134219.692000", "134232.424000", "134232.427000", "134232.429000", "134232.432000", "134232.434000", "134232.437000", "134232.439000", "134232.442000", "134232.444000"],
