{
  "AcquisitionMatrixPE": 104,
  "AcquisitionNumber": 1,
  "AcquisitionTime": "13:56:27.952500",
  "BandwidthPerPixelPhaseEncode": 17.17,
  "BaseResolution": 104,
  "BodyPartExamined": "BRAIN",
  "CoilCombinationMethod": "Sum of Squares",
  "ConsistencyInfo": "N4_VE11C_LATEST_20160120",
  "ConversionSoftware": "dcm2niix",
  "ConversionSoftwareVersion": "v1.0.20211006",
  "DerivedVendorReportedEchoSpacing": 0.000560011,
  "DeviceSerialNumber": "167006",
  "DwellTime": 2.1e-06,
  "EchoTime": 0.037,
  "EchoTime1": 0.037,
  "EchoTime2": 0.001,
  "EchoTrainLength": 104,
  "EffectiveEchoSpacing": 0.000560011,
  "FlipAngle": 52,
  "HeudiconvVersion": "0.11.3.post9+gc939bf8",
  "ImageComments": "Unaliased MB4/PE3/LB",
  "ImageOrientationPatientDICOM": [0.999868, 0.0134595, 0.00905598, -0.010471, 0.961835, -0.27343],
  "ImageOrientationText": "Tra>Cor(-15.9)>Sag(0.7)",
  "ImageType": [
    "ORIGINAL",
    "PRIMARY",
    "P",
    "MB",
    "ND",
    "MOSAIC",
    "PHASE"
],
  "ImagingFrequency": 123.259,
  "InPlanePhaseEncodingDirectionDICOM": "COL",
  "InstitutionAddress": "Chemin Queen-Mary 4565,Montreal,District,CA,H3W 1W5",
  "InstitutionName": "IUGM",
  "InstitutionalDepartmentName": "Department",
  "MRAcquisitionType": "2D",
  "MagneticFieldStrength": 3,
  "Manufacturer": "Siemens",
  "ManufacturersModelName": "Prisma_fit",
  "MatrixCoilMode": "SENSE",
  "Modality": "MR",
  "MultibandAccelerationFactor": 4,
  "PartialFourier": 1,
  "PatientPosition": "HFS",
  "PercentPhaseFOV": 100,
  "PercentSampling": 100,
  "PhaseEncodingDirection": "j",
  "PhaseEncodingSteps": 104,
  "PhaseResolution": 1,
  "PixelBandwidth": 2290,
  "ProcedureStepDescription": "games^mariostars",
  "ProtocolName": "func_task-mariostars_run-03",
  "PulseSequenceDetails": "%CustomerSeq%\\cmrr_mbep2d_bold",
  "ReceiveCoilActiveElements": "HC1-7;NC1,2",
  "ReceiveCoilName": "HeadNeck_64",
  "ReconMatrixPE": 104,
  "RepetitionTime": 1.49,
  "SAR": 0.0418724,
  "ScanOptions": "FS",
  "ScanningSequence": "EP",
  "SequenceName": "epfid2d1_104",
  "SequenceVariant": "SK\\SS",
  "SeriesDescription": "func_task-mariostars_run-03",
  "SeriesNumber": 18,
  "ShimSetting": [629, -7208, -8746, 701, 46, 3, 27, 0],
  "SliceThickness": 2,
  "SliceTiming": [0, 0.785, 0.0975, 0.8825, 0.1975, 0.98, 0.295, 1.0775, 0.3925, 1.1775, 0.49, 1.275, 0.5875, 1.3725, 0.6875, 0, 0.785, 0.0975, 0.8825, 0.1975, 0.98, 0.295, 1.0775, 0.3925, 1.1775, 0.49, 1.275, 0.5875, 1.3725, 0.6875, 0, 0.785, 0.0975, 0.8825, 0.1975, 0.98, 0.295, 1.0775, 0.3925, 1.1775, 0.49, 1.275, 0.5875, 1.3725, 0.6875, 0, 0.785, 0.0975, 0.8825, 0.1975, 0.98, 0.295, 1.0775, 0.3925, 1.1775, 0.49, 1.275, 0.5875, 1.3725, 0.6875],
  "SoftwareVersions": "syngo MR E11",
  "SpacingBetweenSlices": 2,
  "StationName": "MRC35049",
  "TaskName": "mariostars",
  "TotalReadoutTime": 0.0576811,
  "TxRefAmp": 215.276,
  "WipMemBlock": "75b4fb93-3475-472c-b398-d11127f705b8||Sequence: R017 ve11c/master r/75a17815+; Jun 28 2022 16:32:11 by eja",
  "dcmmeta_affine": [
    [-1.9997367858886719, -0.02094196528196335, 0.024781152606010437, 109.3250732421875],
    [-0.026918921619653702, 1.9236699342727661, -0.5465980768203735, -71.72674560546875],
    [0.018111959099769592, 0.5468597412109375, 1.9236985445022583, -54.1620979309082],
    [0.0, 0.0, 0.0, 1.0]
],
  "dcmmeta_reorient_transform": [
    [0.0, -1.0, 0.0, 103.0],
    [1.0, 0.0, 0.0, 0.0],
    [0.0, 0.0, 1.0, 0.0],
    [0.0, 0.0, 0.0, 1.0]
],
  "dcmmeta_shape": [104, 104, 60, 452],
  "dcmmeta_slice_dim": 2,
  "dcmmeta_version": 0.6,
  "global": {
    "const": {
      "AcquisitionMatrix": [104, 0, 0, 104],
      "AngioFlag": "N",
      "BitsAllocated": 16,
      "BitsStored": 16,
      "BodyPartExamined": "BRAIN",
      "Columns": 832,
      "EchoNumbers": 1,
      "EchoTime": 37.0,
      "EchoTrainLength": 104,
      "FlipAngle": 52.0,
      "HighBit": 15,
      "ImageOrientationPatient": [0.99986840741598, 0.01345946085318, 0.0090559795151, -0.0104709825471, 0.9618349496363, -0.2734298597129],
      "ImagePositionPatient": [-827.4493746349, -836.42558612393, 194.62863734009],
      "ImageType": [
        "ORIGINAL",
        "PRIMARY",
        "P",
        "MB",
        "ND",
        "MOSAIC"
],
      "ImagedNucleus": "1H",
      "ImagingFrequency": 123.258795,
      "InPlanePhaseEncodingDirection": "COL",
      "LargestImagePixelValue": 4095,
      "MRAcquisitionType": "2D",
      "MagneticFieldStrength": 3.0,
      "Manufacturer": "SIEMENS",
      "ManufacturerModelName": "Prisma_fit",
      "Modality": "MR",
      "NumberOfAverages": 1.0,
      "NumberOfPhaseEncodingSteps": 104,
      "PercentPhaseFieldOfView": 100.0,
      "PercentSampling": 100.0,
      "PerformedProcedureStepStartTime": "132743.102000",
      "PhotometricInterpretation": "MONOCHROME2",
      "PixelBandwidth": 2290.0,
      "PixelRepresentation": 0,
      "PixelSpacing": [2.0, 2.0],
      "ProtocolName": "func_task-mariostars_run-03",
      "RepetitionTime": 1490.0,
      "RescaleIntercept": -4096.0,
      "RescaleSlope": 2.0,
      "RescaleType": "US",
      "Rows": 832,
      "SAR": 0.04187244092482,
      "SamplesPerPixel": 1,
      "ScanOptions": "FS",
      "ScanningSequence": "EP",
      "SequenceName": "epfid2d1_104",
      "SequenceVariant": [
        "SK",
        "SS"
],
      "SeriesDescription": "func_task-mariostars_run-03",
      "SeriesNumber": 18,
      "SeriesTime": "135751.173000",
      "SliceLocation": -31.138325330842,
      "SliceThickness": 2.0,
      "SmallestImagePixelValue": 0,
      "SoftwareVersions": "syngo MR E11",
      "SpacingBetweenSlices": 1.9999999612191,
      "SpecificCharacterSet": "ISO_IR 100",
      "StudyID": "1",
      "StudyTime": "132743.031000",
      "TransmitCoilName": "Body",
      "VariableFlipAngleFlag": "N",
      "WindowCenterWidthExplanation": "Algo1",
      "dBdt": 0.0},
    "slices": {}
  },
  "time": {
    "samples": {
      "AcquisitionNumber": [1, 2, 3, 4, 5, 6, 7, 8, 9, 10, 11, 12, 13, 14, 15, 16, 17, 18, 19, 20, 21, 22, 23, 24, 25, 26, 27, 28, 29, 30, 31, 32, 33, 34, 35, 36, 37, 38, 39, 40, 41, 42, 43, 44, 45, 46, 47, 48, 49, 50, 51, 52, 53, 54, 55, 56, 57, 58, 59, 60, 61, 62, 63, 64, 65, 66, 67, 68, 69, 70, 71, 72, 73, 74, 75, 76, 77, 78, 79, 80, 81, 82, 83, 84, 85, 86, 87, 88, 89, 90, 91, 92, 93, 94, 95, 96, 97, 98, 99, 100, 101, 102, 103, 104, 105, 106, 107, 108, 109, 110, 111, 112, 113, 114, 115, 116, 117, 118, 119, 120, 121, 122, 123, 124, 125, 126, 127, 128, 129, 130, 131, 132, 133, 134, 135, 136, 137, 138, 139, 140, 141, 142, 143, 144, 145, 146, 147, 148, 149, 150, 151, 152, 153, 154, 155, 156, 157, 158, 159, 160, 161, 162, 163, 164, 165, 166, 167, 168, 169, 170, 171, 172, 173, 174, 175, 176, 177, 178, 179, 180, 181, 182, 183, 184, 185, 186, 187, 188, 189, 190, 191, 192, 193, 194, 195, 196, 197, 198, 199, 200, 201, 202, 203, 204, 205, 206, 207, 208, 209, 210, 211, 212, 213, 214, 215, 216, 217, 218, 219, 220, 221, 222, 223, 224, 225, 226, 227, 228, 229, 230, 231, 232, 233, 234, 235, 236, 237, 238, 239, 240, 241, 242, 243, 244, 245, 246, 247, 248, 249, 250, 251, 252, 253, 254, 255, 256, 257, 258, 259, 260, 261, 262, 263, 264, 265, 266, 267, 268, 269, 270, 271, 272, 273, 274, 275, 276, 277, 278, 279, 280, 281, 282, 283, 284, 285, 286, 287, 288, 289, 290, 291, 292, 293, 294, 295, 296, 297, 298, 299, 300, 301, 302, 303, 304, 305, 306, 307, 308, 309, 310, 311, 312, 313, 314, 315, 316, 317, 318, 319, 320, 321, 322, 323, 324, 325, 326, 327, 328, 329, 330, 331, 332, 333, 334, 335, 336, 337, 338, 339, 340, 341, 342, 343, 344, 345, 346, 347, 348, 349, 350, 351, 352, 353, 354, 355, 356, 357, 358, 359, 360, 361, 362, 363, 364, 365, 366, 367, 368, 369, 370, 371, 372, 373, 374, 375, 376, 377, 378, 379, 380, 381, 382, 383, 384, 385, 386, 387, 388, 389, 390, 391, 392, 393, 394, 395, 396, 397, 398, 399, 400, 401, 402, 403, 404, 405, 406, 407, 408, 409, 410, 411, 412, 413, 414, 415, 416, 417, 418, 419, 420, 421, 422, 423, 424, 425, 426, 427, 428, 429, 430, 431, 432, 433, 434, 435, 436, 437, 438, 439, 440, 441, 442, 443, 444, 445, 446, 447, 448, 449, 450, 451, 452],
      "AcquisitionTime": ["135627.952500", "135629.442500", "135630.932500", "135632.422500", "135633.912500", "135635.402500", "135636.892500", "135638.382500", "135639.872500", "135641.362500", "135642.852500", "135644.342500", "135645.832500", "135647.322500", "135648.812500", "135650.302500", "135651.792500", "135653.282500", "135654.772500", "135656.262500", "135657.752500", "135659.242500", "135700.732500", "135702.222500", "135703.712500", "135705.202500", "135706.692500", "135708.182500", "135709.672500", "135711.162500", "135712.652500", "135714.142500", "135715.632500", "135717.122500", "135718.612500", "135720.102500", "135721.592500", "135723.082500", "135724.572500", "135726.062500", "135727.552500", "135729.042500", "135730.532500", "135732.022500", "135733.512500", "135735.002500", "135736.492500", "135737.982500", "135739.472500", "135740.962500", "135742.452500", "135743.942500", "135745.432500", "135746.922500", "135748.412500", "135749.902500", "135751.392500", "135752.882500", "135754.372500", "135755.862500", "135757.352500", "135758.842500", "135800.332500", "135801.822500", "135803.312500", "135804.802500", "135806.292500", "135807.782500", "135809.272500", "135810.762500", "135812.252500", "135813.742500", "135815.232500", "135816.722500", "135818.212500", "135819.702500", "135821.192500", "135822.682500", "135824.172500", "135825.662500", "135827.152500", "135828.642500", "135830.132500", "135831.622500", "135833.112500", "135834.602500", "135836.092500", "135837.582500", "135839.072500", "135840.562500", "135842.052500", "135843.542500", "135845.032500", "135846.522500", "135848.012500", "135849.502500", "135850.992500", "135852.482500", "135853.972500", "135855.462500", "135856.952500", "135858.442500", "135859.932500", "135901.422500", "135902.912500", "135904.402500", "135905.892500", "135907.382500", "135908.872500", "135910.362500", "135911.852500", "135913.342500", "135914.832500", "135916.322500", "135917.812500", "135919.302500", "135920.792500", "135922.282500", "135923.772500", "135925.262500", "135926.752500", "135928.242500", "135929.732500", "135931.222500", "135932.712500", "135934.202500", "135935.692500", "135937.182500", "135938.672500", "135940.162500", "135941.652500", "135943.142500", "135944.632500", "135946.122500", "135947.612500", "135949.102500", "135950.592500", "135952.082500", "135953.572500", "135955.062500", "135956.552500", "135958.042500", "135959.532500", "140001.022500", "140002.512500", "140004.002500", "140005.492500", "140006.982500", "140008.472500", "140009.962500", "140011.452500", "140012.942500", "140014.432500", "140015.922500", "140017.412500", "140018.902500", "140020.392500", "140021.882500", "140023.372500", "140024.862500", "140026.352500", "140027.842500", "140029.332500", "140030.822500", "140032.312500", "140033.802500", "140035.292500", "140036.782500", "140038.272500", "140039.762500", "140041.252500", "140042.742500", "140044.232500", "140045.722500", "140047.212500", "140048.702500", "140050.192500", "140051.682500", "140053.172500", "140054.662500", "140056.152500", "140057.642500", "140059.132500", "140100.622500", "140102.112500", "140103.602500", "140105.092500", "140106.582500", "140108.072500", "140109.562500", "140111.052500", "140112.542500", "140114.032500", "140115.522500", "140117.012500", "140118.502500", "140119.992500", "140121.482500", "140122.972500", "140124.462500", "140125.952500", "140127.442500", "140128.932500", "140130.422500", "140131.912500", "140133.402500", "140134.892500", "140136.382500", "140137.872500", "140139.362500", "140140.852500", "140142.342500", "140143.832500", "140145.322500", "140146.812500", "140148.302500", "140149.792500", "140151.282500", "140152.772500", "140154.262500", "140155.752500", "140157.242500", "140158.732500", "140200.222500", "140201.712500", "140203.202500", "140204.692500", "140206.182500", "140207.672500", "140209.162500", "140210.652500", "140212.142500", "140213.632500", "140215.122500", "140216.612500", "140218.102500", "140219.592500", "140221.082500", "140222.572500", "140224.062500", "140225.552500", "140227.042500", "140228.532500", "140230.022500", "140231.512500", "140233.002500", "140234.492500", "140235.982500", "140237.472500", "140238.962500", "140240.452500", "140241.942500", "140243.432500", "140244.922500", "140246.412500", "140247.902500", "140249.392500", "140250.882500", "140252.372500", "140253.862500", "140255.352500", "140256.842500", "140258.332500", "140259.822500", "140301.312500", "140302.802500", "140304.292500", "140305.782500", "140307.272500", "140308.762500", "140310.252500", "140311.742500", "140313.232500", "140314.722500", "140316.212500", "140317.702500", "140319.192500", "140320.682500", "140322.172500", "140323.662500", "140325.152500", "140326.642500", "140328.132500", "140329.622500", "140331.112500", "140332.602500", "140334.092500", "140335.582500", "140337.072500", "140338.562500", "140340.052500", "140341.542500", "140343.032500", "140344.522500", "140346.012500", "140347.502500", "140348.992500", "140350.482500", "140351.972500", "140353.462500", "140354.952500", "140356.442500", "140357.932500", "140359.422500", "140400.912500", "140402.402500", "140403.892500", "140405.382500", "140406.872500", "140408.362500", "140409.852500", "140411.342500", "140412.832500", "140414.322500", "140415.812500", "140417.302500", "140418.792500", "140420.282500", "140421.772500", "140423.262500", "140424.752500", "140426.242500", "140427.732500", "140429.222500", "140430.712500", "140432.202500", "140433.692500", "140435.182500", "140436.672500", "140438.162500", "140439.652500", "140441.142500", "140442.632500", "140444.122500", "140445.612500", "140447.102500", "140448.592500", "140450.082500", "140451.572500", "140453.062500", "140454.552500", "140456.042500", "140457.532500", "140459.022500", "140500.512500", "140502.002500", "140503.492500", "140504.982500", "140506.472500", "140507.962500", "140509.452500", "140510.942500", "140512.432500", "140513.922500", "140515.412500", "140516.902500", "140518.392500", "140519.882500", "140521.372500", "140522.862500", "140524.352500", "140525.842500", "140527.332500", "140528.822500", "140530.312500", "140531.802500", "140533.292500", "140534.782500", "140536.272500", "140537.762500", "140539.252500", "140540.742500", "140542.232500", "140543.722500", "140545.212500", "140546.702500", "140548.192500", "140549.682500", "140551.172500", "140552.662500", "140554.152500", "140555.642500", "140557.132500", "140558.622500", "140600.112500", "140601.602500", "140603.092500", "140604.582500", "140606.072500", "140607.562500", "140609.052500", "140610.542500", "140612.032500", "140613.522500", "140615.012500", "140616.502500", "140617.992500", "140619.482500", "140620.972500", "140622.462500", "140623.952500", "140625.442500", "140626.932500", "140628.422500", "140629.912500", "140631.402500", "140632.892500", "140634.382500", "140635.872500", "140637.362500", "140638.852500", "140640.342500", "140641.832500", "140643.322500", "140644.812500", "140646.302500", "140647.792500", "140649.282500", "140650.772500", "140652.262500", "140653.752500", "140655.242500", "140656.732500", "140658.222500", "140659.712500", "140701.202500", "140702.692500", "140704.182500", "140705.672500", "140707.162500", "140708.652500", "140710.142500", "140711.632500", "140713.122500", "140714.612500", "140716.102500", "140717.592500", "140719.082500", "140720.572500", "140722.062500", "140723.552500", "140725.042500", "140726.532500", "140728.022500", "140729.512500", "140731.002500", "140732.492500", "140733.982500", "140735.472500", "140736.962500", "140738.452500", "140739.942500"],
      "ContentTime": ["135751.175000", "135751.177000", "135751.180000", "135751.182000", "135751.185000", "135751.187000", "135751.190000", "135751.192000", "135751.195000", "135751.197000", "135751.200000", "135751.202000", "135751.205000", "135751.207000", "135751.210000", "135751.212000", "135751.215000", "135751.217000", "135751.220000", "135751.223000", "135751.225000", "135751.228000", "135751.230000", "135751.233000", "135751.235000", "135751.238000", "135751.240000", "135751.243000", "135751.245000", "135751.248000", "135751.250000", "135751.253000", "135751.255000", "135751.258000", "135811.063000", "135811.066000", "135811.068000", "135811.071000", "135811.073000", "135811.076000", "135811.079000", "135811.082000", "135811.085000", "135811.088000", "135811.091000", "135811.094000", "135811.096000", "135811.099000", "135811.101000", "135811.104000", "135811.107000", "135811.110000", "135811.112000", "135811.115000", "135831.068000", "135831.071000", "135831.074000", "135831.076000", "135831.079000", "135831.081000", "135831.084000", "135831.086000", "135831.089000", "135831.091000", "135831.094000", "135831.096000", "135831.099000", "135831.101000", "135831.104000", "135831.106000", "135831.109000", "135831.111000", "135831.114000", "135831.116000", "135831.119000", "135851.061000", "135851.064000", "135851.066000", "135851.069000", "135851.071000", "135851.074000", "135851.076000", "135851.079000", "135851.081000", "135851.084000", "135851.086000", "135851.089000", "135851.091000", "135851.094000", "135851.097000", "135851.103000", "135851.105000", "135851.108000", "135851.110000", "135851.113000", "135931.521000", "135931.523000", "135931.526000", "135931.529000", "135931.531000", "135931.534000", "135931.536000", "135931.539000", "135931.541000", "135931.544000", "135931.546000", "135931.549000", "135931.551000", "135931.554000", "135931.556000", "135931.559000", "135931.561000", "135931.564000", "135931.566000", "135931.569000", "135931.571000", "135931.574000", "135931.576000", "135931.579000", "135931.581000", "135931.584000", "135931.586000", "140011.100000", "140011.103000", "140011.105000", "140011.108000", "140011.110000", "140011.113000", "140011.116000", "140011.118000", "140011.121000", "140011.123000", "140011.126000", "140011.128000", "140011.131000", "140011.133000", "140011.136000", "140011.138000", "140011.141000", "140011.143000", "140011.146000", "140011.148000", "140011.151000", "140011.153000", "140011.156000", "140011.164000", "140011.167000", "140011.169000", "140011.172000", "140051.096000", "140051.099000", "140051.101000", "140051.104000", "140051.106000", "140051.109000", "140051.112000", "140051.114000", "140051.117000", "140051.119000", "140051.122000", "140051.124000", "140051.127000", "140051.129000", "140051.132000", "140051.134000", "140051.137000", "140051.139000", "140051.142000", "140051.145000", "140051.147000", "140051.150000", "140051.152000", "140051.155000", "140051.157000", "140051.160000", "140051.162000", "140131.115000", "140131.118000", "140131.120000", "140131.123000", "140131.125000", "140131.128000", "140131.130000", "140131.133000", "140131.135000", "140131.138000", "140131.140000", "140131.143000", "140131.145000", "140131.148000", "140131.150000", "140131.153000", "140131.155000", "140131.158000", "140131.160000", "140131.163000", "140131.165000", "140131.168000", "140131.171000", "140131.173000", "140131.176000", "140131.178000", "140211.084000", "140211.087000", "140211.090000", "140211.092000", "140211.095000", "140211.097000", "140211.100000", "140211.102000", "140211.105000", "140211.108000", "140211.110000", "140211.113000", "140211.115000", "140211.118000", "140211.120000", "140211.123000", "140211.125000", "140211.128000", "140211.130000", "140211.133000", "140211.135000", "140211.138000", "140211.141000", "140211.143000", "140211.146000", "140211.149000", "140211.152000", "140251.109000", "140251.112000", "140251.114000", "140251.117000", "140251.119000", "140251.122000", "140251.124000", "140251.127000", "140251.129000", "140251.132000", "140251.134000", "140251.137000", "140251.139000", "140251.142000", "140251.144000", "140251.147000", "140251.149000", "140251.152000", "140251.154000", "140251.157000", "140251.159000", "140251.162000", "140251.164000", "140251.167000", "140251.170000", "140251.172000", "140251.175000", "140331.128000", "140331.131000", "140331.133000", "140331.136000", "140331.138000", "140331.141000", "140331.143000", "140331.146000", "140331.148000", "140331.151000", "140331.153000", "140331.156000", "140331.159000", "140331.161000", "140331.164000", "140331.166000", "140331.169000", "140331.171000", "140331.174000", "140331.176000", "140331.179000", "140331.181000", "140331.184000", "140331.186000", "140331.189000", "140331.191000", "140331.194000", "140411.114000", "140411.117000", "140411.119000", "140411.122000", "140411.124000", "140411.127000", "140411.129000", "140411.132000", "140411.134000", "140411.137000", "140411.140000", "140411.142000", "140411.145000", "140411.147000", "140411.150000", "140411.152000", "140411.155000", "140411.157000", "140411.160000", "140411.162000", "140411.165000", "140411.167000", "140411.170000", "140411.172000", "140411.175000", "140411.177000", "140411.180000", "140451.092000", "140451.095000", "140451.097000", "140451.100000", "140451.102000", "140451.105000", "140451.107000", "140451.110000", "140451.112000", "140451.115000", "140451.118000", "140451.120000", "140451.123000", "140451.125000", "140451.128000", "140451.130000", "140451.133000", "140451.135000", "140451.138000", "140451.141000", "140451.143000", "140451.146000", "140451.148000", "140451.151000", "140451.153000", "140451.156000", "140451.158000", "140531.089000", "140531.092000", "140531.094000", "140531.097000", "140531.099000", "140531.102000", "140531.104000", "140531.107000", "140531.109000", "140531.112000", "140531.114000", "140531.117000", "140531.119000", "140531.122000", "140531.124000", "140531.127000", "140531.129000", "140531.133000", "140531.136000", "140531.138000", "140531.141000", "140531.143000", "140531.146000", "140531.149000", "140531.151000", "140531.154000", "140531.156000", "140611.101000", "140611.104000", "140611.107000", "140611.109000", "140611.112000", "140611.114000", "140611.117000", "140611.119000", "140611.122000", "140611.124000", "140611.127000", "140611.129000", "140611.132000", "140611.134000", "140611.137000", "140611.139000", "140611.142000", "140611.144000", "140611.147000", "140611.150000", "140611.152000", "140611.155000", "140611.157000", "140611.160000", "140611.162000", "140611.165000", "140651.084000", "140651.087000", "140651.089000", "140651.092000", "140651.095000", "140651.098000", "140651.100000", "140651.103000", "140651.105000", "140651.108000", "140651.110000", "140651.113000", "140651.116000", "140651.119000", "140651.121000", "140651.124000", "140651.141000", "140651.143000", "140651.146000", "140651.148000", "140651.151000", "140651.153000", "140651.156000", "140651.158000", "140651.161000", "140651.163000", "140651.166000", "140731.087000", "140731.090000", "140731.092000", "140731.095000", "140731.098000", "140731.100000", "140731.103000", "140731.105000", "140731.108000", "140731.110000", "140731.113000", "140731.115000", "140731.118000", "140731.120000", "140731.123000", "140731.125000", "140731.128000", "140731.130000", "140731.133000", "140731.135000", "140731.138000", "140731.140000", "140731.143000", "140731.146000", "140731.148000", "140731.151000", "140731.153000", "140742.353000", "140742.356000", "140742.359000", "140742.362000", "140742.365000", "140742.367000", "140742.370000", "140742.379000"],
