{
  "AcquisitionMatrixPE": 104,
  "AcquisitionNumber": 1,
  "AcquisitionTime": "13:43:47.555000",
  "BandwidthPerPixelPhaseEncode": 17.17,
  "BaseResolution": 104,
  "BodyPartExamined": "BRAIN",
  "CoilCombinationMethod": "Sum of Squares",
  "ConsistencyInfo": "N4_VE11C_LATEST_20160120",
  "ConversionSoftware": "dcm2niix",
  "ConversionSoftwareVersion": "v1.0.20211006",
  "DerivedVendorReportedEchoSpacing": 0.000560011,
  "DeviceSerialNumber": "167006",
  "DwellTime": 2.1e-06,
  "EchoTime": 0.037,
  "EchoTrainLength": 104,
  "EffectiveEchoSpacing": 0.000560011,
  "FlipAngle": 52,
  "HeudiconvVersion": "0.11.3.post9+gc939bf8",
  "ImageComments": "Unaliased MB4/PE3/LB",
  "ImageOrientationPatientDICOM": [0.999868, 0.0134595, 0.00905598, -0.010471, 0.961835, -0.27343],
  "ImageOrientationText": "Tra>Cor(-15.9)>Sag(0.7)",
  "ImageType": [
    "ORIGINAL",
    "PRIMARY",
    "M",
    "MB",
    "ND",
    "MOSAIC"
],
  "ImagingFrequency": 123.259,
  "InPlanePhaseEncodingDirectionDICOM": "COL",
  "InstitutionAddress": "Chemin Queen-Mary 4565,Montreal,District,CA,H3W 1W5",
  "InstitutionName": "IUGM",
  "InstitutionalDepartmentName": "Department",
  "MRAcquisitionType": "2D",
  "MagneticFieldStrength": 3,
  "Manufacturer": "Siemens",
  "ManufacturersModelName": "Prisma_fit",
  "MatrixCoilMode": "SENSE",
  "Modality": "MR",
  "MultibandAccelerationFactor": 4,
  "PartialFourier": 1,
  "PatientPosition": "HFS",
  "PercentPhaseFOV": 100,
  "PercentSampling": 100,
  "PhaseEncodingDirection": "j",
  "PhaseEncodingSteps": 104,
  "PhaseResolution": 1,
  "PixelBandwidth": 2290,
  "ProcedureStepDescription": "games^mariostars",
  "ProtocolName": "func_task-mariostars_run-02",
  "PulseSequenceDetails": "%CustomerSeq%\\cmrr_mbep2d_bold",
  "ReceiveCoilActiveElements": "HC1-7;NC1,2",
  "ReceiveCoilName": "HeadNeck_64",
  "ReconMatrixPE": 104,
  "RepetitionTime": 1.49,
  "SAR": 0.0418724,
  "ScanOptions": "FS",
  "ScanningSequence": "EP",
  "SequenceName": "epfid2d1_104",
  "SequenceVariant": "SK\\SS",
  "SeriesDescription": "func_task-mariostars_run-02",
  "SeriesNumber": 14,
  "ShimSetting": [629, -7208, -8746, 701, 46, 3, 27, 0],
  "SliceThickness": 2,
  "SliceTiming": [0, 0.7825, 0.0975, 0.8825, 0.195, 0.98, 0.2925, 1.0775, 0.3925, 1.175, 0.49, 1.2725, 0.5875, 1.3725, 0.685, 0, 0.7825, 0.0975, 0.8825, 0.195, 0.98, 0.2925, 1.0775, 0.3925, 1.175, 0.49, 1.2725, 0.5875, 1.3725, 0.685, 0, 0.7825, 0.0975, 0.8825, 0.195, 0.98, 0.2925, 1.0775, 0.3925, 1.175, 0.49, 1.2725, 0.5875, 1.3725, 0.685, 0, 0.7825, 0.0975, 0.8825, 0.195, 0.98, 0.2925, 1.0775, 0.3925, 1.175, 0.49, 1.2725, 0.5875, 1.3725, 0.685],
  "SoftwareVersions": "syngo MR E11",
  "SpacingBetweenSlices": 2,
  "StationName": "MRC35049",
  "TaskName": "mariostars",
  "TotalReadoutTime": 0.0576811,
  "TxRefAmp": 215.276,
  "WipMemBlock": "5518230f-2d06-4bfa-b5bb-1be59568d7fb||Sequence: R017 ve11c/master r/75a17815+; Jun 28 2022 16:32:11 by eja",
  "dcmmeta_affine": [
    [-1.9997367858886719, -0.02094196528196335, 0.024781152606010437, 109.3250732421875],
    [-0.026918921619653702, 1.9236699342727661, -0.5465980768203735, -71.72674560546875],
    [0.018111959099769592, 0.5468597412109375, 1.9236985445022583, -54.1620979309082],
    [0.0, 0.0, 0.0, 1.0]
],
  "dcmmeta_reorient_transform": [
    [0.0, -1.0, 0.0, 103.0],
    [1.0, 0.0, 0.0, 0.0],
    [0.0, 0.0, 1.0, 0.0],
    [0.0, 0.0, 0.0, 1.0]
],
  "dcmmeta_shape": [104, 104, 60, 453],
  "dcmmeta_slice_dim": 2,
  "dcmmeta_version": 0.6,
  "global": {
    "const": {
      "AcquisitionMatrix": [104, 0, 0, 104],
      "AngioFlag": "N",
      "BitsAllocated": 16,
      "BitsStored": 16,
      "BodyPartExamined": "BRAIN",
      "Columns": 832,
      "EchoNumbers": 1,
      "EchoTime": 37.0,
      "EchoTrainLength": 104,
      "FlipAngle": 52.0,
      "HighBit": 15,
      "ImageOrientationPatient": [0.99986840741598, 0.01345946085318, 0.0090559795151, -0.0104709825471, 0.9618349496363, -0.2734298597129],
      "ImagePositionPatient": [-827.4493746349, -836.42558612393, 194.62863734009],
      "ImageType": [
        "ORIGINAL",
        "PRIMARY",
        "M",
        "MB",
        "ND",
        "MOSAIC"
],
      "ImagedNucleus": "1H",
      "ImagingFrequency": 123.258789,
      "InPlanePhaseEncodingDirection": "COL",
      "MRAcquisitionType": "2D",
      "MagneticFieldStrength": 3.0,
      "Manufacturer": "SIEMENS",
      "ManufacturerModelName": "Prisma_fit",
      "Modality": "MR",
      "NumberOfAverages": 1.0,
      "NumberOfPhaseEncodingSteps": 104,
      "PercentPhaseFieldOfView": 100.0,
      "PercentSampling": 100.0,
      "PerformedProcedureStepStartTime": "132743.102000",
      "PhotometricInterpretation": "MONOCHROME2",
      "PixelBandwidth": 2290.0,
      "PixelRepresentation": 0,
      "PixelSpacing": [2.0, 2.0],
      "ProtocolName": "func_task-mariostars_run-02",
      "RepetitionTime": 1490.0,
      "Rows": 832,
      "SAR": 0.04187244092482,
      "SamplesPerPixel": 1,
      "ScanOptions": "FS",
      "ScanningSequence": "EP",
      "SequenceName": "epfid2d1_104",
      "SequenceVariant": [
        "SK",
        "SS"
],
      "SeriesDescription": "func_task-mariostars_run-02",
      "SeriesNumber": 14,
      "SeriesTime": "134514.277000",
      "SliceLocation": -31.138325330842,
      "SliceThickness": 2.0,
      "SmallestImagePixelValue": 0,
      "SoftwareVersions": "syngo MR E11",
      "SpacingBetweenSlices": 1.9999999612191,
      "SpecificCharacterSet": "ISO_IR 100",
      "StudyID": "1",
      "StudyTime": "132743.031000",
      "TransmitCoilName": "Body",
      "VariableFlipAngleFlag": "N",
      "WindowCenterWidthExplanation": "Algo1",
      "dBdt": 0.0},
    "slices": {}
  },
  "time": {
    "samples": {
      "AcquisitionNumber": [1, 2, 3, 4, 5, 6, 7, 8, 9, 10, 11, 12, 13, 14, 15, 16, 17, 18, 19, 20, 21, 22, 23, 24, 25, 26, 27, 28, 29, 30, 31, 32, 33, 34, 35, 36, 37, 38, 39, 40, 41, 42, 43, 44, 45, 46, 47, 48, 49, 50, 51, 52, 53, 54, 55, 56, 57, 58, 59, 60, 61, 62, 63, 64, 65, 66, 67, 68, 69, 70, 71, 72, 73, 74, 75, 76, 77, 78, 79, 80, 81, 82, 83, 84, 85, 86, 87, 88, 89, 90, 91, 92, 93, 94, 95, 96, 97, 98, 99, 100, 101, 102, 103, 104, 105, 106, 107, 108, 109, 110, 111, 112, 113, 114, 115, 116, 117, 118, 119, 120, 121, 122, 123, 124, 125, 126, 127, 128, 129, 130, 131, 132, 133, 134, 135, 136, 137, 138, 139, 140, 141, 142, 143, 144, 145, 146, 147, 148, 149, 150, 151, 152, 153, 154, 155, 156, 157, 158, 159, 160, 161, 162, 163, 164, 165, 166, 167, 168, 169, 170, 171, 172, 173, 174, 175, 176, 177, 178, 179, 180, 181, 182, 183, 184, 185, 186, 187, 188, 189, 190, 191, 192, 193, 194, 195, 196, 197, 198, 199, 200, 201, 202, 203, 204, 205, 206, 207, 208, 209, 210, 211, 212, 213, 214, 215, 216, 217, 218, 219, 220, 221, 222, 223, 224, 225, 226, 227, 228, 229, 230, 231, 232, 233, 234, 235, 236, 237, 238, 239, 240, 241, 242, 243, 244, 245, 246, 247, 248, 249, 250, 251, 252, 253, 254, 255, 256, 257, 258, 259, 260, 261, 262, 263, 264, 265, 266, 267, 268, 269, 270, 271, 272, 273, 274, 275, 276, 277, 278, 279, 280, 281, 282, 283, 284, 285, 286, 287, 288, 289, 290, 291, 292, 293, 294, 295, 296, 297, 298, 299, 300, 301, 302, 303, 304, 305, 306, 307, 308, 309, 310, 311, 312, 313, 314, 315, 316, 317, 318, 319, 320, 321, 322, 323, 324, 325, 326, 327, 328, 329, 330, 331, 332, 333, 334, 335, 336, 337, 338, 339, 340, 341, 342, 343, 344, 345, 346, 347, 348, 349, 350, 351, 352, 353, 354, 355, 356, 357, 358, 359, 360, 361, 362, 363, 364, 365, 366, 367, 368, 369, 370, 371, 372, 373, 374, 375, 376, 377, 378, 379, 380, 381, 382, 383, 384, 385, 386, 387, 388, 389, 390, 391, 392, 393, 394, 395, 396, 397, 398, 399, 400, 401, 402, 403, 404, 405, 406, 407, 408, 409, 410, 411, 412, 413, 414, 415, 416, 417, 418, 419, 420, 421, 422, 423, 424, 425, 426, 427, 428, 429, 430, 431, 432, 433, 434, 435, 436, 437, 438, 439, 440, 441, 442, 443, 444, 445, 446, 447, 448, 449, 450, 451, 452, 453],
      "AcquisitionTime": ["134347.555000", "134349.045000", "134350.535000", "134352.025000", "134353.515000", "134355.005000", "134356.495000", "134357.985000", "134359.475000", "134400.965000", "134402.455000", "134403.945000", "134405.435000", "134406.925000", "134408.415000", "134409.905000", "134411.395000", "134412.885000", "134414.375000", "134415.865000", "134417.355000", "134418.845000", "134420.335000", "134421.825000", "134423.315000", "134424.805000", "134426.295000", "134427.785000", "134429.275000", "134430.765000", "134432.255000", "134433.745000", "134435.235000", "134436.725000", "134438.215000", "134439.705000", "134441.195000", "134442.685000", "134444.175000", "134445.665000", "134447.155000", "134448.645000", "134450.135000", "134451.625000", "134453.115000", "134454.605000", "134456.095000", "134457.585000", "134459.075000", "134500.565000", "134502.055000", "134503.545000", "134505.035000", "134506.525000", "134508.015000", "134509.505000", "134510.995000", "134512.485000", "134513.975000", "134515.465000", "134516.955000", "134518.445000", "134519.935000", "134521.425000", "134522.915000", "134524.405000", "134525.895000", "134527.385000", "134528.875000", "134530.365000", "134531.855000", "134533.345000", "134534.835000", "134536.325000", "134537.815000", "134539.305000", "134540.795000", "134542.285000", "134543.775000", "134545.265000", "134546.755000", "134548.245000", "134549.735000", "134551.225000", "134552.715000", "134554.205000", "134555.695000", "134557.185000", "134558.675000", "134600.165000", "134601.655000", "134603.145000", "134604.635000", "134606.125000", "134607.615000", "134609.105000", "134610.595000", "134612.085000", "134613.575000", "134615.065000", "134616.555000", "134618.045000", "134619.535000", "134621.025000", "134622.515000", "134624.005000", "134625.495000", "134626.985000", "134628.475000", "134629.965000", "134631.455000", "134632.945000", "134634.435000", "134635.925000", "134637.415000", "134638.905000", "134640.395000", "134641.885000", "134643.375000", "134644.865000", "134646.355000", "134647.845000", "134649.335000", "134650.825000", "134652.315000", "134653.805000", "134655.295000", "134656.785000", "134658.275000", "134659.765000", "134701.255000", "134702.745000", "134704.235000", "134705.725000", "134707.215000", "134708.705000", "134710.195000", "134711.685000", "134713.175000", "134714.665000", "134716.155000", "134717.645000", "134719.135000", "134720.625000", "134722.115000", "134723.605000", "134725.095000", "134726.585000", "134728.075000", "134729.565000", "134731.055000", "134732.545000", "134734.035000", "134735.525000", "134737.015000", "134738.505000", "134739.995000", "134741.485000", "134742.975000", "134744.465000", "134745.955000", "134747.445000", "134748.935000", "134750.425000", "134751.915000", "134753.405000", "134754.895000", "134756.385000", "134757.875000", "134759.365000", "134800.855000", "134802.345000", "134803.835000", "134805.325000", "134806.815000", "134808.305000", "134809.795000", "134811.285000", "134812.775000", "134814.265000", "134815.755000", "134817.245000", "134818.735000", "134820.225000", "134821.715000", "134823.205000", "134824.695000", "134826.185000", "134827.675000", "134829.165000", "134830.655000", "134832.145000", "134833.635000", "134835.125000", "134836.615000", "134838.105000", "134839.595000", "134841.085000", "134842.575000", "134844.065000", "134845.555000", "134847.045000", "134848.535000", "134850.025000", "134851.515000", "134853.005000", "134854.495000", "134855.985000", "134857.475000", "134858.965000", "134900.455000", "134901.945000", "134903.435000", "134904.925000", "134906.415000", "134907.905000", "134909.395000", "134910.885000", "134912.375000", "134913.865000", "134915.355000", "134916.845000", "134918.335000", "134919.825000", "134921.315000", "134922.805000", "134924.295000", "134925.785000", "134927.275000", "134928.765000", "134930.255000", "134931.745000", "134933.235000", "134934.725000", "134936.215000", "134937.705000", "134939.195000", "134940.685000", "134942.175000", "134943.665000", "134945.155000", "134946.645000", "134948.135000", "134949.625000", "134951.115000", "134952.605000", "134954.095000", "134955.585000", "134957.075000", "134958.565000", "135000.055000", "135001.545000", "135003.035000", "135004.525000", "135006.015000", "135007.505000", "135008.995000", "135010.485000", "135011.975000", "135013.465000", "135014.955000", "135016.445000", "135017.935000", "135019.425000", "135020.915000", "135022.405000", "135023.895000", "135025.385000", "135026.875000", "135028.365000", "135029.855000", "135031.345000", "135032.835000", "135034.325000", "135035.815000", "135037.305000", "135038.795000", "135040.285000", "135041.775000", "135043.265000", "135044.755000", "135046.245000", "135047.735000", "135049.225000", "135050.715000", "135052.205000", "135053.695000", "135055.185000", "135056.675000", "135058.165000", "135059.655000", "135101.145000", "135102.635000", "135104.125000", "135105.615000", "135107.105000", "135108.595000", "135110.085000", "135111.575000", "135113.065000", "135114.555000", "135116.045000", "135117.535000", "135119.025000", "135120.515000", "135122.005000", "135123.495000", "135124.985000", "135126.475000", "135127.965000", "135129.455000", "135130.945000", "135132.435000", "135133.925000", "135135.415000", "135136.905000", "135138.395000", "135139.885000", "135141.375000", "135142.865000", "135144.355000", "135145.845000", "135147.335000", "135148.825000", "135150.315000", "135151.805000", "135153.295000", "135154.785000", "135156.275000", "135157.765000", "135159.255000", "135200.745000", "135202.235000", "135203.725000", "135205.215000", "135206.705000", "135208.195000", "135209.685000", "135211.175000", "135212.665000", "135214.155000", "135215.645000", "135217.135000", "135218.625000", "135220.115000", "135221.605000", "135223.095000", "135224.585000", "135226.075000", "135227.565000", "135229.055000", "135230.545000", "135232.035000", "135233.525000", "135235.015000", "135236.505000", "135237.995000", "135239.485000", "135240.975000", "135242.465000", "135243.955000", "135245.445000", "135246.935000", "135248.425000", "135249.915000", "135251.405000", "135252.895000", "135254.385000", "135255.875000", "135257.365000", "135258.855000", "135300.345000", "135301.835000", "135303.325000", "135304.815000", "135306.305000", "135307.795000", "135309.285000", "135310.775000", "135312.265000", "135313.755000", "135315.245000", "135316.735000", "135318.225000", "135319.715000", "135321.205000", "135322.695000", "135324.185000", "135325.675000", "135327.165000", "135328.655000", "135330.145000", "135331.635000", "135333.125000", "135334.615000", "135336.105000", "135337.595000", "135339.085000", "135340.575000", "135342.065000", "135343.555000", "135345.045000", "135346.535000", "135348.025000", "135349.515000", "135351.005000", "135352.495000", "135353.985000", "135355.475000", "135356.965000", "135358.455000", "135359.945000", "135401.435000", "135402.925000", "135404.415000", "135405.905000", "135407.395000", "135408.885000", "135410.375000", "135411.865000", "135413.355000", "135414.845000", "135416.335000", "135417.825000", "135419.315000", "135420.805000", "135422.295000", "135423.785000", "135425.275000", "135426.765000", "135428.255000", "135429.745000", "135431.235000", "135432.725000", "135434.215000", "135435.705000", "135437.195000", "135438.685000", "135440.175000", "135441.665000", "135443.155000", "135444.645000", "135446.135000", "135447.625000", "135449.115000", "135450.605000", "135452.095000", "135453.585000", "135455.075000", "135456.565000", "135458.055000", "135459.545000", "135501.035000"],
      "ContentTime": ["134514.280000", "134514.284000", "134514.287000", "134514.290000", "134514.294000", "134514.297000", "134514.300000", "134514.304000", "134514.307000", "134514.310000", "134514.314000", "134514.317000", "134514.328000", "134514.331000", "134514.334000", "134514.338000", "134514.341000", "134514.344000", "134514.347000", "134514.351000", "134514.354000", "134514.357000", "134514.361000", "134514.364000", "134514.367000", "134514.371000", "134514.374000", "134514.377000", "134514.381000", "134514.384000", "134514.387000", "134514.397000", "134514.401000", "134514.404000", "134514.407000", "134514.410000", "134514.414000", "134514.417000", "134514.420000", "134534.248000", "134534.252000", "134534.255000", "134534.258000", "134534.262000", "134534.265000", "134534.268000", "134534.272000", "134534.275000", "134534.278000", "134534.281000", "134534.285000", "134534.288000", "134534.300000", "134534.303000", "134534.306000", "134534.309000", "134534.313000", "134534.316000", "134534.319000", "134554.248000", "134554.252000", "134554.255000", "134554.258000", "134554.262000", "134554.265000", "134554.268000", "134554.272000", "134554.275000", "134554.278000", "134554.282000", "134554.285000", "134554.288000", "134554.292000", "134554.295000", "134554.298000", "134554.301000", "134554.305000", "134554.308000", "134554.311000", "134634.248000", "134634.252000", "134634.255000", "134634.259000", "134634.262000", "134634.265000", "134634.269000", "134634.272000", "134634.275000", "134634.279000", "134634.282000", "134634.285000", "134634.289000", "134634.292000", "134634.295000", "134634.298000", "134634.302000", "134634.305000", "134634.308000", "134634.312000", "134634.315000", "134634.318000", "134634.322000", "134634.325000", "134634.328000", "134634.331000", "134634.335000", "134634.338000", "134634.349000", "134634.353000", "134634.356000", "134634.359000", "134714.247000", "134714.251000", "134714.254000", "134714.257000", "134714.261000", "134714.264000", "134714.267000", "134714.271000", "134714.274000", "134714.277000", "134714.281000", "134714.284000", "134714.287000", "134714.290000", "134714.294000", "134714.297000", "134714.300000", "134714.304000", "134714.307000", "134714.310000", "134714.314000", "134714.317000", "134714.320000", "134714.324000", "134714.327000", "134714.330000", "134714.333000", "134754.248000", "134754.252000", "134754.255000", "134754.258000", "134754.262000", "134754.265000", "134754.268000", "134754.272000", "134754.275000", "134754.278000", "134754.282000", "134754.285000", "134754.288000", "134754.292000", "134754.295000", "134754.298000", "134754.302000", "134754.305000", "134754.308000", "134754.312000", "134754.315000", "134754.318000", "134754.321000", "134754.325000", "134754.328000", "134754.331000", "134754.335000", "134834.249000", "134834.253000", "134834.257000", "134834.260000", "134834.272000", "134834.275000", "134834.279000", "134834.282000", "134834.285000", "134834.289000", "134834.292000", "134834.295000", "134834.299000", "134834.302000", "134834.305000", "134834.309000", "134834.312000", "134834.315000", "134834.319000", "134834.322000", "134834.326000", "134834.329000", "134834.332000", "134834.336000", "134834.339000", "134834.342000", "134914.247000", "134914.251000", "134914.261000", "134914.264000", "134914.267000", "134914.271000", "134914.274000", "134914.277000", "134914.280000", "134914.284000", "134914.287000", "134914.291000", "134914.294000", "134914.297000", "134914.301000", "134914.304000", "134914.307000", "134914.310000", "134914.314000", "134914.317000", "134914.320000", "134914.324000", "134914.327000", "134914.330000", "134914.334000", "134914.337000", "134914.340000", "134954.248000", "134954.252000", "134954.255000", "134954.259000", "134954.262000", "134954.266000", "134954.269000", "134954.272000", "134954.276000", "134954.279000", "134954.282000", "134954.286000", "134954.289000", "134954.292000", "134954.296000", "134954.299000", "134954.302000", "134954.327000", "134954.330000", "134954.333000", "134954.337000", "134954.340000", "134954.343000", "134954.347000", "134954.350000", "134954.353000", "134954.357000", "135034.248000", "135034.252000", "135034.255000", "135034.259000", "135034.262000", "135034.265000", "135034.269000", "135034.272000", "135034.275000", "135034.279000", "135034.282000", "135034.285000", "135034.289000", "135034.292000", "135034.295000", "135034.299000", "135034.302000", "135034.305000", "135034.313000", "135034.316000", "135034.320000", "135034.323000", "135034.326000", "135034.330000", "135034.333000", "135034.336000", "135034.340000", "135114.248000", "135114.252000", "135114.255000", "135114.259000", "135114.262000", "135114.265000", "135114.269000", "135114.272000", "135114.275000", "135114.279000", "135114.282000", "135114.285000", "135114.289000", "135114.292000", "135114.295000", "135114.299000", "135114.302000", "135114.305000", "135114.309000", "135114.312000", "135114.315000", "135114.319000", "135114.322000", "135114.325000", "135114.329000", "135114.332000", "135114.335000", "135154.247000", "135154.251000", "135154.254000", "135154.257000", "135154.261000", "135154.264000", "135154.268000", "135154.271000", "135154.274000", "135154.278000", "135154.281000", "135154.284000", "135154.288000", "135154.291000", "135154.294000", "135154.298000", "135154.301000", "135154.312000", "135154.316000", "135154.319000", "135154.322000", "135154.326000", "135154.329000", "135154.332000", "135154.336000", "135154.339000", "135154.342000", "135234.248000", "135234.253000", "135234.258000", "135234.262000", "135234.266000", "135234.269000", "135234.274000", "135234.279000", "135234.282000", "135234.285000", "135234.289000", "135234.292000", "135234.295000", "135234.299000", "135234.302000", "135234.305000", "135234.309000", "135234.312000", "135234.315000", "135234.319000", "135234.322000", "135234.325000", "135234.329000", "135234.332000", "135234.335000", "135234.339000", "135254.248000", "135254.252000", "135254.264000", "135254.267000", "135254.271000", "135254.274000", "135254.277000", "135254.281000", "135254.284000", "135254.287000", "135254.291000", "135254.294000", "135254.297000", "135254.301000", "135334.248000", "135334.253000", "135334.257000", "135334.260000", "135334.263000", "135334.267000", "135334.270000", "135334.273000", "135334.277000", "135334.280000", "135334.283000", "135334.287000", "135334.290000", "135334.294000", "135334.297000", "135334.300000", "135334.303000", "135334.307000", "135334.310000", "135334.313000", "135334.317000", "135334.320000", "135334.323000", "135334.327000", "135334.330000", "135334.333000", "135334.337000", "135414.247000", "135414.251000", "135414.254000", "135414.258000", "135414.261000", "135414.264000", "135414.267000", "135414.271000", "135414.274000", "135414.277000", "135414.281000", "135414.284000", "135414.288000", "135414.291000", "135414.294000", "135414.298000", "135414.301000", "135414.304000", "135414.307000", "135414.311000", "135414.314000", "135414.317000", "135414.321000", "135414.324000", "135414.327000", "135414.344000", "135414.347000", "135454.248000", "135454.252000", "135454.255000", "135454.259000", "135454.262000", "135454.265000", "135454.269000", "135454.272000", "135454.275000", "135454.279000", "135454.282000", "135454.285000", "135454.289000", "135454.292000", "135454.295000", "135454.299000", "135454.302000", "135454.306000", "135454.310000", "135454.314000", "135454.319000", "135454.324000", "135454.328000", "135454.331000", "135454.335000", "135454.339000", "135504.582000", "135504.587000", "135504.590000", "135504.594000", "135504.597000", "135504.601000", "135504.604000"],
