{
  "AcquisitionMatrixPE": 104,
  "AcquisitionNumber": 1,
  "AcquisitionTime": "15:49:35.837500",
  "BandwidthPerPixelPhaseEncode": 17.17,
  "BaseResolution": 104,
  "BodyPartExamined": "BRAIN",
  "CoilCombinationMethod": "Sum of Squares",
  "ConsistencyInfo": "N4_VE11C_LATEST_20160120",
  "ConversionSoftware": "dcm2niix",
  "ConversionSoftwareVersion": "v1.0.20211006",
  "DerivedVendorReportedEchoSpacing": 0.000560011,
  "DeviceSerialNumber": "167006",
  "DwellTime": 2.1e-06,
  "EchoTime": 0.037,
  "EchoTime1": 0.037,
  "EchoTime2": 0.001,
  "EchoTrainLength": 104,
  "EffectiveEchoSpacing": 0.000560011,
  "FlipAngle": 52,
  "HeudiconvVersion": "0.11.3.post9+gc939bf8",
  "ImageComments": "Unaliased MB4/PE3/LB",
  "ImageOrientationPatientDICOM": [0.998573, -0.0532516, 0.00408876, 0.0516339, 0.942993, -0.328782],
  "ImageOrientationText": "Tra>Cor(-19.2)>Sag(-0.8)",
  "ImageType": [
    "ORIGINAL",
    "PRIMARY",
    "P",
    "MB",
    "ND",
    "MOSAIC",
    "PHASE"
],
  "ImagingFrequency": 123.259,
  "InPlanePhaseEncodingDirectionDICOM": "COL",
  "InstitutionAddress": "Chemin Queen-Mary 4565,Montreal,District,CA,H3W 1W5",
  "InstitutionName": "IUGM",
  "InstitutionalDepartmentName": "Department",
  "MRAcquisitionType": "2D",
  "MagneticFieldStrength": 3,
  "Manufacturer": "Siemens",
  "ManufacturersModelName": "Prisma_fit",
  "MatrixCoilMode": "SENSE",
  "Modality": "MR",
  "MultibandAccelerationFactor": 4,
  "PartialFourier": 1,
  "PatientPosition": "HFS",
  "PercentPhaseFOV": 100,
  "PercentSampling": 100,
  "PhaseEncodingDirection": "j",
  "PhaseEncodingSteps": 104,
  "PhaseResolution": 1,
  "PixelBandwidth": 2290,
  "ProcedureStepDescription": "games^mariostars",
  "ProtocolName": "func_task-mariostars_run-01",
  "PulseSequenceDetails": "%CustomerSeq%\\cmrr_mbep2d_bold",
  "ReceiveCoilActiveElements": "HC1-7;NC1,2",
  "ReceiveCoilName": "HeadNeck_64",
  "ReconMatrixPE": 104,
  "RepetitionTime": 1.49,
  "SAR": 0.0659503,
  "ScanOptions": "FS",
  "ScanningSequence": "EP",
  "SequenceName": "epfid2d1_104",
  "SequenceVariant": "SK\\SS",
  "SeriesDescription": "func_task-mariostars_run-01",
  "SeriesNumber": 12,
  "ShimSetting": [625, -7254, -8837, 557, 7, -214, -90, -22],
  "SliceThickness": 2,
  "SliceTiming": [0, 0.7825, 0.0975, 0.88, 0.195, 0.98, 0.2925, 1.0775, 0.39, 1.175, 0.49, 1.2725, 0.5875, 1.37, 0.685, 0, 0.7825, 0.0975, 0.88, 0.195, 0.98, 0.2925, 1.0775, 0.39, 1.175, 0.49, 1.2725, 0.5875, 1.37, 0.685, 0, 0.7825, 0.0975, 0.88, 0.195, 0.98, 0.2925, 1.0775, 0.39, 1.175, 0.49, 1.2725, 0.5875, 1.37, 0.685, 0, 0.7825, 0.0975, 0.88, 0.195, 0.98, 0.2925, 1.0775, 0.39, 1.175, 0.49, 1.2725, 0.5875, 1.37, 0.685],
  "SoftwareVersions": "syngo MR E11",
  "SpacingBetweenSlices": 2,
  "StationName": "MRC35049",
  "TaskName": "mariostars",
  "TotalReadoutTime": 0.0576811,
  "TxRefAmp": 267.717,
  "WipMemBlock": "9538ce9b-b41a-4f9e-9295-5ba48f09be4f||Sequence: R017 ve11c/master r/75a17815+; Jun 28 2022 16:32:11 by eja",
  "dcmmeta_affine": [
    [-1.9971455335617065, 0.1032678410410881, -0.02730495296418667, 101.98519134521484],
    [0.10650321841239929, 1.8859868049621582, -0.6570470929145813, -71.65860748291016],
    [0.008177526295185089, 0.6575633883476257, 1.888794183731079, -69.57797241210938],
    [0.0, 0.0, 0.0, 1.0]
],
  "dcmmeta_reorient_transform": [
    [0.0, -1.0, 0.0, 103.0],
    [1.0, 0.0, 0.0, 0.0],
    [0.0, 0.0, 1.0, 0.0],
    [0.0, 0.0, 0.0, 1.0]
],
  "dcmmeta_shape": [104, 104, 60, 513],
  "dcmmeta_slice_dim": 2,
  "dcmmeta_version": 0.6,
  "global": {
    "const": {
      "AcquisitionMatrix": [104, 0, 0, 104],
      "AngioFlag": "N",
      "BitsAllocated": 16,
      "BitsStored": 16,
      "BodyPartExamined": "BRAIN",
      "Columns": 832,
      "EchoNumbers": 1,
      "EchoTime": 37.0,
      "EchoTrainLength": 104,
      "FlipAngle": 52.0,
      "HighBit": 15,
      "ImageOrientationPatient": [0.99857275558442, -0.053251608603, 0.00408876335039, 0.05163391980686, 0.94299339259647, -0.3287816902517],
      "ImagePositionPatient": [-877.17224083846, -770.33005228304, 234.52750697268],
      "ImageType": [
        "ORIGINAL",
        "PRIMARY",
        "P",
        "MB",
        "ND",
        "MOSAIC"
],
      "ImagedNucleus": "1H",
      "ImagingFrequency": 123.25879,
      "InPlanePhaseEncodingDirection": "COL",
      "LargestImagePixelValue": 4095,
      "MRAcquisitionType": "2D",
      "MagneticFieldStrength": 3.0,
      "Manufacturer": "SIEMENS",
      "ManufacturerModelName": "Prisma_fit",
      "Modality": "MR",
      "NumberOfAverages": 1.0,
      "NumberOfPhaseEncodingSteps": 104,
      "PercentPhaseFieldOfView": 100.0,
      "PercentSampling": 100.0,
      "PerformedProcedureStepStartTime": "154710.900000",
      "PhotometricInterpretation": "MONOCHROME2",
      "PixelBandwidth": 2290.0,
      "PixelRepresentation": 0,
      "PixelSpacing": [2.0, 2.0],
      "ProtocolName": "func_task-mariostars_run-01",
      "RepetitionTime": 1490.0,
      "RescaleIntercept": -4096.0,
      "RescaleSlope": 2.0,
      "RescaleType": "US",
      "Rows": 832,
      "SAR": 0.06595026419067,
      "SamplesPerPixel": 1,
      "ScanOptions": "FS",
      "ScanningSequence": "EP",
      "SequenceName": "epfid2d1_104",
      "SequenceVariant": [
        "SK",
        "SS"
],
      "SeriesDescription": "func_task-mariostars_run-01",
      "SeriesNumber": 12,
      "SeriesTime": "155116.164000",
      "SliceLocation": -43.560045552265,
      "SliceThickness": 2.0,
      "SmallestImagePixelValue": 0,
      "SoftwareVersions": "syngo MR E11",
      "SpacingBetweenSlices": 1.999999936381,
      "SpecificCharacterSet": "ISO_IR 100",
      "StudyID": "1",
      "StudyTime": "154710.821000",
      "TransmitCoilName": "Body",
      "VariableFlipAngleFlag": "N",
      "WindowCenterWidthExplanation": "Algo1",
      "dBdt": 0.0},
    "slices": {}
  },
  "time": {
    "samples": {
      "AcquisitionNumber": [1, 2, 3, 4, 5, 6, 7, 8, 9, 10, 11, 12, 13, 14, 15, 16, 17, 18, 19, 20, 21, 22, 23, 24, 25, 26, 27, 28, 29, 30, 31, 32, 33, 34, 35, 36, 37, 38, 39, 40, 41, 42, 43, 44, 45, 46, 47, 48, 49, 50, 51, 52, 53, 54, 55, 56, 57, 58, 59, 60, 61, 62, 63, 64, 65, 66, 67, 68, 69, 70, 71, 72, 73, 74, 75, 76, 77, 78, 79, 80, 81, 82, 83, 84, 85, 86, 87, 88, 89, 90, 91, 92, 93, 94, 95, 96, 97, 98, 99, 100, 101, 102, 103, 104, 105, 106, 107, 108, 109, 110, 111, 112, 113, 114, 115, 116, 117, 118, 119, 120, 121, 122, 123, 124, 125, 126, 127, 128, 129, 130, 131, 132, 133, 134, 135, 136, 137, 138, 139, 140, 141, 142, 143, 144, 145, 146, 147, 148, 149, 150, 151, 152, 153, 154, 155, 156, 157, 158, 159, 160, 161, 162, 163, 164, 165, 166, 167, 168, 169, 170, 171, 172, 173, 174, 175, 176, 177, 178, 179, 180, 181, 182, 183, 184, 185, 186, 187, 188, 189, 190, 191, 192, 193, 194, 195, 196, 197, 198, 199, 200, 201, 202, 203, 204, 205, 206, 207, 208, 209, 210, 211, 212, 213, 214, 215, 216, 217, 218, 219, 220, 221, 222, 223, 224, 225, 226, 227, 228, 229, 230, 231, 232, 233, 234, 235, 236, 237, 238, 239, 240, 241, 242, 243, 244, 245, 246, 247, 248, 249, 250, 251, 252, 253, 254, 255, 256, 257, 258, 259, 260, 261, 262, 263, 264, 265, 266, 267, 268, 269, 270, 271, 272, 273, 274, 275, 276, 277, 278, 279, 280, 281, 282, 283, 284, 285, 286, 287, 288, 289, 290, 291, 292, 293, 294, 295, 296, 297, 298, 299, 300, 301, 302, 303, 304, 305, 306, 307, 308, 309, 310, 311, 312, 313, 314, 315, 316, 317, 318, 319, 320, 321, 322, 323, 324, 325, 326, 327, 328, 329, 330, 331, 332, 333, 334, 335, 336, 337, 338, 339, 340, 341, 342, 343, 344, 345, 346, 347, 348, 349, 350, 351, 352, 353, 354, 355, 356, 357, 358, 359, 360, 361, 362, 363, 364, 365, 366, 367, 368, 369, 370, 371, 372, 373, 374, 375, 376, 377, 378, 379, 380, 381, 382, 383, 384, 385, 386, 387, 388, 389, 390, 391, 392, 393, 394, 395, 396, 397, 398, 399, 400, 401, 402, 403, 404, 405, 406, 407, 408, 409, 410, 411, 412, 413, 414, 415, 416, 417, 418, 419, 420, 421, 422, 423, 424, 425, 426, 427, 428, 429, 430, 431, 432, 433, 434, 435, 436, 437, 438, 439, 440, 441, 442, 443, 444, 445, 446, 447, 448, 449, 450, 451, 452, 453, 454, 455, 456, 457, 458, 459, 460, 461, 462, 463, 464, 465, 466, 467, 468, 469, 470, 471, 472, 473, 474, 475, 476, 477, 478, 479, 480, 481, 482, 483, 484, 485, 486, 487, 488, 489, 490, 491, 492, 493, 494, 495, 496, 497, 498, 499, 500, 501, 502, 503, 504, 505, 506, 507, 508, 509, 510, 511, 512, 513],
      "AcquisitionTime": ["154935.837500", "154937.327500", "154938.817500", "154940.307500", "154941.797500", "154943.287500", "154944.777500", "154946.267500", "154947.757500", "154949.247500", "154950.737500", "154952.227500", "154953.717500", "154955.207500", "154956.697500", "154958.187500", "154959.677500", "155001.167500", "155002.657500", "155004.147500", "155005.637500", "155007.127500", "155008.617500", "155010.107500", "155011.597500", "155013.087500", "155014.577500", "155016.067500", "155017.557500", "155019.047500", "155020.537500", "155022.027500", "155023.517500", "155025.007500", "155026.497500", "155027.987500", "155029.477500", "155030.967500", "155032.457500", "155033.947500", "155035.437500", "155036.927500", "155038.417500", "155039.907500", "155041.397500", "155042.887500", "155044.377500", "155045.867500", "155047.357500", "155048.847500", "155050.337500", "155051.827500", "155053.317500", "155054.807500", "155056.297500", "155057.787500", "155059.277500", "155100.767500", "155102.257500", "155103.747500", "155105.237500", "155106.727500", "155108.217500", "155109.707500", "155111.197500", "155112.687500", "155114.177500", "155115.667500", "155117.157500", "155118.647500", "155120.137500", "155121.627500", "155123.117500", "155124.607500", "155126.097500", "155127.587500", "155129.077500", "155130.567500", "155132.057500", "155133.547500", "155135.037500", "155136.527500", "155138.017500", "155139.507500", "155140.997500", "155142.487500", "155143.977500", "155145.467500", "155146.957500", "155148.447500", "155149.937500", "155151.427500", "155152.917500", "155154.407500", "155155.897500", "155157.387500", "155158.877500", "155200.367500", "155201.857500", "155203.347500", "155204.837500", "155206.327500", "155207.817500", "155209.307500", "155210.797500", "155212.287500", "155213.777500", "155215.267500", "155216.757500", "155218.247500", "155219.737500", "155221.227500", "155222.717500", "155224.207500", "155225.697500", "155227.187500", "155228.677500", "155230.167500", "155231.657500", "155233.147500", "155234.637500", "155236.127500", "155237.617500", "155239.107500", "155240.597500", "155242.087500", "155243.577500", "155245.067500", "155246.557500", "155248.047500", "155249.537500", "155251.027500", "155252.517500", "155254.007500", "155255.497500", "155256.987500", "155258.477500", "155259.967500", "155301.457500", "155302.947500", "155304.437500", "155305.927500", "155307.417500", "155308.907500", "155310.397500", "155311.887500", "155313.377500", "155314.867500", "155316.357500", "155317.847500", "155319.337500", "155320.827500", "155322.317500", "155323.807500", "155325.297500", "155326.787500", "155328.277500", "155329.767500", "155331.257500", "155332.747500", "155334.237500", "155335.727500", "155337.217500", "155338.707500", "155340.197500", "155341.687500", "155343.177500", "155344.667500", "155346.157500", "155347.647500", "155349.137500", "155350.627500", "155352.117500", "155353.607500", "155355.097500", "155356.587500", "155358.077500", "155359.567500", "155401.057500", "155402.547500", "155404.037500", "155405.527500", "155407.017500", "155408.507500", "155409.997500", "155411.487500", "155412.977500", "155414.467500", "155415.957500", "155417.447500", "155418.937500", "155420.427500", "155421.917500", "155423.407500", "155424.897500", "155426.387500", "155427.877500", "155429.367500", "155430.857500", "155432.347500", "155433.837500", "155435.327500", "155436.817500", "155438.307500", "155439.797500", "155441.287500", "155442.777500", "155444.267500", "155445.757500", "155447.247500", "155448.737500", "155450.227500", "155451.717500", "155453.207500", "155454.697500", "155456.187500", "155457.677500", "155459.167500", "155500.657500", "155502.147500", "155503.637500", "155505.127500", "155506.617500", "155508.107500", "155509.597500", "155511.087500", "155512.577500", "155514.067500", "155515.557500", "155517.047500", "155518.537500", "155520.027500", "155521.517500", "155523.007500", "155524.497500", "155525.987500", "155527.477500", "155528.967500", "155530.457500", "155531.947500", "155533.437500", "155534.927500", "155536.417500", "155537.907500", "155539.397500", "155540.887500", "155542.377500", "155543.867500", "155545.357500", "155546.847500", "155548.337500", "155549.827500", "155551.317500", "155552.807500", "155554.297500", "155555.787500", "155557.277500", "155558.767500", "155600.257500", "155601.747500", "155603.237500", "155604.727500", "155606.217500", "155607.707500", "155609.197500", "155610.687500", "155612.177500", "155613.667500", "155615.157500", "155616.647500", "155618.137500", "155619.627500", "155621.117500", "155622.607500", "155624.097500", "155625.587500", "155627.077500", "155628.567500", "155630.057500", "155631.547500", "155633.037500", "155634.527500", "155636.017500", "155637.507500", "155638.997500", "155640.487500", "155641.977500", "155643.467500", "155644.957500", "155646.447500", "155647.937500", "155649.427500", "155650.917500", "155652.407500", "155653.897500", "155655.387500", "155656.877500", "155658.367500", "155659.857500", "155701.347500", "155702.837500", "155704.327500", "155705.817500", "155707.307500", "155708.797500", "155710.287500", "155711.777500", "155713.267500", "155714.757500", "155716.247500", "155717.737500", "155719.227500", "155720.717500", "155722.207500", "155723.697500", "155725.187500", "155726.677500", "155728.167500", "155729.657500", "155731.147500", "155732.637500", "155734.127500", "155735.617500", "155737.107500", "155738.597500", "155740.087500", "155741.577500", "155743.067500", "155744.557500", "155746.047500", "155747.537500", "155749.027500", "155750.517500", "155752.007500", "155753.497500", "155754.987500", "155756.477500", "155757.967500", "155759.457500", "155800.947500", "155802.437500", "155803.927500", "155805.417500", "155806.907500", "155808.397500", "155809.887500", "155811.377500", "155812.867500", "155814.357500", "155815.847500", "155817.337500", "155818.827500", "155820.317500", "155821.807500", "155823.297500", "155824.787500", "155826.277500", "155827.767500", "155829.257500", "155830.747500", "155832.237500", "155833.727500", "155835.217500", "155836.707500", "155838.197500", "155839.687500", "155841.177500", "155842.667500", "155844.157500", "155845.647500", "155847.137500", "155848.627500", "155850.117500", "155851.607500", "155853.097500", "155854.587500", "155856.077500", "155857.567500", "155859.057500", "155900.547500", "155902.037500", "155903.527500", "155905.017500", "155906.507500", "155907.997500", "155909.487500", "155910.977500", "155912.467500", "155913.957500", "155915.447500", "155916.937500", "155918.427500", "155919.917500", "155921.407500", "155922.897500", "155924.387500", "155925.877500", "155927.367500", "155928.857500", "155930.347500", "155931.837500", "155933.327500", "155934.817500", "155936.307500", "155937.797500", "155939.287500", "155940.777500", "155942.267500", "155943.757500", "155945.247500", "155946.737500", "155948.227500", "155949.717500", "155951.207500", "155952.697500", "155954.187500", "155955.677500", "155957.167500", "155958.657500", "160000.147500", "160001.637500", "160003.127500", "160004.617500", "160006.107500", "160007.597500", "160009.087500", "160010.577500", "160012.067500", "160013.557500", "160015.047500", "160016.537500", "160018.027500", "160019.517500", "160021.007500", "160022.497500", "160023.987500", "160025.477500", "160026.967500", "160028.457500", "160029.947500", "160031.437500", "160032.927500", "160034.417500", "160035.907500", "160037.397500", "160038.887500", "160040.377500", "160041.867500", "160043.357500", "160044.847500", "160046.337500", "160047.827500", "160049.317500", "160050.807500", "160052.297500", "160053.787500", "160055.277500", "160056.767500", "160058.257500", "160059.747500", "160101.237500", "160102.727500", "160104.217500", "160105.707500", "160107.197500", "160108.687500", "160110.177500", "160111.667500", "160113.157500", "160114.647500", "160116.137500", "160117.627500", "160119.117500", "160120.607500", "160122.097500", "160123.587500", "160125.077500", "160126.567500", "160128.057500", "160129.547500", "160131.037500", "160132.527500", "160134.017500", "160135.507500", "160136.997500", "160138.487500", "160139.977500", "160141.467500", "160142.957500", "160144.447500", "160145.937500", "160147.427500", "160148.917500", "160150.407500", "160151.897500", "160153.387500", "160154.877500", "160156.367500", "160157.857500", "160159.347500", "160200.837500", "160202.327500", "160203.817500", "160205.307500", "160206.797500", "160208.287500", "160209.777500", "160211.267500", "160212.757500", "160214.247500", "160215.737500", "160217.227500", "160218.717500"],
      "ContentTime": ["155116.166000", "155116.237000", "155116.240000", "155116.242000", "155116.245000", "155116.247000", "155116.250000", "155116.252000", "155116.255000", "155116.257000", "155116.260000", "155116.262000", "155116.264000", "155116.267000", "155116.269000", "155116.272000", "155116.274000", "155116.277000", "155116.280000", "155116.282000", "155116.285000", "155116.287000", "155116.290000", "155116.292000", "155116.295000", "155116.298000", "155116.300000", "155116.303000", "155116.305000", "155136.106000", "155136.109000", "155136.111000", "155136.114000", "155136.116000", "155136.118000", "155136.121000", "155136.124000", "155136.126000", "155136.128000", "155136.131000", "155136.133000", "155136.136000", "155136.138000", "155136.141000", "155136.143000", "155136.146000", "155136.148000", "155136.151000", "155136.153000", "155156.105000", "155156.108000", "155156.110000", "155156.113000", "155156.115000", "155156.118000", "155156.120000", "155156.123000", "155156.125000", "155156.128000", "155156.130000", "155156.133000", "155156.135000", "155156.137000", "155156.140000", "155156.142000", "155156.145000", "155156.148000", "155156.151000", "155156.153000", "155216.093000", "155216.096000", "155216.098000", "155216.101000", "155216.103000", "155216.106000", "155216.108000", "155216.111000", "155216.113000", "155216.116000", "155216.119000", "155216.121000", "155216.123000", "155216.126000", "155216.128000", "155216.131000", "155216.133000", "155216.136000", "155216.138000", "155216.141000", "155216.143000", "155236.092000", "155236.095000", "155236.098000", "155236.100000", "155236.103000", "155236.105000", "155236.108000", "155236.110000", "155236.113000", "155236.115000", "155236.118000", "155236.120000", "155236.123000", "155236.125000", "155236.128000", "155236.130000", "155236.133000", "155236.135000", "155236.138000", "155236.140000", "155256.097000", "155256.099000", "155256.102000", "155256.104000", "155256.107000", "155256.109000", "155256.112000", "155256.114000", "155256.117000", "155256.119000", "155256.122000", "155256.124000", "155256.127000", "155256.129000", "155256.132000", "155256.134000", "155256.137000", "155256.139000", "155256.142000", "155256.144000", "155336.141000", "155336.143000", "155336.146000", "155336.148000", "155336.151000", "155336.153000", "155336.156000", "155336.208000", "155336.211000", "155336.213000", "155336.216000", "155336.218000", "155336.221000", "155336.223000", "155336.226000", "155336.228000", "155336.230000", "155336.233000", "155336.235000", "155336.238000", "155336.240000", "155336.243000", "155336.245000", "155336.248000", "155336.250000", "155336.253000", "155336.255000", "155336.258000", "155336.260000", "155336.263000", "155416.114000", "155416.116000", "155416.119000", "155416.122000", "155416.124000", "155416.126000", "155416.129000", "155416.131000", "155416.134000", "155416.136000", "155416.139000", "155416.141000", "155416.144000", "155416.146000", "155416.149000", "155416.151000", "155416.154000", "155416.156000", "155416.205000", "155416.208000", "155416.211000", "155416.214000", "155416.216000", "155416.219000", "155416.221000", "155416.223000", "155416.226000", "155456.116000", "155456.118000", "155456.121000", "155456.123000", "155456.126000", "155456.128000", "155456.131000", "155456.133000", "155456.136000", "155456.138000", "155456.141000", "155456.143000", "155456.146000", "155456.148000", "155456.151000", "155456.153000", "155456.156000", "155456.158000", "155456.200000", "155456.202000", "155456.205000", "155456.207000", "155456.210000", "155456.212000", "155456.215000", "155456.217000", "155456.220000", "155536.130000", "155536.132000", "155536.135000", "155536.137000", "155536.140000", "155536.142000", "155536.145000", "155536.148000", "155536.150000", "155536.153000", "155536.155000", "155536.158000", "155536.228000", "155536.230000", "155536.233000", "155536.235000", "155536.237000", "155536.240000", "155536.242000", "155536.245000", "155536.247000", "155536.250000", "155536.252000", "155536.255000", "155536.257000", "155536.260000", "155536.262000", "155616.126000", "155616.129000", "155616.131000", "155616.134000", "155616.136000", "155616.139000", "155616.141000", "155616.144000", "155616.146000", "155616.149000", "155616.151000", "155616.154000", "155616.156000", "155616.198000", "155616.200000", "155616.208000", "155616.211000", "155616.213000", "155616.216000", "155616.218000", "155616.221000", "155616.223000", "155616.226000", "155616.228000", "155616.231000", "155616.233000", "155656.653000", "155656.656000", "155656.658000", "155656.661000", "155656.663000", "155656.666000", "155656.668000", "155656.671000", "155656.673000", "155656.676000", "155656.678000", "155656.681000", "155656.683000", "155656.686000", "155656.688000", "155656.691000", "155656.694000", "155656.696000", "155656.699000", "155656.701000", "155656.704000", "155656.706000", "155656.709000", "155656.711000", "155656.714000", "155656.716000", "155656.718000", "155736.142000", "155736.144000", "155736.147000", "155736.149000", "155736.152000", "155736.154000", "155736.157000", "155736.229000", "155736.231000", "155736.234000", "155736.236000", "155736.239000", "155736.241000", "155736.244000", "155736.253000", "155736.255000", "155736.258000", "155736.260000", "155736.262000", "155736.265000", "155736.267000", "155736.270000", "155736.272000", "155736.275000", "155736.277000", "155736.280000", "155736.282000", "155816.111000", "155816.114000", "155816.116000", "155816.119000", "155816.121000", "155816.124000", "155816.126000", "155816.129000", "155816.131000", "155816.134000", "155816.136000", "155816.139000", "155816.141000", "155816.144000", "155816.146000", "155816.149000", "155816.151000", "155816.154000", "155816.156000", "155816.244000", "155816.247000", "155816.249000", "155816.252000", "155816.254000", "155816.257000", "155816.259000", "155816.262000", "155856.119000", "155856.121000", "155856.134000", "155856.137000", "155856.139000", "155856.142000", "155856.144000", "155856.147000", "155856.149000", "155856.152000", "155856.154000", "155856.157000", "155856.202000", "155856.205000", "155856.207000", "155856.210000", "155856.212000", "155856.215000", "155856.217000", "155856.220000", "155856.222000", "155856.225000", "155856.227000", "155856.229000", "155856.232000", "155856.234000", "155856.237000", "155936.132000", "155936.135000", "155936.138000", "155936.140000", "155936.143000", "155936.145000", "155936.148000", "155936.150000", "155936.153000", "155936.155000", "155936.158000", "155936.218000", "155936.221000", "155936.223000", "155936.226000", "155936.228000", "155936.231000", "155936.233000", "155936.236000", "155936.238000", "155936.241000", "155936.243000", "155936.245000", "155936.248000", "155936.250000", "155936.253000", "155936.255000", "160016.278000", "160016.281000", "160016.284000", "160016.286000", "160016.289000", "160016.291000", "160016.294000", "160016.296000", "160016.299000", "160016.301000", "160016.303000", "160016.306000", "160016.308000", "160016.311000", "160016.313000", "160016.316000", "160016.318000", "160016.321000", "160016.323000", "160016.326000", "160016.328000", "160016.331000", "160016.333000", "160016.336000", "160016.339000", "160016.341000", "160016.344000", "160056.120000", "160056.123000", "160056.125000", "160056.128000", "160056.130000", "160056.133000", "160056.135000", "160056.138000", "160056.140000", "160056.143000", "160056.145000", "160056.148000", "160056.150000", "160056.153000", "160056.155000", "160056.158000", "160056.222000", "160056.225000", "160056.227000", "160056.230000", "160056.232000", "160056.235000", "160056.237000", "160056.240000", "160056.242000", "160056.244000", "160116.067000", "160116.070000", "160116.073000", "160116.075000", "160116.078000", "160116.080000", "160116.082000", "160116.085000", "160116.088000", "160116.090000", "160116.093000", "160116.095000", "160116.098000", "160116.100000", "160156.139000", "160156.142000", "160156.144000", "160156.152000", "160156.154000", "160156.157000", "160156.241000", "160156.243000", "160156.246000", "160156.248000", "160156.251000", "160156.253000", "160156.256000", "160156.258000", "160156.261000", "160156.263000", "160156.266000", "160156.268000", "160156.271000", "160156.273000", "160156.276000", "160156.278000", "160156.281000", "160156.283000", "160156.286000", "160156.288000", "160156.291000", "160221.768000", "160221.771000", "160221.774000", "160221.776000", "160221.779000", "160221.781000", "160221.784000", "160221.786000", "160221.789000", "160221.791000", "160221.794000", "160221.796000", "160221.799000", "160221.801000", "160221.804000", "160221.806000", "160221.809000"],
