{
  "AcquisitionMatrixPE": 104,
  "AcquisitionNumber": 1,
  "AcquisitionTime": "14:03:31.945000",
  "BandwidthPerPixelPhaseEncode": 17.17,
  "BaseResolution": 104,
  "BodyPartExamined": "BRAIN",
  "CoilCombinationMethod": "Sum of Squares",
  "ConsistencyInfo": "N4_VE11C_LATEST_20160120",
  "ConversionSoftware": "dcm2niix",
  "ConversionSoftwareVersion": "v1.0.20211006",
  "DerivedVendorReportedEchoSpacing": 0.000560011,
  "DeviceSerialNumber": "167006",
  "DwellTime": 2.1e-06,
  "EchoTime": 0.037,
  "EchoTime1": 0.037,
  "EchoTime2": 0.001,
  "EchoTrainLength": 104,
  "EffectiveEchoSpacing": 0.000560011,
  "FlipAngle": 52,
  "HeudiconvVersion": "0.11.3.post9+gc939bf8",
  "ImageComments": "Unaliased MB4/PE3/LB",
  "ImageOrientationPatientDICOM": [0.999765, 0.0216734, -4.03838e-05, -0.0209421, 0.965547, -0.259383],
  "ImageOrientationText": "Tra>Cor(-15.0)>Sag(0.3)",
  "ImageType": [
    "ORIGINAL",
    "PRIMARY",
    "P",
    "MB",
    "ND",
    "MOSAIC",
    "PHASE"
],
  "ImagingFrequency": 123.259,
  "InPlanePhaseEncodingDirectionDICOM": "COL",
  "InstitutionAddress": "Chemin Queen-Mary 4565,Montreal,District,CA,H3W 1W5",
  "InstitutionName": "IUGM",
  "InstitutionalDepartmentName": "Department",
  "MRAcquisitionType": "2D",
  "MagneticFieldStrength": 3,
  "Manufacturer": "Siemens",
  "ManufacturersModelName": "Prisma_fit",
  "MatrixCoilMode": "SENSE",
  "Modality": "MR",
  "MultibandAccelerationFactor": 4,
  "PartialFourier": 1,
  "PatientPosition": "HFS",
  "PercentPhaseFOV": 100,
  "PercentSampling": 100,
  "PhaseEncodingDirection": "j",
  "PhaseEncodingSteps": 104,
  "PhaseResolution": 1,
  "PixelBandwidth": 2290,
  "ProcedureStepDescription": "games^mariostars",
  "ProtocolName": "func_task-mariostars_run-01",
  "PulseSequenceDetails": "%CustomerSeq%\\cmrr_mbep2d_bold",
  "ReceiveCoilActiveElements": "HC1-7;NC1,2",
  "ReceiveCoilName": "HeadNeck_64",
  "ReconMatrixPE": 104,
  "RepetitionTime": 1.49,
  "SAR": 0.0450854,
  "ScanOptions": "FS",
  "ScanningSequence": "EP",
  "SequenceName": "epfid2d1_104",
  "SequenceVariant": "SK\\SS",
  "SeriesDescription": "func_task-mariostars_run-01",
  "SeriesNumber": 12,
  "ShimSetting": [629, -7212, -8773, 686, 81, 10, 24, -14],
  "SliceThickness": 2,
  "SliceTiming": [0, 0.785, 0.0975, 0.8825, 0.1975, 0.98, 0.295, 1.0775, 0.3925, 1.175, 0.49, 1.275, 0.5875, 1.3725, 0.6875, 0, 0.785, 0.0975, 0.8825, 0.1975, 0.98, 0.295, 1.0775, 0.3925, 1.175, 0.49, 1.275, 0.5875, 1.3725, 0.6875, 0, 0.785, 0.0975, 0.8825, 0.1975, 0.98, 0.295, 1.0775, 0.3925, 1.175, 0.49, 1.275, 0.5875, 1.3725, 0.6875, 0, 0.785, 0.0975, 0.8825, 0.1975, 0.98, 0.295, 1.0775, 0.3925, 1.175, 0.49, 1.275, 0.5875, 1.3725, 0.6875],
  "SoftwareVersions": "syngo MR E11",
  "SpacingBetweenSlices": 2,
  "StationName": "MRC35049",
  "TaskName": "mariostars",
  "TotalReadoutTime": 0.0576811,
  "TxRefAmp": 228.902,
  "WipMemBlock": "d9212934-f3c1-4dfb-a94f-30b24b2f5d2f||Sequence: R016 ve11c/master r/e634e98; Dec 19 2017 11:00:25 by eja",
  "dcmmeta_affine": [
    [-1.9995301961898804, -0.04188420623540878, 0.011165463365614414, 110.90137481689453],
    [-0.0433468297123909, 1.9310946464538574, -0.5186466574668884, -72.1420669555664],
    [-8.076761878328398e-05, 0.5187668204307556, 1.931548833847046, -57.83139419555664],
    [0.0, 0.0, 0.0, 1.0]
],
  "dcmmeta_reorient_transform": [
    [0.0, -1.0, 0.0, 103.0],
    [1.0, 0.0, 0.0, 0.0],
    [0.0, 0.0, 1.0, 0.0],
    [0.0, 0.0, 0.0, 1.0]
],
  "dcmmeta_shape": [104, 104, 60, 486],
  "dcmmeta_slice_dim": 2,
  "dcmmeta_version": 0.6,
  "global": {
    "const": {
      "AcquisitionMatrix": [104, 0, 0, 104],
      "AngioFlag": "N",
      "BitsAllocated": 16,
      "BitsStored": 16,
      "BodyPartExamined": "BRAIN",
      "Columns": 832,
      "EchoNumbers": 1,
      "EchoTime": 37.0,
      "EchoTrainLength": 104,
      "FlipAngle": 52.0,
      "HighBit": 15,
      "ImageOrientationPatient": [0.99976510313573, 0.02167341507807, -4.03838107e-05, -0.020942102536, 0.96554734618626, -0.259383404662],
      "ImagePositionPatient": [-819.17044654387, -845.45740268101, 184.4621034686],
      "ImageType": [
        "ORIGINAL",
        "PRIMARY",
        "P",
        "MB",
        "ND",
        "MOSAIC"
],
      "ImagedNucleus": "1H",
      "ImagingFrequency": 123.258808,
      "InPlanePhaseEncodingDirection": "COL",
      "LargestImagePixelValue": 4095,
      "MRAcquisitionType": "2D",
      "MagneticFieldStrength": 3.0,
      "Manufacturer": "SIEMENS",
      "ManufacturerModelName": "Prisma_fit",
      "Modality": "MR",
      "NumberOfAverages": 1.0,
      "NumberOfPhaseEncodingSteps": 104,
      "PercentPhaseFieldOfView": 100.0,
      "PercentSampling": 100.0,
      "PerformedProcedureStepStartTime": "140036.876000",
      "PhotometricInterpretation": "MONOCHROME2",
      "PixelBandwidth": 2290.0,
      "PixelRepresentation": 0,
      "PixelSpacing": [2.0, 2.0],
      "ProtocolName": "func_task-mariostars_run-01",
      "RepetitionTime": 1490.0,
      "RescaleIntercept": -4096.0,
      "RescaleSlope": 2.0,
      "RescaleType": "US",
      "Rows": 832,
      "SAR": 0.04508538933373,
      "SamplesPerPixel": 1,
      "ScanOptions": "FS",
      "ScanningSequence": "EP",
      "SequenceName": "epfid2d1_104",
      "SequenceVariant": [
        "SK",
        "SS"
],
      "SeriesDescription": "func_task-mariostars_run-01",
      "SeriesNumber": 12,
      "SeriesTime": "140505.120000",
      "SliceLocation": -36.524830819163,
      "SliceThickness": 2.0,
      "SmallestImagePixelValue": 0,
      "SoftwareVersions": "syngo MR E11",
      "SpacingBetweenSlices": 1.9999999883706,
      "SpecificCharacterSet": "ISO_IR 100",
      "StudyID": "1",
      "StudyTime": "140036.787000",
      "TransmitCoilName": "Body",
      "VariableFlipAngleFlag": "N",
      "WindowCenterWidthExplanation": "Algo1",
      "dBdt": 0.0},
    "slices": {}
  },
  "time": {
    "samples": {
      "AcquisitionNumber": [1, 2, 3, 4, 5, 6, 7, 8, 9, 10, 11, 12, 13, 14, 15, 16, 17, 18, 19, 20, 21, 22, 23, 24, 25, 26, 27, 28, 29, 30, 31, 32, 33, 34, 35, 36, 37, 38, 39, 40, 41, 42, 43, 44, 45, 46, 47, 48, 49, 50, 51, 52, 53, 54, 55, 56, 57, 58, 59, 60, 61, 62, 63, 64, 65, 66, 67, 68, 69, 70, 71, 72, 73, 74, 75, 76, 77, 78, 79, 80, 81, 82, 83, 84, 85, 86, 87, 88, 89, 90, 91, 92, 93, 94, 95, 96, 97, 98, 99, 100, 101, 102, 103, 104, 105, 106, 107, 108, 109, 110, 111, 112, 113, 114, 115, 116, 117, 118, 119, 120, 121, 122, 123, 124, 125, 126, 127, 128, 129, 130, 131, 132, 133, 134, 135, 136, 137, 138, 139, 140, 141, 142, 143, 144, 145, 146, 147, 148, 149, 150, 151, 152, 153, 154, 155, 156, 157, 158, 159, 160, 161, 162, 163, 164, 165, 166, 167, 168, 169, 170, 171, 172, 173, 174, 175, 176, 177, 178, 179, 180, 181, 182, 183, 184, 185, 186, 187, 188, 189, 190, 191, 192, 193, 194, 195, 196, 197, 198, 199, 200, 201, 202, 203, 204, 205, 206, 207, 208, 209, 210, 211, 212, 213, 214, 215, 216, 217, 218, 219, 220, 221, 222, 223, 224, 225, 226, 227, 228, 229, 230, 231, 232, 233, 234, 235, 236, 237, 238, 239, 240, 241, 242, 243, 244, 245, 246, 247, 248, 249, 250, 251, 252, 253, 254, 255, 256, 257, 258, 259, 260, 261, 262, 263, 264, 265, 266, 267, 268, 269, 270, 271, 272, 273, 274, 275, 276, 277, 278, 279, 280, 281, 282, 283, 284, 285, 286, 287, 288, 289, 290, 291, 292, 293, 294, 295, 296, 297, 298, 299, 300, 301, 302, 303, 304, 305, 306, 307, 308, 309, 310, 311, 312, 313, 314, 315, 316, 317, 318, 319, 320, 321, 322, 323, 324, 325, 326, 327, 328, 329, 330, 331, 332, 333, 334, 335, 336, 337, 338, 339, 340, 341, 342, 343, 344, 345, 346, 347, 348, 349, 350, 351, 352, 353, 354, 355, 356, 357, 358, 359, 360, 361, 362, 363, 364, 365, 366, 367, 368, 369, 370, 371, 372, 373, 374, 375, 376, 377, 378, 379, 380, 381, 382, 383, 384, 385, 386, 387, 388, 389, 390, 391, 392, 393, 394, 395, 396, 397, 398, 399, 400, 401, 402, 403, 404, 405, 406, 407, 408, 409, 410, 411, 412, 413, 414, 415, 416, 417, 418, 419, 420, 421, 422, 423, 424, 425, 426, 427, 428, 429, 430, 431, 432, 433, 434, 435, 436, 437, 438, 439, 440, 441, 442, 443, 444, 445, 446, 447, 448, 449, 450, 451, 452, 453, 454, 455, 456, 457, 458, 459, 460, 461, 462, 463, 464, 465, 466, 467, 468, 469, 470, 471, 472, 473, 474, 475, 476, 477, 478, 479, 480, 481, 482, 483, 484, 485, 486],
      "AcquisitionTime": ["140331.945000", "140333.435000", "140334.925000", "140336.415000", "140337.905000", "140339.395000", "140340.885000", "140342.375000", "140343.865000", "140345.355000", "140346.845000", "140348.335000", "140349.825000", "140351.315000", "140352.805000", "140354.295000", "140355.785000", "140357.275000", "140358.765000", "140400.255000", "140401.745000", "140403.235000", "140404.725000", "140406.215000", "140407.705000", "140409.195000", "140410.685000", "140412.175000", "140413.665000", "140415.155000", "140416.645000", "140418.135000", "140419.625000", "140421.115000", "140422.605000", "140424.095000", "140425.585000", "140427.075000", "140428.565000", "140430.055000", "140431.545000", "140433.035000", "140434.525000", "140436.015000", "140437.505000", "140438.995000", "140440.485000", "140441.975000", "140443.465000", "140444.955000", "140446.445000", "140447.935000", "140449.425000", "140450.915000", "140452.405000", "140453.895000", "140455.385000", "140456.875000", "140458.365000", "140459.855000", "140501.345000", "140502.835000", "140504.325000", "140505.815000", "140507.305000", "140508.795000", "140510.285000", "140511.775000", "140513.265000", "140514.755000", "140516.245000", "140517.735000", "140519.225000", "140520.715000", "140522.205000", "140523.695000", "140525.185000", "140526.675000", "140528.165000", "140529.655000", "140531.145000", "140532.635000", "140534.125000", "140535.615000", "140537.105000", "140538.595000", "140540.085000", "140541.575000", "140543.065000", "140544.555000", "140546.045000", "140547.535000", "140549.025000", "140550.515000", "140552.005000", "140553.495000", "140554.985000", "140556.475000", "140557.965000", "140559.455000", "140600.945000", "140602.435000", "140603.925000", "140605.415000", "140606.905000", "140608.395000", "140609.885000", "140611.375000", "140612.865000", "140614.355000", "140615.845000", "140617.335000", "140618.825000", "140620.315000", "140621.805000", "140623.295000", "140624.785000", "140626.275000", "140627.765000", "140629.255000", "140630.745000", "140632.235000", "140633.725000", "140635.215000", "140636.705000", "140638.195000", "140639.685000", "140641.175000", "140642.665000", "140644.155000", "140645.645000", "140647.135000", "140648.625000", "140650.115000", "140651.605000", "140653.095000", "140654.585000", "140656.075000", "140657.565000", "140659.055000", "140700.545000", "140702.035000", "140703.525000", "140705.015000", "140706.505000", "140707.995000", "140709.485000", "140710.975000", "140712.465000", "140713.955000", "140715.445000", "140716.935000", "140718.425000", "140719.915000", "140721.405000", "140722.895000", "140724.385000", "140725.875000", "140727.365000", "140728.855000", "140730.345000", "140731.835000", "140733.325000", "140734.815000", "140736.305000", "140737.795000", "140739.285000", "140740.775000", "140742.265000", "140743.755000", "140745.245000", "140746.735000", "140748.225000", "140749.715000", "140751.205000", "140752.695000", "140754.185000", "140755.675000", "140757.165000", "140758.655000", "140800.145000", "140801.635000", "140803.125000", "140804.615000", "140806.105000", "140807.595000", "140809.085000", "140810.575000", "140812.065000", "140813.555000", "140815.045000", "140816.535000", "140818.025000", "140819.515000", "140821.005000", "140822.495000", "140823.985000", "140825.475000", "140826.965000", "140828.455000", "140829.945000", "140831.435000", "140832.925000", "140834.415000", "140835.905000", "140837.395000", "140838.885000", "140840.375000", "140841.865000", "140843.355000", "140844.845000", "140846.335000", "140847.825000", "140849.315000", "140850.805000", "140852.295000", "140853.785000", "140855.275000", "140856.765000", "140858.255000", "140859.745000", "140901.235000", "140902.725000", "140904.215000", "140905.705000", "140907.195000", "140908.685000", "140910.175000", "140911.665000", "140913.155000", "140914.645000", "140916.135000", "140917.625000", "140919.115000", "140920.605000", "140922.095000", "140923.585000", "140925.075000", "140926.565000", "140928.055000", "140929.545000", "140931.035000", "140932.525000", "140934.015000", "140935.505000", "140936.995000", "140938.485000", "140939.975000", "140941.465000", "140942.955000", "140944.445000", "140945.935000", "140947.425000", "140948.915000", "140950.405000", "140951.895000", "140953.385000", "140954.875000", "140956.365000", "140957.855000", "140959.345000", "141000.835000", "141002.325000", "141003.815000", "141005.305000", "141006.795000", "141008.285000", "141009.775000", "141011.265000", "141012.755000", "141014.245000", "141015.735000", "141017.225000", "141018.715000", "141020.205000", "141021.695000", "141023.185000", "141024.675000", "141026.165000", "141027.655000", "141029.145000", "141030.635000", "141032.125000", "141033.615000", "141035.105000", "141036.595000", "141038.085000", "141039.575000", "141041.065000", "141042.555000", "141044.045000", "141045.535000", "141047.025000", "141048.515000", "141050.005000", "141051.495000", "141052.985000", "141054.475000", "141055.965000", "141057.455000", "141058.945000", "141100.435000", "141101.925000", "141103.415000", "141104.905000", "141106.395000", "141107.885000", "141109.375000", "141110.865000", "141112.355000", "141113.845000", "141115.335000", "141116.825000", "141118.315000", "141119.805000", "141121.295000", "141122.785000", "141124.275000", "141125.765000", "141127.255000", "141128.745000", "141130.235000", "141131.725000", "141133.215000", "141134.705000", "141136.195000", "141137.685000", "141139.175000", "141140.665000", "141142.155000", "141143.645000", "141145.135000", "141146.625000", "141148.115000", "141149.605000", "141151.095000", "141152.585000", "141154.075000", "141155.565000", "141157.055000", "141158.545000", "141200.035000", "141201.525000", "141203.015000", "141204.505000", "141205.995000", "141207.485000", "141208.975000", "141210.465000", "141211.955000", "141213.445000", "141214.935000", "141216.425000", "141217.915000", "141219.405000", "141220.895000", "141222.385000", "141223.875000", "141225.365000", "141226.855000", "141228.345000", "141229.835000", "141231.325000", "141232.815000", "141234.305000", "141235.795000", "141237.285000", "141238.775000", "141240.265000", "141241.755000", "141243.245000", "141244.735000", "141246.225000", "141247.715000", "141249.205000", "141250.695000", "141252.185000", "141253.675000", "141255.165000", "141256.655000", "141258.145000", "141259.635000", "141301.125000", "141302.615000", "141304.105000", "141305.595000", "141307.085000", "141308.575000", "141310.065000", "141311.555000", "141313.045000", "141314.535000", "141316.025000", "141317.515000", "141319.005000", "141320.495000", "141321.985000", "141323.475000", "141324.965000", "141326.455000", "141327.945000", "141329.435000", "141330.925000", "141332.415000", "141333.905000", "141335.395000", "141336.885000", "141338.375000", "141339.865000", "141341.355000", "141342.845000", "141344.335000", "141345.825000", "141347.315000", "141348.805000", "141350.295000", "141351.785000", "141353.275000", "141354.765000", "141356.255000", "141357.745000", "141359.235000", "141400.725000", "141402.215000", "141403.705000", "141405.195000", "141406.685000", "141408.175000", "141409.665000", "141411.155000", "141412.645000", "141414.135000", "141415.625000", "141417.115000", "141418.605000", "141420.095000", "141421.585000", "141423.075000", "141424.565000", "141426.055000", "141427.545000", "141429.035000", "141430.525000", "141432.015000", "141433.505000", "141434.995000", "141436.485000", "141437.975000", "141439.465000", "141440.955000", "141442.445000", "141443.935000", "141445.425000", "141446.915000", "141448.405000", "141449.895000", "141451.385000", "141452.875000", "141454.365000", "141455.855000", "141457.345000", "141458.835000", "141500.325000", "141501.815000", "141503.305000", "141504.795000", "141506.285000", "141507.775000", "141509.265000", "141510.755000", "141512.245000", "141513.735000", "141515.225000", "141516.715000", "141518.205000", "141519.695000", "141521.185000", "141522.675000", "141524.165000", "141525.655000", "141527.145000", "141528.635000", "141530.125000", "141531.615000", "141533.105000", "141534.595000"],
      "ContentTime": ["140505.122000", "140505.125000", "140505.128000", "140505.130000", "140505.133000", "140505.135000", "140505.138000", "140505.140000", "140505.143000", "140505.146000", "140505.148000", "140505.151000", "140505.168000", "140505.171000", "140505.173000", "140505.176000", "140505.178000", "140505.181000", "140505.183000", "140505.186000", "140505.189000", "140505.191000", "140505.194000", "140505.196000", "140505.199000", "140505.201000", "140505.204000", "140505.206000", "140505.209000", "140505.211000", "140505.219000", "140505.222000", "140505.225000", "140505.227000", "140505.231000", "140505.234000", "140505.237000", "140505.240000", "140505.243000", "140525.010000", "140525.013000", "140525.016000", "140525.018000", "140525.021000", "140525.023000", "140525.026000", "140525.028000", "140525.031000", "140525.033000", "140525.036000", "140525.038000", "140525.041000", "140525.043000", "140525.046000", "140525.048000", "140525.050000", "140525.053000", "140525.056000", "140525.058000", "140545.010000", "140545.013000", "140545.016000", "140545.019000", "140545.021000", "140545.024000", "140545.027000", "140545.029000", "140545.032000", "140545.034000", "140545.037000", "140545.039000", "140545.041000", "140545.044000", "140545.046000", "140545.049000", "140545.051000", "140545.054000", "140545.056000", "140545.059000", "140605.043000", "140605.046000", "140605.048000", "140605.051000", "140605.053000", "140605.056000", "140605.058000", "140605.061000", "140605.063000", "140605.066000", "140605.068000", "140605.071000", "140605.073000", "140605.076000", "140605.078000", "140605.081000", "140605.083000", "140605.086000", "140605.088000", "140605.091000", "140645.046000", "140645.049000", "140645.051000", "140645.059000", "140645.062000", "140645.064000", "140645.067000", "140645.069000", "140645.080000", "140645.082000", "140645.085000", "140645.087000", "140645.090000", "140645.092000", "140645.095000", "140645.097000", "140645.100000", "140645.102000", "140645.105000", "140645.107000", "140645.110000", "140645.113000", "140645.115000", "140645.118000", "140645.120000", "140645.123000", "140645.125000", "140645.128000", "140645.130000", "140725.060000", "140725.063000", "140725.065000", "140725.068000", "140725.070000", "140725.073000", "140725.075000", "140725.078000", "140725.080000", "140725.083000", "140725.085000", "140725.088000", "140725.090000", "140725.093000", "140725.095000", "140725.098000", "140725.100000", "140725.103000", "140725.106000", "140725.108000", "140725.111000", "140725.114000", "140725.117000", "140725.119000", "140725.122000", "140725.124000", "140725.127000", "140805.045000", "140805.047000", "140805.050000", "140805.052000", "140805.055000", "140805.061000", "140805.064000", "140805.066000", "140805.069000", "140805.072000", "140805.074000", "140805.077000", "140805.079000", "140805.082000", "140805.084000", "140805.087000", "140805.089000", "140805.092000", "140805.094000", "140805.097000", "140805.099000", "140805.102000", "140805.105000", "140805.107000", "140805.109000", "140805.112000", "140805.115000", "140845.035000", "140845.038000", "140845.040000", "140845.043000", "140845.045000", "140845.048000", "140845.050000", "140845.053000", "140845.055000", "140845.058000", "140845.060000", "140845.063000", "140845.065000", "140845.068000", "140845.070000", "140845.073000", "140845.075000", "140845.078000", "140845.080000", "140845.083000", "140845.085000", "140845.088000", "140845.090000", "140845.092000", "140845.095000", "140845.098000", "140845.100000", "140925.037000", "140925.040000", "140925.042000", "140925.045000", "140925.047000", "140925.050000", "140925.052000", "140925.055000", "140925.057000", "140925.060000", "140925.062000", "140925.065000", "140925.067000", "140925.070000", "140925.072000", "140925.075000", "140925.077000", "140925.080000", "140925.082000", "140925.085000", "140925.087000", "140925.090000", "140925.092000", "140925.095000", "140925.097000", "140925.100000", "140925.102000", "141005.034000", "141005.037000", "141005.040000", "141005.042000", "141005.044000", "141005.047000", "141005.049000", "141005.052000", "141005.054000", "141005.057000", "141005.059000", "141005.062000", "141005.064000", "141005.067000", "141005.069000", "141005.072000", "141005.074000", "141005.077000", "141005.079000", "141005.082000", "141005.084000", "141005.087000", "141005.089000", "141005.092000", "141005.094000", "141005.097000", "141005.100000", "141045.510000", "141045.513000", "141045.515000", "141045.518000", "141045.520000", "141045.523000", "141045.525000", "141045.528000", "141045.530000", "141045.533000", "141045.535000", "141045.538000", "141045.540000", "141045.543000", "141045.545000", "141045.548000", "141045.550000", "141045.552000", "141045.555000", "141045.557000", "141045.560000", "141045.562000", "141045.565000", "141045.567000", "141045.570000", "141045.572000", "141125.033000", "141125.036000", "141125.038000", "141125.041000", "141125.043000", "141125.046000", "141125.048000", "141125.051000", "141125.053000", "141125.056000", "141125.059000", "141125.061000", "141125.064000", "141125.066000", "141125.069000", "141125.071000", "141125.074000", "141125.076000", "141125.079000", "141125.081000", "141125.083000", "141125.086000", "141125.094000", "141125.097000", "141125.099000", "141125.102000", "141125.104000", "141205.036000", "141205.039000", "141205.041000", "141205.044000", "141205.046000", "141205.049000", "141205.051000", "141205.054000", "141205.056000", "141205.059000", "141205.061000", "141205.064000", "141205.066000", "141205.069000", "141205.071000", "141205.074000", "141205.076000", "141205.079000", "141205.081000", "141205.084000", "141205.086000", "141205.089000", "141205.091000", "141205.094000", "141205.096000", "141205.099000", "141205.101000", "141245.038000", "141245.040000", "141245.043000", "141245.045000", "141245.048000", "141245.054000", "141245.056000", "141245.059000", "141245.061000", "141245.064000", "141245.066000", "141245.069000", "141245.071000", "141245.074000", "141245.076000", "141245.079000", "141245.081000", "141245.084000", "141245.087000", "141245.089000", "141245.092000", "141245.094000", "141245.097000", "141245.099000", "141245.102000", "141245.104000", "141245.107000", "141325.028000", "141325.031000", "141325.033000", "141325.036000", "141325.038000", "141325.041000", "141325.043000", "141325.046000", "141325.048000", "141325.051000", "141325.053000", "141325.056000", "141325.058000", "141325.061000", "141325.063000", "141325.066000", "141325.068000", "141325.071000", "141325.073000", "141325.076000", "141325.084000", "141325.086000", "141325.089000", "141325.091000", "141325.094000", "141325.096000", "141325.098000", "141405.032000", "141405.034000", "141405.037000", "141405.039000", "141405.042000", "141405.044000", "141405.047000", "141405.049000", "141405.052000", "141405.054000", "141405.057000", "141405.060000", "141405.062000", "141405.065000", "141405.067000", "141405.070000", "141405.072000", "141405.075000", "141405.077000", "141405.080000", "141405.082000", "141405.085000", "141405.087000", "141405.090000", "141405.092000", "141405.095000", "141405.097000", "141445.046000", "141445.048000", "141445.051000", "141445.054000", "141445.056000", "141445.059000", "141445.061000", "141445.064000", "141445.066000", "141445.069000", "141445.071000", "141445.073000", "141445.076000", "141445.078000", "141445.081000", "141445.083000", "141445.086000", "141445.088000", "141445.091000", "141445.094000", "141445.096000", "141445.099000", "141445.101000", "141445.104000", "141445.106000", "141445.109000", "141445.111000", "141504.987000", "141504.990000", "141504.993000", "141504.995000", "141504.998000", "141505.000000", "141505.002000", "141505.005000", "141505.007000", "141505.010000", "141505.012000", "141505.015000", "141505.017000", "141537.490000", "141537.493000", "141537.495000", "141537.498000", "141537.500000", "141537.503000", "141537.506000", "141537.508000", "141537.511000", "141537.513000", "141537.515000", "141537.518000", "141537.520000", "141537.523000", "141537.525000", "141537.528000", "141537.530000", "141537.533000", "141537.535000", "141537.538000", "141537.540000", "141537.543000"],
