{
  "AcquisitionMatrixPE": 104,
  "AcquisitionNumber": 1,
  "AcquisitionTime": "14:03:31.945000",
  "BandwidthPerPixelPhaseEncode": 17.17,
  "BaseResolution": 104,
  "BodyPartExamined": "BRAIN",
  "CoilCombinationMethod": "Sum of Squares",
  "ConsistencyInfo": "N4_VE11C_LATEST_20160120",
  "ConversionSoftware": "dcm2niix",
  "ConversionSoftwareVersion": "v1.0.20211006",
  "DerivedVendorReportedEchoSpacing": 0.000560011,
  "DeviceSerialNumber": "167006",
  "DwellTime": 2.1e-06,
  "EchoTime": 0.037,
  "EchoTrainLength": 104,
  "EffectiveEchoSpacing": 0.000560011,
  "FlipAngle": 52,
  "HeudiconvVersion": "0.11.3.post9+gc939bf8",
  "ImageComments": "Unaliased MB4/PE3/LB",
  "ImageOrientationPatientDICOM": [0.999765, 0.0216734, -4.03838e-05, -0.0209421, 0.965547, -0.259383],
  "ImageOrientationText": "Tra>Cor(-15.0)>Sag(0.3)",
  "ImageType": [
    "ORIGINAL",
    "PRIMARY",
    "M",
    "MB",
    "ND",
    "MOSAIC"
],
  "ImagingFrequency": 123.259,
  "InPlanePhaseEncodingDirectionDICOM": "COL",
  "InstitutionAddress": "Chemin Queen-Mary 4565,Montreal,District,CA,H3W 1W5",
  "InstitutionName": "IUGM",
  "InstitutionalDepartmentName": "Department",
  "MRAcquisitionType": "2D",
  "MagneticFieldStrength": 3,
  "Manufacturer": "Siemens",
  "ManufacturersModelName": "Prisma_fit",
  "MatrixCoilMode": "SENSE",
  "Modality": "MR",
  "MultibandAccelerationFactor": 4,
  "PartialFourier": 1,
  "PatientPosition": "HFS",
  "PercentPhaseFOV": 100,
  "PercentSampling": 100,
  "PhaseEncodingDirection": "j",
  "PhaseEncodingSteps": 104,
  "PhaseResolution": 1,
  "PixelBandwidth": 2290,
  "ProcedureStepDescription": "games^mariostars",
  "ProtocolName": "func_task-mariostars_run-01",
  "PulseSequenceDetails": "%CustomerSeq%\\cmrr_mbep2d_bold",
  "ReceiveCoilActiveElements": "HC1-7;NC1,2",
  "ReceiveCoilName": "HeadNeck_64",
  "ReconMatrixPE": 104,
  "RepetitionTime": 1.49,
  "SAR": 0.0450854,
  "ScanOptions": "FS",
  "ScanningSequence": "EP",
  "SequenceName": "epfid2d1_104",
  "SequenceVariant": "SK\\SS",
  "SeriesDescription": "func_task-mariostars_run-01",
  "SeriesNumber": 11,
  "ShimSetting": [629, -7212, -8773, 686, 81, 10, 24, -14],
  "SliceThickness": 2,
  "SliceTiming": [0, 0.785, 0.0975, 0.8825, 0.1975, 0.98, 0.295, 1.0775, 0.3925, 1.175, 0.49, 1.275, 0.5875, 1.3725, 0.6875, 0, 0.785, 0.0975, 0.8825, 0.1975, 0.98, 0.295, 1.0775, 0.3925, 1.175, 0.49, 1.275, 0.5875, 1.3725, 0.6875, 0, 0.785, 0.0975, 0.8825, 0.1975, 0.98, 0.295, 1.0775, 0.3925, 1.175, 0.49, 1.275, 0.5875, 1.3725, 0.6875, 0, 0.785, 0.0975, 0.8825, 0.1975, 0.98, 0.295, 1.0775, 0.3925, 1.175, 0.49, 1.275, 0.5875, 1.3725, 0.6875],
  "SoftwareVersions": "syngo MR E11",
  "SpacingBetweenSlices": 2,
  "StationName": "MRC35049",
  "TaskName": "mariostars",
  "TotalReadoutTime": 0.0576811,
  "TxRefAmp": 228.902,
  "WipMemBlock": "d9212934-f3c1-4dfb-a94f-30b24b2f5d2f||Sequence: R016 ve11c/master r/e634e98; Dec 19 2017 11:00:25 by eja",
  "dcmmeta_affine": [
    [-1.9995301961898804, -0.04188420623540878, 0.011165463365614414, 110.90137481689453],
    [-0.0433468297123909, 1.9310946464538574, -0.5186466574668884, -72.1420669555664],
    [-8.076761878328398e-05, 0.5187668204307556, 1.931548833847046, -57.83139419555664],
    [0.0, 0.0, 0.0, 1.0]
],
  "dcmmeta_reorient_transform": [
    [0.0, -1.0, 0.0, 103.0],
    [1.0, 0.0, 0.0, 0.0],
    [0.0, 0.0, 1.0, 0.0],
    [0.0, 0.0, 0.0, 1.0]
],
  "dcmmeta_shape": [104, 104, 60, 486],
  "dcmmeta_slice_dim": 2,
  "dcmmeta_version": 0.6,
  "global": {
    "const": {
      "AcquisitionMatrix": [104, 0, 0, 104],
      "AngioFlag": "N",
      "BitsAllocated": 16,
      "BitsStored": 16,
      "BodyPartExamined": "BRAIN",
      "Columns": 832,
      "EchoNumbers": 1,
      "EchoTime": 37.0,
      "EchoTrainLength": 104,
      "FlipAngle": 52.0,
      "HighBit": 15,
      "ImageOrientationPatient": [0.99976510313573, 0.02167341507807, -4.03838107e-05, -0.020942102536, 0.96554734618626, -0.259383404662],
      "ImagePositionPatient": [-819.17044654387, -845.45740268101, 184.4621034686],
      "ImageType": [
        "ORIGINAL",
        "PRIMARY",
        "M",
        "MB",
        "ND",
        "MOSAIC"
],
      "ImagedNucleus": "1H",
      "ImagingFrequency": 123.258808,
      "InPlanePhaseEncodingDirection": "COL",
      "MRAcquisitionType": "2D",
      "MagneticFieldStrength": 3.0,
      "Manufacturer": "SIEMENS",
      "ManufacturerModelName": "Prisma_fit",
      "Modality": "MR",
      "NumberOfAverages": 1.0,
      "NumberOfPhaseEncodingSteps": 104,
      "PercentPhaseFieldOfView": 100.0,
      "PercentSampling": 100.0,
      "PerformedProcedureStepStartTime": "140036.876000",
      "PhotometricInterpretation": "MONOCHROME2",
      "PixelBandwidth": 2290.0,
      "PixelRepresentation": 0,
      "PixelSpacing": [2.0, 2.0],
      "ProtocolName": "func_task-mariostars_run-01",
      "RepetitionTime": 1490.0,
      "Rows": 832,
      "SAR": 0.04508538933373,
      "SamplesPerPixel": 1,
      "ScanOptions": "FS",
      "ScanningSequence": "EP",
      "SequenceName": "epfid2d1_104",
      "SequenceVariant": [
        "SK",
        "SS"
],
      "SeriesDescription": "func_task-mariostars_run-01",
      "SeriesNumber": 11,
      "SeriesTime": "140504.920000",
      "SliceLocation": -36.524830819163,
      "SliceThickness": 2.0,
      "SmallestImagePixelValue": 0,
      "SoftwareVersions": "syngo MR E11",
      "SpacingBetweenSlices": 1.9999999883706,
      "SpecificCharacterSet": "ISO_IR 100",
      "StudyID": "1",
      "StudyTime": "140036.787000",
      "TransmitCoilName": "Body",
      "VariableFlipAngleFlag": "N",
      "WindowCenterWidthExplanation": "Algo1",
      "dBdt": 0.0},
    "slices": {}
  },
  "time": {
    "samples": {
      "AcquisitionNumber": [1, 2, 3, 4, 5, 6, 7, 8, 9, 10, 11, 12, 13, 14, 15, 16, 17, 18, 19, 20, 21, 22, 23, 24, 25, 26, 27, 28, 29, 30, 31, 32, 33, 34, 35, 36, 37, 38, 39, 40, 41, 42, 43, 44, 45, 46, 47, 48, 49, 50, 51, 52, 53, 54, 55, 56, 57, 58, 59, 60, 61, 62, 63, 64, 65, 66, 67, 68, 69, 70, 71, 72, 73, 74, 75, 76, 77, 78, 79, 80, 81, 82, 83, 84, 85, 86, 87, 88, 89, 90, 91, 92, 93, 94, 95, 96, 97, 98, 99, 100, 101, 102, 103, 104, 105, 106, 107, 108, 109, 110, 111, 112, 113, 114, 115, 116, 117, 118, 119, 120, 121, 122, 123, 124, 125, 126, 127, 128, 129, 130, 131, 132, 133, 134, 135, 136, 137, 138, 139, 140, 141, 142, 143, 144, 145, 146, 147, 148, 149, 150, 151, 152, 153, 154, 155, 156, 157, 158, 159, 160, 161, 162, 163, 164, 165, 166, 167, 168, 169, 170, 171, 172, 173, 174, 175, 176, 177, 178, 179, 180, 181, 182, 183, 184, 185, 186, 187, 188, 189, 190, 191, 192, 193, 194, 195, 196, 197, 198, 199, 200, 201, 202, 203, 204, 205, 206, 207, 208, 209, 210, 211, 212, 213, 214, 215, 216, 217, 218, 219, 220, 221, 222, 223, 224, 225, 226, 227, 228, 229, 230, 231, 232, 233, 234, 235, 236, 237, 238, 239, 240, 241, 242, 243, 244, 245, 246, 247, 248, 249, 250, 251, 252, 253, 254, 255, 256, 257, 258, 259, 260, 261, 262, 263, 264, 265, 266, 267, 268, 269, 270, 271, 272, 273, 274, 275, 276, 277, 278, 279, 280, 281, 282, 283, 284, 285, 286, 287, 288, 289, 290, 291, 292, 293, 294, 295, 296, 297, 298, 299, 300, 301, 302, 303, 304, 305, 306, 307, 308, 309, 310, 311, 312, 313, 314, 315, 316, 317, 318, 319, 320, 321, 322, 323, 324, 325, 326, 327, 328, 329, 330, 331, 332, 333, 334, 335, 336, 337, 338, 339, 340, 341, 342, 343, 344, 345, 346, 347, 348, 349, 350, 351, 352, 353, 354, 355, 356, 357, 358, 359, 360, 361, 362, 363, 364, 365, 366, 367, 368, 369, 370, 371, 372, 373, 374, 375, 376, 377, 378, 379, 380, 381, 382, 383, 384, 385, 386, 387, 388, 389, 390, 391, 392, 393, 394, 395, 396, 397, 398, 399, 400, 401, 402, 403, 404, 405, 406, 407, 408, 409, 410, 411, 412, 413, 414, 415, 416, 417, 418, 419, 420, 421, 422, 423, 424, 425, 426, 427, 428, 429, 430, 431, 432, 433, 434, 435, 436, 437, 438, 439, 440, 441, 442, 443, 444, 445, 446, 447, 448, 449, 450, 451, 452, 453, 454, 455, 456, 457, 458, 459, 460, 461, 462, 463, 464, 465, 466, 467, 468, 469, 470, 471, 472, 473, 474, 475, 476, 477, 478, 479, 480, 481, 482, 483, 484, 485, 486],
      "AcquisitionTime": ["140331.945000", "140333.435000", "140334.925000", "140336.415000", "140337.905000", "140339.395000", "140340.885000", "140342.375000", "140343.865000", "140345.355000", "140346.845000", "140348.335000", "140349.825000", "140351.315000", "140352.805000", "140354.295000", "140355.785000", "140357.275000", "140358.765000", "140400.255000", "140401.745000", "140403.235000", "140404.725000", "140406.215000", "140407.705000", "140409.195000", "140410.685000", "140412.175000", "140413.665000", "140415.155000", "140416.645000", "140418.135000", "140419.625000", "140421.115000", "140422.605000", "140424.095000", "140425.585000", "140427.075000", "140428.565000", "140430.055000", "140431.545000", "140433.035000", "140434.525000", "140436.015000", "140437.505000", "140438.995000", "140440.485000", "140441.975000", "140443.465000", "140444.955000", "140446.445000", "140447.935000", "140449.425000", "140450.915000", "140452.405000", "140453.895000", "140455.385000", "140456.875000", "140458.365000", "140459.855000", "140501.345000", "140502.835000", "140504.325000", "140505.815000", "140507.305000", "140508.795000", "140510.285000", "140511.775000", "140513.265000", "140514.755000", "140516.245000", "140517.735000", "140519.225000", "140520.715000", "140522.205000", "140523.695000", "140525.185000", "140526.675000", "140528.165000", "140529.655000", "140531.145000", "140532.635000", "140534.125000", "140535.615000", "140537.105000", "140538.595000", "140540.085000", "140541.575000", "140543.065000", "140544.555000", "140546.045000", "140547.535000", "140549.025000", "140550.515000", "140552.005000", "140553.495000", "140554.985000", "140556.475000", "140557.965000", "140559.455000", "140600.945000", "140602.435000", "140603.925000", "140605.415000", "140606.905000", "140608.395000", "140609.885000", "140611.375000", "140612.865000", "140614.355000", "140615.845000", "140617.335000", "140618.825000", "140620.315000", "140621.805000", "140623.295000", "140624.785000", "140626.275000", "140627.765000", "140629.255000", "140630.745000", "140632.235000", "140633.725000", "140635.215000", "140636.705000", "140638.195000", "140639.685000", "140641.175000", "140642.665000", "140644.155000", "140645.645000", "140647.135000", "140648.625000", "140650.115000", "140651.605000", "140653.095000", "140654.585000", "140656.075000", "140657.565000", "140659.055000", "140700.545000", "140702.035000", "140703.525000", "140705.015000", "140706.505000", "140707.995000", "140709.485000", "140710.975000", "140712.465000", "140713.955000", "140715.445000", "140716.935000", "140718.425000", "140719.915000", "140721.405000", "140722.895000", "140724.385000", "140725.875000", "140727.365000", "140728.855000", "140730.345000", "140731.835000", "140733.325000", "140734.815000", "140736.305000", "140737.795000", "140739.285000", "140740.775000", "140742.265000", "140743.755000", "140745.245000", "140746.735000", "140748.225000", "140749.715000", "140751.205000", "140752.695000", "140754.185000", "140755.675000", "140757.165000", "140758.655000", "140800.145000", "140801.635000", "140803.125000", "140804.615000", "140806.105000", "140807.595000", "140809.085000", "140810.575000", "140812.065000", "140813.555000", "140815.045000", "140816.535000", "140818.025000", "140819.515000", "140821.005000", "140822.495000", "140823.985000", "140825.475000", "140826.965000", "140828.455000", "140829.945000", "140831.435000", "140832.925000", "140834.415000", "140835.905000", "140837.395000", "140838.885000", "140840.375000", "140841.865000", "140843.355000", "140844.845000", "140846.335000", "140847.825000", "140849.315000", "140850.805000", "140852.295000", "140853.785000", "140855.275000", "140856.765000", "140858.255000", "140859.745000", "140901.235000", "140902.725000", "140904.215000", "140905.705000", "140907.195000", "140908.685000", "140910.175000", "140911.665000", "140913.155000", "140914.645000", "140916.135000", "140917.625000", "140919.115000", "140920.605000", "140922.095000", "140923.585000", "140925.075000", "140926.565000", "140928.055000", "140929.545000", "140931.035000", "140932.525000", "140934.015000", "140935.505000", "140936.995000", "140938.485000", "140939.975000", "140941.465000", "140942.955000", "140944.445000", "140945.935000", "140947.425000", "140948.915000", "140950.405000", "140951.895000", "140953.385000", "140954.875000", "140956.365000", "140957.855000", "140959.345000", "141000.835000", "141002.325000", "141003.815000", "141005.305000", "141006.795000", "141008.285000", "141009.775000", "141011.265000", "141012.755000", "141014.245000", "141015.735000", "141017.225000", "141018.715000", "141020.205000", "141021.695000", "141023.185000", "141024.675000", "141026.165000", "141027.655000", "141029.145000", "141030.635000", "141032.125000", "141033.615000", "141035.105000", "141036.595000", "141038.085000", "141039.575000", "141041.065000", "141042.555000", "141044.045000", "141045.535000", "141047.025000", "141048.515000", "141050.005000", "141051.495000", "141052.985000", "141054.475000", "141055.965000", "141057.455000", "141058.945000", "141100.435000", "141101.925000", "141103.415000", "141104.905000", "141106.395000", "141107.885000", "141109.375000", "141110.865000", "141112.355000", "141113.845000", "141115.335000", "141116.825000", "141118.315000", "141119.805000", "141121.295000", "141122.785000", "141124.275000", "141125.765000", "141127.255000", "141128.745000", "141130.235000", "141131.725000", "141133.215000", "141134.705000", "141136.195000", "141137.685000", "141139.175000", "141140.665000", "141142.155000", "141143.645000", "141145.135000", "141146.625000", "141148.115000", "141149.605000", "141151.095000", "141152.585000", "141154.075000", "141155.565000", "141157.055000", "141158.545000", "141200.035000", "141201.525000", "141203.015000", "141204.505000", "141205.995000", "141207.485000", "141208.975000", "141210.465000", "141211.955000", "141213.445000", "141214.935000", "141216.425000", "141217.915000", "141219.405000", "141220.895000", "141222.385000", "141223.875000", "141225.365000", "141226.855000", "141228.345000", "141229.835000", "141231.325000", "141232.815000", "141234.305000", "141235.795000", "141237.285000", "141238.775000", "141240.265000", "141241.755000", "141243.245000", "141244.735000", "141246.225000", "141247.715000", "141249.205000", "141250.695000", "141252.185000", "141253.675000", "141255.165000", "141256.655000", "141258.145000", "141259.635000", "141301.125000", "141302.615000", "141304.105000", "141305.595000", "141307.085000", "141308.575000", "141310.065000", "141311.555000", "141313.045000", "141314.535000", "141316.025000", "141317.515000", "141319.005000", "141320.495000", "141321.985000", "141323.475000", "141324.965000", "141326.455000", "141327.945000", "141329.435000", "141330.925000", "141332.415000", "141333.905000", "141335.395000", "141336.885000", "141338.375000", "141339.865000", "141341.355000", "141342.845000", "141344.335000", "141345.825000", "141347.315000", "141348.805000", "141350.295000", "141351.785000", "141353.275000", "141354.765000", "141356.255000", "141357.745000", "141359.235000", "141400.725000", "141402.215000", "141403.705000", "141405.195000", "141406.685000", "141408.175000", "141409.665000", "141411.155000", "141412.645000", "141414.135000", "141415.625000", "141417.115000", "141418.605000", "141420.095000", "141421.585000", "141423.075000", "141424.565000", "141426.055000", "141427.545000", "141429.035000", "141430.525000", "141432.015000", "141433.505000", "141434.995000", "141436.485000", "141437.975000", "141439.465000", "141440.955000", "141442.445000", "141443.935000", "141445.425000", "141446.915000", "141448.405000", "141449.895000", "141451.385000", "141452.875000", "141454.365000", "141455.855000", "141457.345000", "141458.835000", "141500.325000", "141501.815000", "141503.305000", "141504.795000", "141506.285000", "141507.775000", "141509.265000", "141510.755000", "141512.245000", "141513.735000", "141515.225000", "141516.715000", "141518.205000", "141519.695000", "141521.185000", "141522.675000", "141524.165000", "141525.655000", "141527.145000", "141528.635000", "141530.125000", "141531.615000", "141533.105000", "141534.595000"],
      "ContentTime": ["140504.924000", "140504.928000", "140504.931000", "140504.935000", "140504.938000", "140504.941000", "140504.948000", "140504.951000", "140504.954000", "140504.958000", "140504.961000", "140504.964000", "140504.968000", "140504.971000", "140504.974000", "140504.978000", "140504.981000", "140504.984000", "140504.994000", "140504.997000", "140505.001000", "140505.005000", "140505.008000", "140505.011000", "140505.014000", "140505.018000", "140505.021000", "140505.024000", "140505.028000", "140505.031000", "140505.034000", "140505.038000", "140505.041000", "140505.047000", "140505.051000", "140505.054000", "140505.058000", "140505.062000", "140505.065000", "140524.893000", "140524.897000", "140524.900000", "140524.903000", "140524.907000", "140524.910000", "140524.913000", "140524.924000", "140524.928000", "140524.931000", "140524.934000", "140524.937000", "140524.941000", "140524.952000", "140524.955000", "140524.958000", "140524.962000", "140524.965000", "140524.968000", "140524.972000", "140544.893000", "140544.897000", "140544.900000", "140544.903000", "140544.907000", "140544.910000", "140544.913000", "140544.917000", "140544.920000", "140544.923000", "140544.927000", "140544.930000", "140544.933000", "140544.936000", "140544.947000", "140544.950000", "140544.953000", "140544.957000", "140544.960000", "140544.963000", "140604.893000", "140604.897000", "140604.900000", "140604.903000", "140604.907000", "140604.910000", "140604.913000", "140604.916000", "140604.920000", "140604.923000", "140604.926000", "140604.930000", "140604.934000", "140604.937000", "140604.940000", "140604.944000", "140604.954000", "140604.958000", "140604.962000", "140604.965000", "140644.892000", "140644.896000", "140644.899000", "140644.902000", "140644.906000", "140644.909000", "140644.912000", "140644.916000", "140644.919000", "140644.922000", "140644.925000", "140644.929000", "140644.932000", "140644.935000", "140644.939000", "140644.947000", "140644.950000", "140644.954000", "140644.957000", "140644.960000", "140644.964000", "140644.967000", "140644.970000", "140644.974000", "140644.977000", "140644.980000", "140644.984000", "140644.987000", "140644.990000", "140724.893000", "140724.910000", "140724.913000", "140724.917000", "140724.920000", "140724.923000", "140724.926000", "140724.930000", "140724.933000", "140724.937000", "140724.940000", "140724.943000", "140724.946000", "140724.950000", "140724.953000", "140724.956000", "140724.960000", "140724.963000", "140724.972000", "140724.975000", "140724.978000", "140724.982000", "140724.985000", "140724.989000", "140724.992000", "140724.995000", "140725.000000", "140804.893000", "140804.897000", "140804.900000", "140804.903000", "140804.907000", "140804.910000", "140804.914000", "140804.917000", "140804.921000", "140804.924000", "140804.927000", "140804.930000", "140804.934000", "140804.937000", "140804.940000", "140804.944000", "140804.947000", "140804.950000", "140804.953000", "140804.957000", "140804.960000", "140804.963000", "140804.967000", "140804.970000", "140804.973000", "140804.977000", "140804.980000", "140844.892000", "140844.896000", "140844.899000", "140844.902000", "140844.906000", "140844.909000", "140844.912000", "140844.916000", "140844.919000", "140844.922000", "140844.925000", "140844.929000", "140844.932000", "140844.935000", "140844.939000", "140844.942000", "140844.945000", "140844.948000", "140844.952000", "140844.955000", "140844.958000", "140844.962000", "140844.965000", "140844.968000", "140844.971000", "140844.975000", "140844.978000", "140924.892000", "140924.896000", "140924.899000", "140924.902000", "140924.906000", "140924.909000", "140924.912000", "140924.916000", "140924.919000", "140924.923000", "140924.926000", "140924.929000", "140924.944000", "140924.947000", "140924.950000", "140924.954000", "140924.957000", "140924.960000", "140924.964000", "140924.967000", "140924.971000", "140924.974000", "140924.977000", "140924.981000", "140924.984000", "140924.987000", "140924.990000", "141004.893000", "141004.897000", "141004.900000", "141004.903000", "141004.907000", "141004.910000", "141004.913000", "141004.917000", "141004.920000", "141004.923000", "141004.927000", "141004.930000", "141004.933000", "141004.937000", "141004.940000", "141004.943000", "141004.946000", "141004.950000", "141004.953000", "141004.956000", "141004.960000", "141004.963000", "141004.966000", "141004.969000", "141004.973000", "141004.976000", "141004.979000", "141044.893000", "141044.897000", "141044.900000", "141044.904000", "141044.908000", "141044.918000", "141044.922000", "141044.926000", "141044.929000", "141044.932000", "141044.936000", "141044.939000", "141044.942000", "141044.946000", "141044.949000", "141044.952000", "141044.956000", "141044.959000", "141044.962000", "141044.966000", "141044.969000", "141044.972000", "141044.976000", "141044.979000", "141044.982000", "141044.986000", "141124.892000", "141124.896000", "141124.899000", "141124.903000", "141124.906000", "141124.909000", "141124.913000", "141124.916000", "141124.919000", "141124.922000", "141124.926000", "141124.929000", "141124.932000", "141124.936000", "141124.939000", "141124.942000", "141124.946000", "141124.949000", "141124.952000", "141124.956000", "141124.959000", "141124.962000", "141124.966000", "141124.969000", "141124.972000", "141124.976000", "141124.979000", "141204.893000", "141204.897000", "141204.900000", "141204.904000", "141204.907000", "141204.910000", "141204.913000", "141204.917000", "141204.920000", "141204.923000", "141204.927000", "141204.930000", "141204.933000", "141204.937000", "141204.940000", "141204.943000", "141204.946000", "141204.950000", "141204.953000", "141204.956000", "141204.960000", "141204.963000", "141204.966000", "141204.969000", "141204.973000", "141204.976000", "141204.979000", "141244.893000", "141244.897000", "141244.900000", "141244.904000", "141244.907000", "141244.910000", "141244.914000", "141244.917000", "141244.920000", "141244.923000", "141244.927000", "141244.930000", "141244.933000", "141244.937000", "141244.940000", "141244.943000", "141244.947000", "141244.950000", "141244.953000", "141244.956000", "141244.960000", "141244.963000", "141244.966000", "141244.970000", "141244.973000", "141244.976000", "141244.979000", "141324.892000", "141324.896000", "141324.901000", "141324.904000", "141324.907000", "141324.911000", "141324.914000", "141324.917000", "141324.921000", "141324.924000", "141324.927000", "141324.931000", "141324.934000", "141324.937000", "141324.941000", "141324.944000", "141324.947000", "141324.950000", "141324.954000", "141324.957000", "141324.960000", "141324.964000", "141324.967000", "141324.970000", "141324.974000", "141324.977000", "141324.980000", "141404.892000", "141404.896000", "141404.906000", "141404.910000", "141404.913000", "141404.916000", "141404.927000", "141404.930000", "141404.933000", "141404.937000", "141404.940000", "141404.943000", "141404.947000", "141404.951000", "141404.954000", "141404.958000", "141404.961000", "141404.964000", "141404.968000", "141404.971000", "141404.974000", "141404.978000", "141404.981000", "141404.984000", "141404.987000", "141404.991000", "141404.994000", "141444.893000", "141444.897000", "141444.900000", "141444.903000", "141444.907000", "141444.910000", "141444.913000", "141444.917000", "141444.920000", "141444.923000", "141444.926000", "141444.930000", "141444.933000", "141444.936000", "141444.940000", "141444.943000", "141444.946000", "141444.950000", "141444.953000", "141444.956000", "141444.960000", "141444.963000", "141444.966000", "141444.969000", "141444.976000", "141444.979000", "141444.983000", "141504.893000", "141504.897000", "141504.900000", "141504.904000", "141504.907000", "141504.910000", "141504.914000", "141504.917000", "141504.920000", "141504.924000", "141504.930000", "141504.934000", "141504.937000", "141537.367000", "141537.371000", "141537.374000", "141537.378000", "141537.381000", "141537.384000", "141537.388000", "141537.391000", "141537.394000", "141537.397000", "141537.401000", "141537.404000", "141537.407000", "141537.411000", "141537.414000", "141537.417000", "141537.421000", "141537.424000", "141537.427000", "141537.434000", "141537.437000", "141537.440000"],
