{
  "AcquisitionMatrixPE": 104,
  "AcquisitionNumber": 1,
  "AcquisitionTime": "11:58:56.657500",
  "BandwidthPerPixelPhaseEncode": 17.17,
  "BaseResolution": 104,
  "BodyPartExamined": "BRAIN",
  "CoilCombinationMethod": "Sum of Squares",
  "ConsistencyInfo": "N4_VE11C_LATEST_20160120",
  "ConversionSoftware": "dcm2niix",
  "ConversionSoftwareVersion": "v1.0.20211006",
  "DerivedVendorReportedEchoSpacing": 0.000560011,
  "DeviceSerialNumber": "167006",
  "DwellTime": 2.1e-06,
  "EchoTime": 0.037,
  "EchoTrainLength": 104,
  "EffectiveEchoSpacing": 0.000560011,
  "FlipAngle": 52,
  "HeudiconvVersion": "0.11.3.post9+gc939bf8",
  "ImageComments": "Unaliased MB4/PE3/LB",
  "ImageOrientationPatientDICOM": [0.99893, -0.043328, 0.0161455, 0.0462348, 0.931584, -0.360575],
  "ImageOrientationText": "Tra>Cor(-21.2)>Sag(-0.0)",
  "ImageType": [
    "ORIGINAL",
    "PRIMARY",
    "M",
    "MB",
    "ND",
    "MOSAIC"
],
  "ImagingFrequency": 123.259,
  "InPlanePhaseEncodingDirectionDICOM": "COL",
  "InstitutionAddress": "Chemin Queen-Mary 4565,Montreal,District,CA,H3W 1W5",
  "InstitutionName": "IUGM",
  "InstitutionalDepartmentName": "Department",
  "MRAcquisitionType": "2D",
  "MagneticFieldStrength": 3,
  "Manufacturer": "Siemens",
  "ManufacturersModelName": "Prisma_fit",
  "MatrixCoilMode": "SENSE",
  "Modality": "MR",
  "MultibandAccelerationFactor": 4,
  "PartialFourier": 1,
  "PatientPosition": "HFS",
  "PercentPhaseFOV": 100,
  "PercentSampling": 100,
  "PhaseEncodingDirection": "j",
  "PhaseEncodingSteps": 104,
  "PhaseResolution": 1,
  "PixelBandwidth": 2290,
  "ProcedureStepDescription": "games^mariostars",
  "ProtocolName": "func_task-mariostars_run-03",
  "PulseSequenceDetails": "%CustomerSeq%\\cmrr_mbep2d_bold",
  "ReceiveCoilActiveElements": "HC1-7;NC1,2",
  "ReceiveCoilName": "HeadNeck_64",
  "ReconMatrixPE": 104,
  "RepetitionTime": 1.49,
  "SAR": 0.0389379,
  "ScanOptions": "FS",
  "ScanningSequence": "EP",
  "SequenceName": "epfid2d1_104",
  "SequenceVariant": "SK\\SS",
  "SeriesDescription": "func_task-mariostars_run-03",
  "SeriesNumber": 17,
  "ShimSetting": [627, -7267, -8803, 567, 25, -248, -77, -4],
  "SliceThickness": 2,
  "SliceTiming": [0, 0.785, 0.0975, 0.8825, 0.1975, 0.98, 0.295, 1.0775, 0.3925, 1.1775, 0.49, 1.275, 0.5875, 1.3725, 0.6875, 0, 0.785, 0.0975, 0.8825, 0.1975, 0.98, 0.295, 1.0775, 0.3925, 1.1775, 0.49, 1.275, 0.5875, 1.3725, 0.6875, 0, 0.785, 0.0975, 0.8825, 0.1975, 0.98, 0.295, 1.0775, 0.3925, 1.1775, 0.49, 1.275, 0.5875, 1.3725, 0.6875, 0, 0.785, 0.0975, 0.8825, 0.1975, 0.98, 0.295, 1.0775, 0.3925, 1.1775, 0.49, 1.275, 0.5875, 1.3725, 0.6875],
  "SoftwareVersions": "syngo MR E11",
  "SpacingBetweenSlices": 2,
  "StationName": "MRC35049",
  "TaskName": "mariostars",
  "TotalReadoutTime": 0.0576811,
  "TxRefAmp": 222.64,
  "WipMemBlock": "c0878140-de69-4cbb-8cbc-53226fb331dc||Sequence: R017 ve11c/master r/75a17815+; Jun 28 2022 16:32:11 by eja",
  "dcmmeta_affine": [
    [-1.9978609085083008, 0.09246952086687088, -0.0011641011806204915, 101.5215072631836],
    [0.08665594458580017, 1.863167405128479, -0.7218711376190186, -67.76447296142578],
    [0.03229108080267906, 0.7211494445800781, 1.8651812076568604, -62.98749542236328],
    [0.0, 0.0, 0.0, 1.0]
],
  "dcmmeta_reorient_transform": [
    [0.0, -1.0, 0.0, 103.0],
    [1.0, 0.0, 0.0, 0.0],
    [0.0, 0.0, 1.0, 0.0],
    [0.0, 0.0, 0.0, 1.0]
],
  "dcmmeta_shape": [104, 104, 60, 437],
  "dcmmeta_slice_dim": 2,
  "dcmmeta_version": 0.6,
  "global": {
    "const": {
      "AcquisitionMatrix": [104, 0, 0, 104],
      "AngioFlag": "N",
      "BitsAllocated": 16,
      "BitsStored": 16,
      "BodyPartExamined": "BRAIN",
      "Columns": 832,
      "EchoNumbers": 1,
      "EchoTime": 37.0,
      "EchoTrainLength": 104,
      "FlipAngle": 52.0,
      "HighBit": 15,
      "ImageOrientationPatient": [0.99893043215424, -0.0433279732648, 0.01614553959827, 0.04623475892974, 0.93158371125766, -0.3605747300992],
      "ImagePositionPatient": [-871.92612448487, -770.79194615974, 262.03534902424],
      "ImageType": [
        "ORIGINAL",
        "PRIMARY",
        "M",
        "MB",
        "ND",
        "MOSAIC"
],
      "ImagedNucleus": "1H",
      "ImagingFrequency": 123.258779,
      "InPlanePhaseEncodingDirection": "COL",
      "MRAcquisitionType": "2D",
      "MagneticFieldStrength": 3.0,
      "Manufacturer": "SIEMENS",
      "ManufacturerModelName": "Prisma_fit",
      "Modality": "MR",
      "NumberOfAverages": 1.0,
      "NumberOfPhaseEncodingSteps": 104,
      "PercentPhaseFieldOfView": 100.0,
      "PercentSampling": 100.0,
      "PerformedProcedureStepStartTime": "111552.016000",
      "PhotometricInterpretation": "MONOCHROME2",
      "PixelBandwidth": 2290.0,
      "PixelRepresentation": 0,
      "PixelSpacing": [2.0, 2.0],
      "ProtocolName": "func_task-mariostars_run-03",
      "RepetitionTime": 1490.0,
      "Rows": 832,
      "SAR": 0.03893785794091,
      "SamplesPerPixel": 1,
      "ScanOptions": "FS",
      "ScanningSequence": "EP",
      "SequenceName": "epfid2d1_104",
      "SequenceVariant": [
        "SK",
        "SS"
],
      "SeriesDescription": "func_task-mariostars_run-03",
      "SeriesNumber": 17,
      "SeriesTime": "115955.379000",
      "SliceLocation": -34.342027296527,
      "SliceThickness": 2.0,
      "SmallestImagePixelValue": 0,
      "SoftwareVersions": "syngo MR E11",
      "SpacingBetweenSlices": 2.0000000393793,
      "SpecificCharacterSet": "ISO_IR 100",
      "StudyID": "1",
      "StudyTime": "111551.960000",
      "TransmitCoilName": "Body",
      "VariableFlipAngleFlag": "N",
      "WindowCenterWidthExplanation": "Algo1",
      "dBdt": 0.0},
    "slices": {}
  },
  "time": {
    "samples": {
      "AcquisitionNumber": [1, 2, 3, 4, 5, 6, 7, 8, 9, 10, 11, 12, 13, 14, 15, 16, 17, 18, 19, 20, 21, 22, 23, 24, 25, 26, 27, 28, 29, 30, 31, 32, 33, 34, 35, 36, 37, 38, 39, 40, 41, 42, 43, 44, 45, 46, 47, 48, 49, 50, 51, 52, 53, 54, 55, 56, 57, 58, 59, 60, 61, 62, 63, 64, 65, 66, 67, 68, 69, 70, 71, 72, 73, 74, 75, 76, 77, 78, 79, 80, 81, 82, 83, 84, 85, 86, 87, 88, 89, 90, 91, 92, 93, 94, 95, 96, 97, 98, 99, 100, 101, 102, 103, 104, 105, 106, 107, 108, 109, 110, 111, 112, 113, 114, 115, 116, 117, 118, 119, 120, 121, 122, 123, 124, 125, 126, 127, 128, 129, 130, 131, 132, 133, 134, 135, 136, 137, 138, 139, 140, 141, 142, 143, 144, 145, 146, 147, 148, 149, 150, 151, 152, 153, 154, 155, 156, 157, 158, 159, 160, 161, 162, 163, 164, 165, 166, 167, 168, 169, 170, 171, 172, 173, 174, 175, 176, 177, 178, 179, 180, 181, 182, 183, 184, 185, 186, 187, 188, 189, 190, 191, 192, 193, 194, 195, 196, 197, 198, 199, 200, 201, 202, 203, 204, 205, 206, 207, 208, 209, 210, 211, 212, 213, 214, 215, 216, 217, 218, 219, 220, 221, 222, 223, 224, 225, 226, 227, 228, 229, 230, 231, 232, 233, 234, 235, 236, 237, 238, 239, 240, 241, 242, 243, 244, 245, 246, 247, 248, 249, 250, 251, 252, 253, 254, 255, 256, 257, 258, 259, 260, 261, 262, 263, 264, 265, 266, 267, 268, 269, 270, 271, 272, 273, 274, 275, 276, 277, 278, 279, 280, 281, 282, 283, 284, 285, 286, 287, 288, 289, 290, 291, 292, 293, 294, 295, 296, 297, 298, 299, 300, 301, 302, 303, 304, 305, 306, 307, 308, 309, 310, 311, 312, 313, 314, 315, 316, 317, 318, 319, 320, 321, 322, 323, 324, 325, 326, 327, 328, 329, 330, 331, 332, 333, 334, 335, 336, 337, 338, 339, 340, 341, 342, 343, 344, 345, 346, 347, 348, 349, 350, 351, 352, 353, 354, 355, 356, 357, 358, 359, 360, 361, 362, 363, 364, 365, 366, 367, 368, 369, 370, 371, 372, 373, 374, 375, 376, 377, 378, 379, 380, 381, 382, 383, 384, 385, 386, 387, 388, 389, 390, 391, 392, 393, 394, 395, 396, 397, 398, 399, 400, 401, 402, 403, 404, 405, 406, 407, 408, 409, 410, 411, 412, 413, 414, 415, 416, 417, 418, 419, 420, 421, 422, 423, 424, 425, 426, 427, 428, 429, 430, 431, 432, 433, 434, 435, 436, 437],
      "AcquisitionTime": ["115856.657500", "115858.147500", "115859.637500", "115901.127500", "115902.617500", "115904.107500", "115905.597500", "115907.087500", "115908.577500", "115910.067500", "115911.557500", "115913.047500", "115914.537500", "115916.027500", "115917.517500", "115919.007500", "115920.497500", "115921.987500", "115923.477500", "115924.967500", "115926.457500", "115927.947500", "115929.437500", "115930.927500", "115932.417500", "115933.907500", "115935.397500", "115936.887500", "115938.377500", "115939.867500", "115941.357500", "115942.847500", "115944.337500", "115945.827500", "115947.317500", "115948.807500", "115950.297500", "115951.787500", "115953.277500", "115954.767500", "115956.257500", "115957.747500", "115959.237500", "120000.727500", "120002.217500", "120003.707500", "120005.197500", "120006.687500", "120008.177500", "120009.667500", "120011.157500", "120012.647500", "120014.137500", "120015.627500", "120017.117500", "120018.607500", "120020.097500", "120021.587500", "120023.077500", "120024.567500", "120026.057500", "120027.547500", "120029.037500", "120030.527500", "120032.017500", "120033.507500", "120034.997500", "120036.487500", "120037.977500", "120039.467500", "120040.957500", "120042.447500", "120043.937500", "120045.427500", "120046.917500", "120048.407500", "120049.897500", "120051.387500", "120052.877500", "120054.367500", "120055.857500", "120057.347500", "120058.837500", "120100.327500", "120101.817500", "120103.307500", "120104.797500", "120106.287500", "120107.777500", "120109.267500", "120110.757500", "120112.247500", "120113.737500", "120115.227500", "120116.717500", "120118.207500", "120119.697500", "120121.187500", "120122.677500", "120124.167500", "120125.657500", "120127.147500", "120128.637500", "120130.127500", "120131.617500", "120133.107500", "120134.597500", "120136.087500", "120137.577500", "120139.067500", "120140.557500", "120142.047500", "120143.537500", "120145.027500", "120146.517500", "120148.007500", "120149.497500", "120150.987500", "120152.477500", "120153.967500", "120155.457500", "120156.947500", "120158.437500", "120159.927500", "120201.417500", "120202.907500", "120204.397500", "120205.887500", "120207.377500", "120208.867500", "120210.357500", "120211.847500", "120213.337500", "120214.827500", "120216.317500", "120217.807500", "120219.297500", "120220.787500", "120222.277500", "120223.767500", "120225.257500", "120226.747500", "120228.237500", "120229.727500", "120231.217500", "120232.707500", "120234.197500", "120235.687500", "120237.177500", "120238.667500", "120240.157500", "120241.647500", "120243.137500", "120244.627500", "120246.117500", "120247.607500", "120249.097500", "120250.587500", "120252.077500", "120253.567500", "120255.057500", "120256.547500", "120258.037500", "120259.527500", "120301.017500", "120302.507500", "120303.997500", "120305.487500", "120306.977500", "120308.467500", "120309.957500", "120311.447500", "120312.937500", "120314.427500", "120315.917500", "120317.407500", "120318.897500", "120320.387500", "120321.877500", "120323.367500", "120324.857500", "120326.347500", "120327.837500", "120329.327500", "120330.817500", "120332.307500", "120333.797500", "120335.287500", "120336.777500", "120338.267500", "120339.757500", "120341.247500", "120342.737500", "120344.227500", "120345.717500", "120347.207500", "120348.697500", "120350.187500", "120351.677500", "120353.167500", "120354.657500", "120356.147500", "120357.637500", "120359.127500", "120400.617500", "120402.107500", "120403.597500", "120405.087500", "120406.577500", "120408.067500", "120409.557500", "120411.047500", "120412.537500", "120414.027500", "120415.517500", "120417.007500", "120418.497500", "120419.987500", "120421.477500", "120422.967500", "120424.457500", "120425.947500", "120427.437500", "120428.927500", "120430.417500", "120431.907500", "120433.397500", "120434.887500", "120436.377500", "120437.867500", "120439.357500", "120440.847500", "120442.337500", "120443.827500", "120445.317500", "120446.807500", "120448.297500", "120449.787500", "120451.277500", "120452.767500", "120454.257500", "120455.747500", "120457.237500", "120458.727500", "120500.217500", "120501.707500", "120503.197500", "120504.687500", "120506.177500", "120507.667500", "120509.157500", "120510.647500", "120512.137500", "120513.627500", "120515.117500", "120516.607500", "120518.097500", "120519.587500", "120521.077500", "120522.567500", "120524.057500", "120525.547500", "120527.037500", "120528.527500", "120530.017500", "120531.507500", "120532.997500", "120534.487500", "120535.977500", "120537.467500", "120538.957500", "120540.447500", "120541.937500", "120543.427500", "120544.917500", "120546.407500", "120547.897500", "120549.387500", "120550.877500", "120552.367500", "120553.857500", "120555.347500", "120556.837500", "120558.327500", "120559.817500", "120601.307500", "120602.797500", "120604.287500", "120605.777500", "120607.267500", "120608.757500", "120610.247500", "120611.737500", "120613.227500", "120614.717500", "120616.207500", "120617.697500", "120619.187500", "120620.677500", "120622.167500", "120623.657500", "120625.147500", "120626.637500", "120628.127500", "120629.617500", "120631.107500", "120632.597500", "120634.087500", "120635.577500", "120637.067500", "120638.557500", "120640.047500", "120641.537500", "120643.027500", "120644.517500", "120646.007500", "120647.497500", "120648.987500", "120650.477500", "120651.967500", "120653.457500", "120654.947500", "120656.437500", "120657.927500", "120659.417500", "120700.907500", "120702.397500", "120703.887500", "120705.377500", "120706.867500", "120708.357500", "120709.847500", "120711.337500", "120712.827500", "120714.317500", "120715.807500", "120717.297500", "120718.787500", "120720.277500", "120721.767500", "120723.257500", "120724.747500", "120726.237500", "120727.727500", "120729.217500", "120730.707500", "120732.197500", "120733.687500", "120735.177500", "120736.667500", "120738.157500", "120739.647500", "120741.137500", "120742.627500", "120744.117500", "120745.607500", "120747.097500", "120748.587500", "120750.077500", "120751.567500", "120753.057500", "120754.547500", "120756.037500", "120757.527500", "120759.017500", "120800.507500", "120801.997500", "120803.487500", "120804.977500", "120806.467500", "120807.957500", "120809.447500", "120810.937500", "120812.427500", "120813.917500", "120815.407500", "120816.897500", "120818.387500", "120819.877500", "120821.367500", "120822.857500", "120824.347500", "120825.837500", "120827.327500", "120828.817500", "120830.307500", "120831.797500", "120833.287500", "120834.777500", "120836.267500", "120837.757500", "120839.247500", "120840.737500", "120842.227500", "120843.717500", "120845.207500", "120846.697500", "120848.187500", "120849.677500", "120851.167500", "120852.657500", "120854.147500", "120855.637500", "120857.127500", "120858.617500", "120900.107500", "120901.597500", "120903.087500", "120904.577500", "120906.067500", "120907.557500", "120909.047500", "120910.537500", "120912.027500", "120913.517500", "120915.007500", "120916.497500", "120917.987500", "120919.477500", "120920.967500", "120922.457500", "120923.947500", "120925.437500", "120926.927500", "120928.417500", "120929.907500", "120931.397500", "120932.887500", "120934.377500", "120935.867500", "120937.357500", "120938.847500", "120940.337500", "120941.827500", "120943.317500", "120944.807500", "120946.297500"],
      "ContentTime": ["115955.382000", "115955.386000", "115955.389000", "115955.392000", "115955.396000", "115955.407000", "115955.422000", "115955.426000", "115955.429000", "115955.432000", "120015.346000", "120015.350000", "120015.354000", "120015.358000", "120015.362000", "120015.366000", "120015.369000", "120015.372000", "120015.376000", "120015.379000", "120015.382000", "120015.386000", "120015.389000", "120015.392000", "120015.395000", "120015.399000", "120015.402000", "120015.405000", "120015.408000", "120015.412000", "120035.346000", "120035.353000", "120035.356000", "120035.359000", "120035.363000", "120035.366000", "120035.370000", "120035.373000", "120035.376000", "120035.379000", "120035.383000", "120035.386000", "120035.389000", "120035.393000", "120035.396000", "120035.399000", "120035.402000", "120035.406000", "120035.409000", "120035.412000", "120035.416000", "120055.346000", "120055.350000", "120055.353000", "120055.356000", "120055.359000", "120055.363000", "120055.366000", "120055.369000", "120055.373000", "120055.376000", "120055.379000", "120055.382000", "120055.385000", "120055.389000", "120055.392000", "120055.395000", "120055.399000", "120055.402000", "120055.405000", "120055.408000", "120115.346000", "120115.350000", "120115.353000", "120115.356000", "120115.360000", "120115.363000", "120115.367000", "120115.371000", "120115.374000", "120115.377000", "120115.381000", "120115.384000", "120115.387000", "120115.391000", "120115.394000", "120115.397000", "120115.400000", "120115.404000", "120115.407000", "120115.410000", "120155.346000", "120155.356000", "120155.379000", "120155.382000", "120155.391000", "120155.403000", "120155.414000", "120155.418000", "120155.439000", "120155.452000", "120155.455000", "120155.458000", "120155.462000", "120155.465000", "120155.479000", "120155.488000", "120155.499000", "120155.502000", "120155.506000", "120155.509000", "120155.520000", "120155.542000", "120155.545000", "120155.554000", "120155.558000", "120155.566000", "120155.569000", "120155.572000", "120235.345000", "120235.349000", "120235.352000", "120235.356000", "120235.359000", "120235.362000", "120235.366000", "120235.369000", "120235.372000", "120235.376000", "120235.379000", "120235.382000", "120235.386000", "120235.389000", "120235.392000", "120235.396000", "120235.399000", "120235.402000", "120235.405000", "120235.409000", "120235.412000", "120235.415000", "120235.419000", "120235.422000", "120235.425000", "120235.429000", "120235.432000", "120315.346000", "120315.350000", "120315.354000", "120315.357000", "120315.360000", "120315.364000", "120315.367000", "120315.370000", "120315.374000", "120315.377000", "120315.381000", "120315.384000", "120315.387000", "120315.391000", "120315.394000", "120315.398000", "120315.402000", "120315.406000", "120315.410000", "120315.413000", "120315.416000", "120315.424000", "120315.427000", "120315.430000", "120315.434000", "120315.437000", "120315.441000", "120355.346000", "120355.350000", "120355.353000", "120355.356000", "120355.360000", "120355.363000", "120355.367000", "120355.370000", "120355.373000", "120355.377000", "120355.380000", "120355.384000", "120355.388000", "120355.398000", "120355.401000", "120355.404000", "120355.408000", "120355.411000", "120355.414000", "120355.417000", "120355.421000", "120355.424000", "120355.428000", "120355.431000", "120355.434000", "120355.438000", "120435.346000", "120435.367000", "120435.371000", "120435.374000", "120435.377000", "120435.381000", "120435.384000", "120435.387000", "120435.391000", "120435.394000", "120435.397000", "120435.401000", "120435.404000", "120435.407000", "120435.411000", "120435.414000", "120435.418000", "120435.421000", "120435.424000", "120435.427000", "120435.431000", "120435.434000", "120435.452000", "120435.456000", "120435.459000", "120435.462000", "120435.466000", "120515.346000", "120515.350000", "120515.353000", "120515.357000", "120515.360000", "120515.363000", "120515.367000", "120515.370000", "120515.373000", "120515.377000", "120515.380000", "120515.384000", "120515.387000", "120515.390000", "120515.394000", "120515.397000", "120515.400000", "120515.404000", "120515.408000", "120515.411000", "120515.414000", "120515.418000", "120515.421000", "120515.425000", "120515.428000", "120515.432000", "120515.435000", "120555.346000", "120555.360000", "120555.364000", "120555.367000", "120555.370000", "120555.374000", "120555.377000", "120555.380000", "120555.384000", "120555.393000", "120555.396000", "120555.399000", "120555.402000", "120555.406000", "120555.409000", "120555.412000", "120555.416000", "120555.431000", "120555.434000", "120555.437000", "120555.441000", "120555.444000", "120555.447000", "120555.451000", "120555.454000", "120555.463000", "120555.467000", "120635.346000", "120635.350000", "120635.353000", "120635.356000", "120635.360000", "120635.363000", "120635.367000", "120635.370000", "120635.373000", "120635.377000", "120635.380000", "120635.383000", "120635.387000", "120635.390000", "120635.394000", "120635.397000", "120635.400000", "120635.403000", "120635.407000", "120635.410000", "120635.419000", "120635.435000", "120635.438000", "120635.441000", "120635.444000", "120635.448000", "120635.451000", "120715.345000", "120715.349000", "120715.352000", "120715.355000", "120715.359000", "120715.362000", "120715.365000", "120715.369000", "120715.372000", "120715.375000", "120715.379000", "120715.382000", "120715.385000", "120715.389000", "120715.392000", "120715.395000", "120715.398000", "120715.402000", "120715.405000", "120715.408000", "120715.412000", "120715.415000", "120715.418000", "120715.421000", "120715.425000", "120715.428000", "120715.431000", "120755.346000", "120755.350000", "120755.353000", "120755.357000", "120755.360000", "120755.372000", "120755.376000", "120755.379000", "120755.382000", "120755.386000", "120755.389000", "120755.393000", "120755.396000", "120755.399000", "120755.403000", "120755.407000", "120755.411000", "120755.414000", "120755.418000", "120755.421000", "120755.425000", "120755.459000", "120755.463000", "120755.466000", "120755.469000", "120755.472000", "120835.346000", "120835.351000", "120835.355000", "120835.358000", "120835.362000", "120835.365000", "120835.368000", "120835.372000", "120835.375000", "120835.378000", "120835.382000", "120835.385000", "120835.394000", "120835.397000", "120835.400000", "120835.403000", "120835.407000", "120835.410000", "120835.413000", "120835.417000", "120835.420000", "120835.425000", "120835.428000", "120835.432000", "120835.435000", "120835.438000", "120835.441000", "120915.346000", "120915.350000", "120915.368000", "120915.371000", "120915.374000", "120915.378000", "120915.381000", "120915.384000", "120915.388000", "120915.391000", "120915.394000", "120915.397000", "120915.416000", "120915.419000", "120915.422000", "120915.426000", "120915.429000", "120915.432000", "120915.435000", "120915.439000", "120915.442000", "120915.445000", "120915.449000", "120915.452000", "120915.455000", "120915.459000", "120915.462000", "120949.751000", "120949.754000", "120949.758000", "120949.761000", "120949.764000", "120949.768000", "120949.771000", "120949.777000", "120949.782000", "120949.799000", "120949.803000", "120949.806000", "120949.809000", "120949.812000", "120949.816000", "120949.819000", "120949.822000", "120949.826000", "120949.829000", "120949.832000", "120949.836000", "120949.839000", "120949.842000"],
