{
  "AcquisitionMatrixPE": 104,
  "AcquisitionNumber": 1,
  "AcquisitionTime": "11:29:37.892500",
  "BandwidthPerPixelPhaseEncode": 17.17,
  "BaseResolution": 104,
  "BodyPartExamined": "BRAIN",
  "CoilCombinationMethod": "Sum of Squares",
  "ConsistencyInfo": "N4_VE11C_LATEST_20160120",
  "ConversionSoftware": "dcm2niix",
  "ConversionSoftwareVersion": "v1.0.20211006",
  "DerivedVendorReportedEchoSpacing": 0.000560011,
  "DeviceSerialNumber": "167006",
  "DwellTime": 2.1e-06,
  "EchoTime": 0.037,
  "EchoTime1": 0.037,
  "EchoTime2": 0.001,
  "EchoTrainLength": 104,
  "EffectiveEchoSpacing": 0.000560011,
  "FlipAngle": 52,
  "HeudiconvVersion": "0.11.3.post9+gc939bf8",
  "ImageComments": "Unaliased MB4/PE3/LB",
  "ImageOrientationPatientDICOM": [0.99893, -0.043328, 0.0161455, 0.0462348, 0.931584, -0.360575],
  "ImageOrientationText": "Tra>Cor(-21.2)>Sag(-0.0)",
  "ImageType": [
    "ORIGINAL",
    "PRIMARY",
    "P",
    "MB",
    "ND",
    "MOSAIC",
    "PHASE"
],
  "ImagingFrequency": 123.259,
  "InPlanePhaseEncodingDirectionDICOM": "COL",
  "InstitutionAddress": "Chemin Queen-Mary 4565,Montreal,District,CA,H3W 1W5",
  "InstitutionName": "IUGM",
  "InstitutionalDepartmentName": "Department",
  "MRAcquisitionType": "2D",
  "MagneticFieldStrength": 3,
  "Manufacturer": "Siemens",
  "ManufacturersModelName": "Prisma_fit",
  "MatrixCoilMode": "SENSE",
  "Modality": "MR",
  "MultibandAccelerationFactor": 4,
  "PartialFourier": 1,
  "PatientPosition": "HFS",
  "PercentPhaseFOV": 100,
  "PercentSampling": 100,
  "PhaseEncodingDirection": "j",
  "PhaseEncodingSteps": 104,
  "PhaseResolution": 1,
  "PixelBandwidth": 2290,
  "ProcedureStepDescription": "games^mariostars",
  "ProtocolName": "func_task-mariostars_run-01",
  "PulseSequenceDetails": "%CustomerSeq%\\cmrr_mbep2d_bold",
  "ReceiveCoilActiveElements": "HC1-7;NC1,2",
  "ReceiveCoilName": "HeadNeck_64",
  "ReconMatrixPE": 104,
  "RepetitionTime": 1.49,
  "SAR": 0.0389379,
  "ScanOptions": "FS",
  "ScanningSequence": "EP",
  "SequenceName": "epfid2d1_104",
  "SequenceVariant": "SK\\SS",
  "SeriesDescription": "func_task-mariostars_run-01",
  "SeriesNumber": 12,
  "ShimSetting": [627, -7267, -8803, 567, 25, -248, -77, -4],
  "SliceThickness": 2,
  "SliceTiming": [0, 0.7825, 0.0975, 0.8825, 0.195, 0.98, 0.295, 1.0775, 0.3925, 1.175, 0.49, 1.2725, 0.5875, 1.3725, 0.685, 0, 0.7825, 0.0975, 0.8825, 0.195, 0.98, 0.295, 1.0775, 0.3925, 1.175, 0.49, 1.2725, 0.5875, 1.3725, 0.685, 0, 0.7825, 0.0975, 0.8825, 0.195, 0.98, 0.295, 1.0775, 0.3925, 1.175, 0.49, 1.2725, 0.5875, 1.3725, 0.685, 0, 0.7825, 0.0975, 0.8825, 0.195, 0.98, 0.295, 1.0775, 0.3925, 1.175, 0.49, 1.2725, 0.5875, 1.3725, 0.685],
  "SoftwareVersions": "syngo MR E11",
  "SpacingBetweenSlices": 2,
  "StationName": "MRC35049",
  "TaskName": "mariostars",
  "TotalReadoutTime": 0.0576811,
  "TxRefAmp": 222.64,
  "WipMemBlock": "8eb27fcf-0c0a-465e-891d-886c4fabdda5||Sequence: R017 ve11c/master r/75a17815+; Jun 28 2022 16:32:11 by eja",
  "dcmmeta_affine": [
    [-1.9978609085083008, 0.09246952086687088, -0.0011641011806204915, 101.5215072631836],
    [0.08665594458580017, 1.863167405128479, -0.7218711376190186, -67.76447296142578],
    [0.03229108080267906, 0.7211494445800781, 1.8651812076568604, -62.98749542236328],
    [0.0, 0.0, 0.0, 1.0]
],
  "dcmmeta_reorient_transform": [
    [0.0, -1.0, 0.0, 103.0],
    [1.0, 0.0, 0.0, 0.0],
    [0.0, 0.0, 1.0, 0.0],
    [0.0, 0.0, 0.0, 1.0]
],
  "dcmmeta_shape": [104, 104, 60, 441],
  "dcmmeta_slice_dim": 2,
  "dcmmeta_version": 0.6,
  "global": {
    "const": {
      "AcquisitionMatrix": [104, 0, 0, 104],
      "AngioFlag": "N",
      "BitsAllocated": 16,
      "BitsStored": 16,
      "BodyPartExamined": "BRAIN",
      "Columns": 832,
      "EchoNumbers": 1,
      "EchoTime": 37.0,
      "EchoTrainLength": 104,
      "FlipAngle": 52.0,
      "HighBit": 15,
      "ImageOrientationPatient": [0.99893043215424, -0.0433279732648, 0.01614553959827, 0.04623475892974, 0.93158371125766, -0.3605747300992],
      "ImagePositionPatient": [-871.92612448487, -770.79194615974, 262.03534902424],
      "ImageType": [
        "ORIGINAL",
        "PRIMARY",
        "P",
        "MB",
        "ND",
        "MOSAIC"
],
      "ImagedNucleus": "1H",
      "ImagingFrequency": 123.258765,
      "InPlanePhaseEncodingDirection": "COL",
      "LargestImagePixelValue": 4095,
      "MRAcquisitionType": "2D",
      "MagneticFieldStrength": 3.0,
      "Manufacturer": "SIEMENS",
      "ManufacturerModelName": "Prisma_fit",
      "Modality": "MR",
      "NumberOfAverages": 1.0,
      "NumberOfPhaseEncodingSteps": 104,
      "PercentPhaseFieldOfView": 100.0,
      "PercentSampling": 100.0,
      "PerformedProcedureStepStartTime": "111552.016000",
      "PhotometricInterpretation": "MONOCHROME2",
      "PixelBandwidth": 2290.0,
      "PixelRepresentation": 0,
      "PixelSpacing": [2.0, 2.0],
      "ProtocolName": "func_task-mariostars_run-01",
      "RepetitionTime": 1490.0,
      "RescaleIntercept": -4096.0,
      "RescaleSlope": 2.0,
      "RescaleType": "US",
      "Rows": 832,
      "SAR": 0.03893785794091,
      "SamplesPerPixel": 1,
      "ScanOptions": "FS",
      "ScanningSequence": "EP",
      "SequenceName": "epfid2d1_104",
      "SequenceVariant": [
        "SK",
        "SS"
],
      "SeriesDescription": "func_task-mariostars_run-01",
      "SeriesNumber": 12,
      "SeriesTime": "113032.229000",
      "SliceLocation": -34.342027296527,
      "SliceThickness": 2.0,
      "SmallestImagePixelValue": 0,
      "SoftwareVersions": "syngo MR E11",
      "SpacingBetweenSlices": 2.0000000393793,
      "SpecificCharacterSet": "ISO_IR 100",
      "StudyID": "1",
      "StudyTime": "111551.960000",
      "TransmitCoilName": "Body",
      "VariableFlipAngleFlag": "N",
      "WindowCenterWidthExplanation": "Algo1",
      "dBdt": 0.0},
    "slices": {}
  },
  "time": {
    "samples": {
      "AcquisitionNumber": [1, 2, 3, 4, 5, 6, 7, 8, 9, 10, 11, 12, 13, 14, 15, 16, 17, 18, 19, 20, 21, 22, 23, 24, 25, 26, 27, 28, 29, 30, 31, 32, 33, 34, 35, 36, 37, 38, 39, 40, 41, 42, 43, 44, 45, 46, 47, 48, 49, 50, 51, 52, 53, 54, 55, 56, 57, 58, 59, 60, 61, 62, 63, 64, 65, 66, 67, 68, 69, 70, 71, 72, 73, 74, 75, 76, 77, 78, 79, 80, 81, 82, 83, 84, 85, 86, 87, 88, 89, 90, 91, 92, 93, 94, 95, 96, 97, 98, 99, 100, 101, 102, 103, 104, 105, 106, 107, 108, 109, 110, 111, 112, 113, 114, 115, 116, 117, 118, 119, 120, 121, 122, 123, 124, 125, 126, 127, 128, 129, 130, 131, 132, 133, 134, 135, 136, 137, 138, 139, 140, 141, 142, 143, 144, 145, 146, 147, 148, 149, 150, 151, 152, 153, 154, 155, 156, 157, 158, 159, 160, 161, 162, 163, 164, 165, 166, 167, 168, 169, 170, 171, 172, 173, 174, 175, 176, 177, 178, 179, 180, 181, 182, 183, 184, 185, 186, 187, 188, 189, 190, 191, 192, 193, 194, 195, 196, 197, 198, 199, 200, 201, 202, 203, 204, 205, 206, 207, 208, 209, 210, 211, 212, 213, 214, 215, 216, 217, 218, 219, 220, 221, 222, 223, 224, 225, 226, 227, 228, 229, 230, 231, 232, 233, 234, 235, 236, 237, 238, 239, 240, 241, 242, 243, 244, 245, 246, 247, 248, 249, 250, 251, 252, 253, 254, 255, 256, 257, 258, 259, 260, 261, 262, 263, 264, 265, 266, 267, 268, 269, 270, 271, 272, 273, 274, 275, 276, 277, 278, 279, 280, 281, 282, 283, 284, 285, 286, 287, 288, 289, 290, 291, 292, 293, 294, 295, 296, 297, 298, 299, 300, 301, 302, 303, 304, 305, 306, 307, 308, 309, 310, 311, 312, 313, 314, 315, 316, 317, 318, 319, 320, 321, 322, 323, 324, 325, 326, 327, 328, 329, 330, 331, 332, 333, 334, 335, 336, 337, 338, 339, 340, 341, 342, 343, 344, 345, 346, 347, 348, 349, 350, 351, 352, 353, 354, 355, 356, 357, 358, 359, 360, 361, 362, 363, 364, 365, 366, 367, 368, 369, 370, 371, 372, 373, 374, 375, 376, 377, 378, 379, 380, 381, 382, 383, 384, 385, 386, 387, 388, 389, 390, 391, 392, 393, 394, 395, 396, 397, 398, 399, 400, 401, 402, 403, 404, 405, 406, 407, 408, 409, 410, 411, 412, 413, 414, 415, 416, 417, 418, 419, 420, 421, 422, 423, 424, 425, 426, 427, 428, 429, 430, 431, 432, 433, 434, 435, 436, 437, 438, 439, 440, 441],
      "AcquisitionTime": ["112937.892500", "112939.382500", "112940.872500", "112942.362500", "112943.852500", "112945.342500", "112946.832500", "112948.322500", "112949.812500", "112951.302500", "112952.792500", "112954.282500", "112955.772500", "112957.262500", "112958.752500", "113000.242500", "113001.732500", "113003.222500", "113004.712500", "113006.202500", "113007.692500", "113009.182500", "113010.672500", "113012.162500", "113013.652500", "113015.142500", "113016.632500", "113018.122500", "113019.612500", "113021.102500", "113022.592500", "113024.082500", "113025.572500", "113027.062500", "113028.552500", "113030.042500", "113031.532500", "113033.022500", "113034.512500", "113036.002500", "113037.492500", "113038.982500", "113040.472500", "113041.962500", "113043.452500", "113044.942500", "113046.432500", "113047.922500", "113049.412500", "113050.902500", "113052.392500", "113053.882500", "113055.372500", "113056.862500", "113058.352500", "113059.842500", "113101.332500", "113102.822500", "113104.312500", "113105.802500", "113107.292500", "113108.782500", "113110.272500", "113111.762500", "113113.252500", "113114.742500", "113116.232500", "113117.722500", "113119.212500", "113120.702500", "113122.192500", "113123.682500", "113125.172500", "113126.662500", "113128.152500", "113129.642500", "113131.132500", "113132.622500", "113134.112500", "113135.602500", "113137.092500", "113138.582500", "113140.072500", "113141.562500", "113143.052500", "113144.542500", "113146.032500", "113147.522500", "113149.012500", "113150.502500", "113151.992500", "113153.482500", "113154.972500", "113156.462500", "113157.952500", "113159.442500", "113200.932500", "113202.422500", "113203.912500", "113205.402500", "113206.892500", "113208.382500", "113209.872500", "113211.362500", "113212.852500", "113214.342500", "113215.832500", "113217.322500", "113218.812500", "113220.302500", "113221.792500", "113223.282500", "113224.772500", "113226.262500", "113227.752500", "113229.242500", "113230.732500", "113232.222500", "113233.712500", "113235.202500", "113236.692500", "113238.182500", "113239.672500", "113241.162500", "113242.652500", "113244.142500", "113245.632500", "113247.122500", "113248.612500", "113250.102500", "113251.592500", "113253.082500", "113254.572500", "113256.062500", "113257.552500", "113259.042500", "113300.532500", "113302.022500", "113303.512500", "113305.002500", "113306.492500", "113307.982500", "113309.472500", "113310.962500", "113312.452500", "113313.942500", "113315.432500", "113316.922500", "113318.412500", "113319.902500", "113321.392500", "113322.882500", "113324.372500", "113325.862500", "113327.352500", "113328.842500", "113330.332500", "113331.822500", "113333.312500", "113334.802500", "113336.292500", "113337.782500", "113339.272500", "113340.762500", "113342.252500", "113343.742500", "113345.232500", "113346.722500", "113348.212500", "113349.702500", "113351.192500", "113352.682500", "113354.172500", "113355.662500", "113357.152500", "113358.642500", "113400.132500", "113401.622500", "113403.112500", "113404.602500", "113406.092500", "113407.582500", "113409.072500", "113410.562500", "113412.052500", "113413.542500", "113415.032500", "113416.522500", "113418.012500", "113419.502500", "113420.992500", "113422.482500", "113423.972500", "113425.462500", "113426.952500", "113428.442500", "113429.932500", "113431.422500", "113432.912500", "113434.402500", "113435.892500", "113437.382500", "113438.872500", "113440.362500", "113441.852500", "113443.342500", "113444.832500", "113446.322500", "113447.812500", "113449.302500", "113450.792500", "113452.282500", "113453.772500", "113455.262500", "113456.752500", "113458.242500", "113459.732500", "113501.222500", "113502.712500", "113504.202500", "113505.692500", "113507.182500", "113508.672500", "113510.162500", "113511.652500", "113513.142500", "113514.632500", "113516.122500", "113517.612500", "113519.102500", "113520.592500", "113522.082500", "113523.572500", "113525.062500", "113526.552500", "113528.042500", "113529.532500", "113531.022500", "113532.512500", "113534.002500", "113535.492500", "113536.982500", "113538.472500", "113539.962500", "113541.452500", "113542.942500", "113544.432500", "113545.922500", "113547.412500", "113548.902500", "113550.392500", "113551.882500", "113553.372500", "113554.862500", "113556.352500", "113557.842500", "113559.332500", "113600.822500", "113602.312500", "113603.802500", "113605.292500", "113606.782500", "113608.272500", "113609.762500", "113611.252500", "113612.742500", "113614.232500", "113615.722500", "113617.212500", "113618.702500", "113620.192500", "113621.682500", "113623.172500", "113624.662500", "113626.152500", "113627.642500", "113629.132500", "113630.622500", "113632.112500", "113633.602500", "113635.092500", "113636.582500", "113638.072500", "113639.562500", "113641.052500", "113642.542500", "113644.032500", "113645.522500", "113647.012500", "113648.502500", "113649.992500", "113651.482500", "113652.972500", "113654.462500", "113655.952500", "113657.442500", "113658.932500", "113700.422500", "113701.912500", "113703.402500", "113704.892500", "113706.382500", "113707.872500", "113709.362500", "113710.852500", "113712.342500", "113713.832500", "113715.322500", "113716.812500", "113718.302500", "113719.792500", "113721.282500", "113722.772500", "113724.262500", "113725.752500", "113727.242500", "113728.732500", "113730.222500", "113731.712500", "113733.202500", "113734.692500", "113736.182500", "113737.672500", "113739.162500", "113740.652500", "113742.142500", "113743.632500", "113745.122500", "113746.612500", "113748.102500", "113749.592500", "113751.082500", "113752.572500", "113754.062500", "113755.552500", "113757.042500", "113758.532500", "113800.022500", "113801.512500", "113803.002500", "113804.492500", "113805.982500", "113807.472500", "113808.962500", "113810.452500", "113811.942500", "113813.432500", "113814.922500", "113816.412500", "113817.902500", "113819.392500", "113820.882500", "113822.372500", "113823.862500", "113825.352500", "113826.842500", "113828.332500", "113829.822500", "113831.312500", "113832.802500", "113834.292500", "113835.782500", "113837.272500", "113838.762500", "113840.252500", "113841.742500", "113843.232500", "113844.722500", "113846.212500", "113847.702500", "113849.192500", "113850.682500", "113852.172500", "113853.662500", "113855.152500", "113856.642500", "113858.132500", "113859.622500", "113901.112500", "113902.602500", "113904.092500", "113905.582500", "113907.072500", "113908.562500", "113910.052500", "113911.542500", "113913.032500", "113914.522500", "113916.012500", "113917.502500", "113918.992500", "113920.482500", "113921.972500", "113923.462500", "113924.952500", "113926.442500", "113927.932500", "113929.422500", "113930.912500", "113932.402500", "113933.892500", "113935.382500", "113936.872500", "113938.362500", "113939.852500", "113941.342500", "113942.832500", "113944.322500", "113945.812500", "113947.302500", "113948.792500", "113950.282500", "113951.772500", "113953.262500", "113954.752500", "113956.242500", "113957.732500", "113959.222500", "114000.712500", "114002.202500", "114003.692500", "114005.182500", "114006.672500", "114008.162500", "114009.652500", "114011.142500", "114012.632500", "114014.122500", "114015.612500", "114017.102500", "114018.592500", "114020.082500", "114021.572500", "114023.062500", "114024.552500", "114026.042500", "114027.532500", "114029.022500", "114030.512500", "114032.002500", "114033.492500"],
      "ContentTime": ["113032.231000", "113032.238000", "113032.241000", "113032.243000", "113032.246000", "113032.248000", "113052.275000", "113052.278000", "113052.280000", "113052.283000", "113052.285000", "113052.288000", "113052.290000", "113052.293000", "113052.295000", "113052.298000", "113052.300000", "113052.302000", "113052.305000", "113052.307000", "113052.310000", "113052.313000", "113052.315000", "113052.318000", "113052.320000", "113052.323000", "113112.280000", "113112.286000", "113112.289000", "113112.291000", "113112.294000", "113112.296000", "113112.299000", "113112.301000", "113112.304000", "113112.306000", "113112.309000", "113112.311000", "113112.313000", "113112.316000", "113112.318000", "113112.321000", "113112.323000", "113112.326000", "113112.328000", "113112.331000", "113132.256000", "113132.259000", "113132.262000", "113132.264000", "113132.267000", "113132.269000", "113132.271000", "113132.274000", "113132.276000", "113132.279000", "113132.281000", "113132.284000", "113132.286000", "113132.289000", "113132.291000", "113132.294000", "113132.296000", "113132.299000", "113132.301000", "113132.303000", "113132.306000", "113152.255000", "113152.258000", "113152.261000", "113152.263000", "113152.265000", "113152.268000", "113152.270000", "113152.273000", "113152.275000", "113152.278000", "113152.280000", "113152.283000", "113152.285000", "113152.288000", "113152.290000", "113152.293000", "113152.295000", "113152.298000", "113152.300000", "113152.302000", "113232.303000", "113232.306000", "113232.308000", "113232.311000", "113232.313000", "113232.316000", "113232.318000", "113232.320000", "113232.323000", "113232.325000", "113232.328000", "113232.330000", "113232.333000", "113232.335000", "113232.338000", "113232.340000", "113232.343000", "113232.345000", "113232.348000", "113232.350000", "113232.353000", "113232.355000", "113232.358000", "113232.360000", "113232.363000", "113232.365000", "113232.368000", "113232.370000", "113232.373000", "113312.276000", "113312.279000", "113312.281000", "113312.284000", "113312.286000", "113312.289000", "113312.291000", "113312.293000", "113312.296000", "113312.298000", "113312.301000", "113312.303000", "113312.306000", "113312.308000", "113312.311000", "113312.313000", "113312.316000", "113312.318000", "113312.321000", "113312.323000", "113312.326000", "113312.328000", "113312.331000", "113312.333000", "113312.336000", "113312.338000", "113312.341000", "113352.289000", "113352.292000", "113352.294000", "113352.297000", "113352.299000", "113352.301000", "113352.304000", "113352.307000", "113352.309000", "113352.312000", "113352.314000", "113352.317000", "113352.319000", "113352.322000", "113352.324000", "113352.326000", "113352.329000", "113352.331000", "113352.334000", "113352.336000", "113352.339000", "113352.347000", "113352.350000", "113352.352000", "113352.355000", "113352.357000", "113432.268000", "113432.271000", "113432.273000", "113432.276000", "113432.278000", "113432.281000", "113432.283000", "113432.286000", "113432.288000", "113432.291000", "113432.293000", "113432.296000", "113432.313000", "113432.315000", "113432.318000", "113432.320000", "113432.323000", "113432.325000", "113432.328000", "113432.330000", "113432.333000", "113432.335000", "113432.338000", "113432.341000", "113432.344000", "113432.346000", "113432.350000", "113512.281000", "113512.284000", "113512.287000", "113512.289000", "113512.292000", "113512.294000", "113512.297000", "113512.299000", "113512.302000", "113512.304000", "113512.306000", "113512.309000", "113512.311000", "113512.314000", "113512.316000", "113512.319000", "113512.321000", "113512.324000", "113512.326000", "113512.329000", "113512.331000", "113512.334000", "113512.336000", "113512.339000", "113512.341000", "113512.344000", "113512.346000", "113552.279000", "113552.282000", "113552.284000", "113552.287000", "113552.289000", "113552.292000", "113552.294000", "113552.297000", "113552.299000", "113552.302000", "113552.305000", "113552.307000", "113552.310000", "113552.312000", "113552.314000", "113552.317000", "113552.319000", "113552.322000", "113552.324000", "113552.327000", "113552.329000", "113552.332000", "113552.334000", "113552.337000", "113552.340000", "113552.342000", "113552.345000", "113632.281000", "113632.283000", "113632.286000", "113632.288000", "113632.291000", "113632.293000", "113632.296000", "113632.298000", "113632.301000", "113632.303000", "113632.306000", "113632.308000", "113632.311000", "113632.313000", "113632.316000", "113632.318000", "113632.321000", "113632.323000", "113632.326000", "113632.328000", "113632.331000", "113632.333000", "113632.336000", "113632.338000", "113632.341000", "113632.343000", "113632.346000", "113712.300000", "113712.303000", "113712.305000", "113712.308000", "113712.310000", "113712.313000", "113712.315000", "113712.318000", "113712.320000", "113712.323000", "113712.325000", "113712.328000", "113712.330000", "113712.333000", "113712.335000", "113712.338000", "113712.340000", "113712.343000", "113712.345000", "113712.348000", "113712.350000", "113712.353000", "113712.355000", "113712.358000", "113712.360000", "113712.363000", "113712.365000", "113752.286000", "113752.289000", "113752.291000", "113752.294000", "113752.296000", "113752.299000", "113752.301000", "113752.304000", "113752.306000", "113752.309000", "113752.311000", "113752.314000", "113752.316000", "113752.319000", "113752.321000", "113752.324000", "113752.326000", "113752.329000", "113752.331000", "113752.334000", "113752.336000", "113752.339000", "113752.341000", "113752.343000", "113752.346000", "113752.348000", "113752.351000", "113832.283000", "113832.286000", "113832.288000", "113832.291000", "113832.293000", "113832.296000", "113832.298000", "113832.301000", "113832.303000", "113832.306000", "113832.308000", "113832.311000", "113832.313000", "113832.316000", "113832.318000", "113832.321000", "113832.323000", "113832.326000", "113832.328000", "113832.331000", "113832.333000", "113832.335000", "113832.338000", "113832.340000", "113832.343000", "113832.345000", "113912.302000", "113912.308000", "113912.310000", "113912.313000", "113912.315000", "113912.318000", "113912.320000", "113912.323000", "113912.325000", "113912.327000", "113912.330000", "113912.332000", "113912.336000", "113912.339000", "113912.341000", "113912.344000", "113912.346000", "113912.349000", "113912.351000", "113912.354000", "113912.356000", "113912.359000", "113912.361000", "113912.364000", "113912.366000", "113912.369000", "113912.371000", "113952.282000", "113952.284000", "113952.287000", "113952.289000", "113952.292000", "113952.294000", "113952.297000", "113952.299000", "113952.302000", "113952.304000", "113952.307000", "113952.309000", "113952.312000", "113952.314000", "113952.317000", "113952.319000", "113952.322000", "113952.324000", "113952.327000", "113952.329000", "113952.332000", "113952.334000", "113952.337000", "113952.339000", "113952.341000", "113952.344000", "113952.346000", "114032.291000", "114032.294000", "114032.296000", "114032.299000", "114032.301000", "114032.304000", "114032.306000", "114032.309000", "114032.311000", "114032.314000", "114032.316000", "114032.319000", "114032.321000", "114032.324000", "114032.326000", "114032.329000", "114032.331000", "114032.334000", "114032.336000", "114032.339000", "114032.341000", "114032.343000", "114032.346000", "114032.348000", "114032.351000", "114032.353000", "114032.356000", "114037.244000", "114037.247000", "114037.250000"],
