{
  "AcquisitionMatrixPE": 104,
  "AcquisitionNumber": 1,
  "AcquisitionTime": "15:41:24.400000",
  "BandwidthPerPixelPhaseEncode": 17.17,
  "BaseResolution": 104,
  "BodyPartExamined": "BRAIN",
  "CoilCombinationMethod": "Sum of Squares",
  "ConsistencyInfo": "N4_VE11C_LATEST_20160120",
  "ConversionSoftware": "dcm2niix",
  "ConversionSoftwareVersion": "v1.0.20211006",
  "DerivedVendorReportedEchoSpacing": 0.000560011,
  "DeviceSerialNumber": "167006",
  "DwellTime": 2.1e-06,
  "EchoTime": 0.037,
  "EchoTime1": 0.037,
  "EchoTime2": 0.001,
  "EchoTrainLength": 104,
  "EffectiveEchoSpacing": 0.000560011,
  "FlipAngle": 52,
  "HeudiconvVersion": "0.11.3.post9+gc939bf8",
  "ImageComments": "Unaliased MB4/PE3/LB",
  "ImageOrientationPatientDICOM": [0.997963, -0.0621006, 0.0146001, 0.063486, 0.944338, -0.322793],
  "ImageOrientationText": "Tra>Cor(-18.8)>Sag(-0.4)",
  "ImageType": [
    "ORIGINAL",
    "PRIMARY",
    "P",
    "MB",
    "ND",
    "MOSAIC",
    "PHASE"
],
  "ImagingFrequency": 123.259,
  "InPlanePhaseEncodingDirectionDICOM": "COL",
  "InstitutionAddress": "Chemin Queen-Mary 4565,Montreal,District,CA,H3W 1W5",
  "InstitutionName": "IUGM",
  "InstitutionalDepartmentName": "Department",
  "MRAcquisitionType": "2D",
  "MagneticFieldStrength": 3,
  "Manufacturer": "Siemens",
  "ManufacturersModelName": "Prisma_fit",
  "MatrixCoilMode": "SENSE",
  "Modality": "MR",
  "MultibandAccelerationFactor": 4,
  "PartialFourier": 1,
  "PatientPosition": "HFS",
  "PercentPhaseFOV": 100,
  "PercentSampling": 100,
  "PhaseEncodingDirection": "j",
  "PhaseEncodingSteps": 104,
  "PhaseResolution": 1,
  "PixelBandwidth": 2290,
  "ProcedureStepDescription": "games^mariostars",
  "ProtocolName": "func_task-mariostars_run-01",
  "PulseSequenceDetails": "%CustomerSeq%\\cmrr_mbep2d_bold",
  "ReceiveCoilActiveElements": "HC1-7;NC1,2",
  "ReceiveCoilName": "HeadNeck_64",
  "ReconMatrixPE": 104,
  "RepetitionTime": 1.49,
  "SAR": 0.0926512,
  "ScanOptions": "FS",
  "ScanningSequence": "EP",
  "SequenceName": "epfid2d1_104",
  "SequenceVariant": "SK\\SS",
  "SeriesDescription": "func_task-mariostars_run-01",
  "SeriesNumber": 12,
  "ShimSetting": [622, -7259, -8829, 528, 28, -243, -80, -15],
  "SliceThickness": 2,
  "SliceTiming": [0, 0.785, 0.1, 0.8825, 0.1975, 0.98, 0.295, 1.08, 0.3925, 1.1775, 0.49, 1.275, 0.59, 1.3725, 0.6875, 0, 0.785, 0.1, 0.8825, 0.1975, 0.98, 0.295, 1.08, 0.3925, 1.1775, 0.49, 1.275, 0.59, 1.3725, 0.6875, 0, 0.785, 0.1, 0.8825, 0.1975, 0.98, 0.295, 1.08, 0.3925, 1.1775, 0.49, 1.275, 0.59, 1.3725, 0.6875, 0, 0.785, 0.1, 0.8825, 0.1975, 0.98, 0.295, 1.08, 0.3925, 1.1775, 0.49, 1.275, 0.59, 1.3725, 0.6875],
  "SoftwareVersions": "syngo MR E11",
  "SpacingBetweenSlices": 2,
  "StationName": "MRC35049",
  "TaskName": "mariostars",
  "TotalReadoutTime": 0.0576811,
  "TxRefAmp": 308.978,
  "WipMemBlock": "5596d318-824a-4bbe-990e-ed73dc3cda16||Sequence: R017 ve11c/master r/75a17815+; Jun 28 2022 16:32:11 by eja",
  "dcmmeta_affine": [
    [-1.9959262609481812, 0.12697206437587738, -0.012516383081674576, 100.65763854980469],
    [0.12420111149549484, 1.8886761665344238, -0.6461242437362671, -72.2423324584961],
    [0.029200168326497078, 0.6455854177474976, 1.8927141427993774, -66.38787078857422],
    [0.0, 0.0, 0.0, 1.0]
],
  "dcmmeta_reorient_transform": [
    [0.0, -1.0, 0.0, 103.0],
    [1.0, 0.0, 0.0, 0.0],
    [0.0, 0.0, 1.0, 0.0],
    [0.0, 0.0, 0.0, 1.0]
],
  "dcmmeta_shape": [104, 104, 60, 464],
  "dcmmeta_slice_dim": 2,
  "dcmmeta_version": 0.6,
  "global": {
    "const": {
      "AcquisitionMatrix": [104, 0, 0, 104],
      "AngioFlag": "N",
      "BitsAllocated": 16,
      "BitsStored": 16,
      "BodyPartExamined": "BRAIN",
      "Columns": 832,
      "EchoNumbers": 1,
      "EchoTime": 37.0,
      "EchoTrainLength": 104,
      "FlipAngle": 52.0,
      "HighBit": 15,
      "ImageOrientationPatient": [0.99796310487442, -0.062100554364, 0.01460008414687, 0.0634860327017, 0.94433806684539, -0.3227927185649],
      "ImagePositionPatient": [-886.47073542087, -764.56021702821, 224.47166505479],
      "ImageType": [
        "ORIGINAL",
        "PRIMARY",
        "P",
        "MB",
        "ND",
        "MOSAIC"
],
      "ImagedNucleus": "1H",
      "ImagingFrequency": 123.258818,
      "InPlanePhaseEncodingDirection": "COL",
      "LargestImagePixelValue": 4095,
      "MRAcquisitionType": "2D",
      "MagneticFieldStrength": 3.0,
      "Manufacturer": "SIEMENS",
      "ManufacturerModelName": "Prisma_fit",
      "Modality": "MR",
      "NumberOfAverages": 1.0,
      "NumberOfPhaseEncodingSteps": 104,
      "PercentPhaseFieldOfView": 100.0,
      "PercentSampling": 100.0,
      "PerformedProcedureStepStartTime": "153746.586000",
      "PhotometricInterpretation": "MONOCHROME2",
      "PixelBandwidth": 2290.0,
      "PixelRepresentation": 0,
      "PixelSpacing": [2.0, 2.0],
      "ProtocolName": "func_task-mariostars_run-01",
      "RepetitionTime": 1490.0,
      "RescaleIntercept": -4096.0,
      "RescaleSlope": 2.0,
      "RescaleType": "US",
      "Rows": 832,
      "SAR": 0.09265119339149,
      "SamplesPerPixel": 1,
      "ScanOptions": "FS",
      "ScanningSequence": "EP",
      "SequenceName": "epfid2d1_104",
      "SequenceVariant": [
        "SK",
        "SS"
],
      "SeriesDescription": "func_task-mariostars_run-01",
      "SeriesNumber": 12,
      "SeriesTime": "154237.385000",
      "SliceLocation": -40.117805522874,
      "SliceThickness": 2.0,
      "SmallestImagePixelValue": 0,
      "SoftwareVersions": "syngo MR E11",
      "SpacingBetweenSlices": 1.999999958832,
      "SpecificCharacterSet": "ISO_IR 100",
      "StudyID": "1",
      "StudyTime": "153746.515000",
      "TransmitCoilName": "Body",
      "VariableFlipAngleFlag": "N",
      "WindowCenterWidthExplanation": "Algo1",
      "dBdt": 0.0},
    "slices": {}
  },
  "time": {
    "samples": {
      "AcquisitionNumber": [1, 2, 3, 4, 5, 6, 7, 8, 9, 10, 11, 12, 13, 14, 15, 16, 17, 18, 19, 20, 21, 22, 23, 24, 25, 26, 27, 28, 29, 30, 31, 32, 33, 34, 35, 36, 37, 38, 39, 40, 41, 42, 43, 44, 45, 46, 47, 48, 49, 50, 51, 52, 53, 54, 55, 56, 57, 58, 59, 60, 61, 62, 63, 64, 65, 66, 67, 68, 69, 70, 71, 72, 73, 74, 75, 76, 77, 78, 79, 80, 81, 82, 83, 84, 85, 86, 87, 88, 89, 90, 91, 92, 93, 94, 95, 96, 97, 98, 99, 100, 101, 102, 103, 104, 105, 106, 107, 108, 109, 110, 111, 112, 113, 114, 115, 116, 117, 118, 119, 120, 121, 122, 123, 124, 125, 126, 127, 128, 129, 130, 131, 132, 133, 134, 135, 136, 137, 138, 139, 140, 141, 142, 143, 144, 145, 146, 147, 148, 149, 150, 151, 152, 153, 154, 155, 156, 157, 158, 159, 160, 161, 162, 163, 164, 165, 166, 167, 168, 169, 170, 171, 172, 173, 174, 175, 176, 177, 178, 179, 180, 181, 182, 183, 184, 185, 186, 187, 188, 189, 190, 191, 192, 193, 194, 195, 196, 197, 198, 199, 200, 201, 202, 203, 204, 205, 206, 207, 208, 209, 210, 211, 212, 213, 214, 215, 216, 217, 218, 219, 220, 221, 222, 223, 224, 225, 226, 227, 228, 229, 230, 231, 232, 233, 234, 235, 236, 237, 238, 239, 240, 241, 242, 243, 244, 245, 246, 247, 248, 249, 250, 251, 252, 253, 254, 255, 256, 257, 258, 259, 260, 261, 262, 263, 264, 265, 266, 267, 268, 269, 270, 271, 272, 273, 274, 275, 276, 277, 278, 279, 280, 281, 282, 283, 284, 285, 286, 287, 288, 289, 290, 291, 292, 293, 294, 295, 296, 297, 298, 299, 300, 301, 302, 303, 304, 305, 306, 307, 308, 309, 310, 311, 312, 313, 314, 315, 316, 317, 318, 319, 320, 321, 322, 323, 324, 325, 326, 327, 328, 329, 330, 331, 332, 333, 334, 335, 336, 337, 338, 339, 340, 341, 342, 343, 344, 345, 346, 347, 348, 349, 350, 351, 352, 353, 354, 355, 356, 357, 358, 359, 360, 361, 362, 363, 364, 365, 366, 367, 368, 369, 370, 371, 372, 373, 374, 375, 376, 377, 378, 379, 380, 381, 382, 383, 384, 385, 386, 387, 388, 389, 390, 391, 392, 393, 394, 395, 396, 397, 398, 399, 400, 401, 402, 403, 404, 405, 406, 407, 408, 409, 410, 411, 412, 413, 414, 415, 416, 417, 418, 419, 420, 421, 422, 423, 424, 425, 426, 427, 428, 429, 430, 431, 432, 433, 434, 435, 436, 437, 438, 439, 440, 441, 442, 443, 444, 445, 446, 447, 448, 449, 450, 451, 452, 453, 454, 455, 456, 457, 458, 459, 460, 461, 462, 463, 464],
      "AcquisitionTime": ["154124.400000", "154125.890000", "154127.380000", "154128.870000", "154130.360000", "154131.850000", "154133.340000", "154134.830000", "154136.320000", "154137.810000", "154139.300000", "154140.790000", "154142.280000", "154143.770000", "154145.260000", "154146.750000", "154148.240000", "154149.730000", "154151.220000", "154152.710000", "154154.200000", "154155.690000", "154157.180000", "154158.670000", "154200.160000", "154201.650000", "154203.140000", "154204.630000", "154206.120000", "154207.610000", "154209.100000", "154210.590000", "154212.080000", "154213.570000", "154215.060000", "154216.550000", "154218.040000", "154219.530000", "154221.020000", "154222.510000", "154224.000000", "154225.490000", "154226.980000", "154228.470000", "154229.960000", "154231.450000", "154232.940000", "154234.430000", "154235.920000", "154237.410000", "154238.900000", "154240.390000", "154241.880000", "154243.370000", "154244.860000", "154246.350000", "154247.840000", "154249.330000", "154250.820000", "154252.310000", "154253.800000", "154255.290000", "154256.780000", "154258.270000", "154259.760000", "154301.250000", "154302.740000", "154304.230000", "154305.720000", "154307.210000", "154308.700000", "154310.190000", "154311.680000", "154313.170000", "154314.660000", "154316.150000", "154317.640000", "154319.130000", "154320.620000", "154322.110000", "154323.600000", "154325.090000", "154326.580000", "154328.070000", "154329.560000", "154331.050000", "154332.540000", "154334.030000", "154335.520000", "154337.010000", "154338.500000", "154339.990000", "154341.480000", "154342.970000", "154344.460000", "154345.950000", "154347.440000", "154348.930000", "154350.420000", "154351.910000", "154353.400000", "154354.890000", "154356.380000", "154357.870000", "154359.360000", "154400.850000", "154402.340000", "154403.830000", "154405.320000", "154406.810000", "154408.300000", "154409.790000", "154411.280000", "154412.770000", "154414.260000", "154415.750000", "154417.240000", "154418.730000", "154420.220000", "154421.710000", "154423.200000", "154424.690000", "154426.180000", "154427.670000", "154429.160000", "154430.650000", "154432.140000", "154433.630000", "154435.120000", "154436.610000", "154438.100000", "154439.590000", "154441.080000", "154442.570000", "154444.060000", "154445.550000", "154447.040000", "154448.530000", "154450.020000", "154451.510000", "154453.000000", "154454.490000", "154455.980000", "154457.470000", "154458.960000", "154500.450000", "154501.940000", "154503.430000", "154504.920000", "154506.410000", "154507.900000", "154509.390000", "154510.880000", "154512.370000", "154513.860000", "154515.350000", "154516.840000", "154518.330000", "154519.820000", "154521.310000", "154522.800000", "154524.290000", "154525.780000", "154527.270000", "154528.760000", "154530.250000", "154531.740000", "154533.230000", "154534.720000", "154536.210000", "154537.700000", "154539.190000", "154540.680000", "154542.170000", "154543.660000", "154545.150000", "154546.640000", "154548.130000", "154549.620000", "154551.110000", "154552.600000", "154554.090000", "154555.580000", "154557.070000", "154558.560000", "154600.050000", "154601.540000", "154603.030000", "154604.520000", "154606.010000", "154607.500000", "154608.990000", "154610.480000", "154611.970000", "154613.460000", "154614.950000", "154616.440000", "154617.930000", "154619.420000", "154620.910000", "154622.400000", "154623.890000", "154625.380000", "154626.870000", "154628.360000", "154629.850000", "154631.340000", "154632.830000", "154634.320000", "154635.810000", "154637.300000", "154638.790000", "154640.280000", "154641.770000", "154643.260000", "154644.750000", "154646.240000", "154647.730000", "154649.220000", "154650.710000", "154652.200000", "154653.690000", "154655.180000", "154656.670000", "154658.160000", "154659.650000", "154701.140000", "154702.630000", "154704.120000", "154705.610000", "154707.100000", "154708.590000", "154710.080000", "154711.570000", "154713.060000", "154714.550000", "154716.040000", "154717.530000", "154719.020000", "154720.510000", "154722.000000", "154723.490000", "154724.980000", "154726.470000", "154727.960000", "154729.450000", "154730.940000", "154732.430000", "154733.920000", "154735.410000", "154736.900000", "154738.390000", "154739.880000", "154741.370000", "154742.860000", "154744.350000", "154745.840000", "154747.330000", "154748.820000", "154750.310000", "154751.800000", "154753.290000", "154754.780000", "154756.270000", "154757.760000", "154759.250000", "154800.740000", "154802.230000", "154803.720000", "154805.210000", "154806.700000", "154808.190000", "154809.680000", "154811.170000", "154812.660000", "154814.150000", "154815.640000", "154817.130000", "154818.620000", "154820.110000", "154821.600000", "154823.090000", "154824.580000", "154826.070000", "154827.560000", "154829.050000", "154830.540000", "154832.030000", "154833.520000", "154835.010000", "154836.500000", "154837.990000", "154839.480000", "154840.970000", "154842.460000", "154843.950000", "154845.440000", "154846.930000", "154848.420000", "154849.910000", "154851.400000", "154852.890000", "154854.380000", "154855.870000", "154857.360000", "154858.850000", "154900.340000", "154901.830000", "154903.320000", "154904.810000", "154906.300000", "154907.790000", "154909.280000", "154910.770000", "154912.260000", "154913.750000", "154915.240000", "154916.730000", "154918.220000", "154919.710000", "154921.200000", "154922.690000", "154924.180000", "154925.670000", "154927.160000", "154928.650000", "154930.140000", "154931.630000", "154933.120000", "154934.610000", "154936.100000", "154937.590000", "154939.080000", "154940.570000", "154942.060000", "154943.550000", "154945.040000", "154946.530000", "154948.020000", "154949.510000", "154951.000000", "154952.490000", "154953.980000", "154955.470000", "154956.960000", "154958.450000", "154959.940000", "155001.430000", "155002.920000", "155004.410000", "155005.900000", "155007.390000", "155008.880000", "155010.370000", "155011.860000", "155013.350000", "155014.840000", "155016.330000", "155017.820000", "155019.310000", "155020.800000", "155022.290000", "155023.780000", "155025.270000", "155026.760000", "155028.250000", "155029.740000", "155031.230000", "155032.720000", "155034.210000", "155035.700000", "155037.190000", "155038.680000", "155040.170000", "155041.660000", "155043.150000", "155044.640000", "155046.130000", "155047.620000", "155049.110000", "155050.600000", "155052.090000", "155053.580000", "155055.070000", "155056.560000", "155058.050000", "155059.540000", "155101.030000", "155102.520000", "155104.010000", "155105.500000", "155106.990000", "155108.480000", "155109.970000", "155111.460000", "155112.950000", "155114.440000", "155115.930000", "155117.420000", "155118.910000", "155120.400000", "155121.890000", "155123.380000", "155124.870000", "155126.360000", "155127.850000", "155129.340000", "155130.830000", "155132.320000", "155133.810000", "155135.300000", "155136.790000", "155138.280000", "155139.770000", "155141.260000", "155142.750000", "155144.240000", "155145.730000", "155147.220000", "155148.710000", "155150.200000", "155151.690000", "155153.180000", "155154.670000", "155156.160000", "155157.650000", "155159.140000", "155200.630000", "155202.120000", "155203.610000", "155205.100000", "155206.590000", "155208.080000", "155209.570000", "155211.060000", "155212.550000", "155214.040000", "155215.530000", "155217.020000", "155218.510000", "155220.000000", "155221.490000", "155222.980000", "155224.470000", "155225.960000", "155227.450000", "155228.940000", "155230.430000", "155231.920000", "155233.410000", "155234.900000", "155236.390000", "155237.880000", "155239.370000", "155240.860000", "155242.350000", "155243.840000", "155245.330000", "155246.820000", "155248.310000", "155249.800000", "155251.290000", "155252.780000", "155254.270000"],
      "ContentTime": ["154237.387000", "154237.389000", "154237.392000", "154237.394000", "154237.397000", "154237.400000", "154237.402000", "154237.405000", "154237.407000", "154237.410000", "154237.412000", "154237.415000", "154237.417000", "154237.420000", "154237.422000", "154237.425000", "154237.427000", "154237.430000", "154237.432000", "154237.435000", "154237.437000", "154237.440000", "154237.446000", "154257.350000", "154257.353000", "154257.355000", "154257.358000", "154257.365000", "154257.367000", "154257.370000", "154257.372000", "154257.375000", "154257.377000", "154257.380000", "154257.382000", "154257.385000", "154257.387000", "154257.390000", "154257.392000", "154257.395000", "154257.397000", "154257.400000", "154257.402000", "154257.405000", "154317.338000", "154317.341000", "154317.343000", "154317.346000", "154317.348000", "154317.351000", "154317.353000", "154317.356000", "154317.358000", "154317.361000", "154317.363000", "154317.366000", "154317.368000", "154317.371000", "154317.373000", "154317.376000", "154317.378000", "154317.388000", "154317.390000", "154317.393000", "154337.314000", "154337.317000", "154337.334000", "154337.336000", "154337.339000", "154337.342000", "154337.344000", "154337.347000", "154337.349000", "154337.352000", "154337.354000", "154337.357000", "154337.359000", "154337.362000", "154337.364000", "154337.367000", "154337.370000", "154337.372000", "154337.375000", "154337.377000", "154417.386000", "154417.389000", "154417.392000", "154417.394000", "154417.397000", "154417.399000", "154417.402000", "154417.404000", "154417.407000", "154417.409000", "154417.412000", "154417.415000", "154417.417000", "154417.420000", "154417.422000", "154417.425000", "154417.427000", "154417.430000", "154417.432000", "154417.435000", "154417.438000", "154417.441000", "154417.444000", "154417.447000", "154417.450000", "154417.453000", "154417.457000", "154417.459000", "154417.462000", "154417.465000", "154417.468000", "154457.346000", "154457.349000", "154457.352000", "154457.354000", "154457.357000", "154457.359000", "154457.362000", "154457.364000", "154457.367000", "154457.370000", "154457.372000", "154457.375000", "154457.377000", "154457.380000", "154457.382000", "154457.385000", "154457.387000", "154457.390000", "154457.392000", "154457.395000", "154457.398000", "154457.400000", "154457.403000", "154457.405000", "154457.408000", "154457.410000", "154457.413000", "154537.349000", "154537.351000", "154537.354000", "154537.357000", "154537.359000", "154537.362000", "154537.364000", "154537.367000", "154537.369000", "154537.372000", "154537.374000", "154537.377000", "154537.379000", "154537.382000", "154537.384000", "154537.387000", "154537.389000", "154537.392000", "154537.395000", "154537.397000", "154537.400000", "154537.402000", "154537.405000", "154537.408000", "154537.410000", "154537.413000", "154537.415000", "154557.928000", "154557.931000", "154557.934000", "154557.936000", "154557.939000", "154557.941000", "154557.944000", "154557.946000", "154557.949000", "154557.951000", "154557.954000", "154557.956000", "154557.959000", "154637.361000", "154637.364000", "154637.366000", "154637.370000", "154637.372000", "154637.375000", "154637.377000", "154637.380000", "154637.382000", "154637.385000", "154637.387000", "154637.390000", "154637.393000", "154637.395000", "154637.398000", "154637.400000", "154637.403000", "154637.405000", "154637.408000", "154637.410000", "154637.413000", "154637.415000", "154637.418000", "154637.420000", "154637.423000", "154637.426000", "154637.428000", "154717.352000", "154717.354000", "154717.357000", "154717.359000", "154717.362000", "154717.365000", "154717.368000", "154717.371000", "154717.373000", "154717.376000", "154717.378000", "154717.381000", "154717.383000", "154717.386000", "154717.389000", "154717.391000", "154717.394000", "154717.396000", "154717.399000", "154717.401000", "154717.404000", "154717.406000", "154717.409000", "154717.411000", "154717.414000", "154717.416000", "154717.419000", "154757.354000", "154757.356000", "154757.359000", "154757.361000", "154757.364000", "154757.366000", "154757.369000", "154757.372000", "154757.374000", "154757.377000", "154757.379000", "154757.382000", "154757.384000", "154757.387000", "154757.389000", "154757.392000", "154757.395000", "154757.397000", "154757.400000", "154757.402000", "154757.405000", "154757.408000", "154757.410000", "154757.413000", "154757.415000", "154757.418000", "154757.421000", "154837.345000", "154837.348000", "154837.351000", "154837.353000", "154837.356000", "154837.358000", "154837.361000", "154837.363000", "154837.366000", "154837.368000", "154837.371000", "154837.374000", "154837.376000", "154837.379000", "154837.381000", "154837.384000", "154837.386000", "154837.389000", "154837.391000", "154837.394000", "154837.396000", "154837.399000", "154837.402000", "154837.404000", "154837.407000", "154837.409000", "154837.412000", "154917.353000", "154917.356000", "154917.358000", "154917.361000", "154917.363000", "154917.366000", "154917.369000", "154917.371000", "154917.374000", "154917.376000", "154917.379000", "154917.381000", "154917.384000", "154917.386000", "154917.389000", "154917.391000", "154917.394000", "154917.397000", "154917.400000", "154917.403000", "154917.405000", "154917.408000", "154917.410000", "154917.413000", "154917.415000", "154917.418000", "154917.420000", "154957.350000", "154957.353000", "154957.360000", "154957.363000", "154957.365000", "154957.368000", "154957.370000", "154957.373000", "154957.375000", "154957.378000", "154957.380000", "154957.383000", "154957.385000", "154957.388000", "154957.391000", "154957.393000", "154957.396000", "154957.398000", "154957.401000", "154957.403000", "154957.406000", "154957.408000", "154957.411000", "154957.413000", "154957.416000", "154957.418000", "154957.421000", "155037.341000", "155037.343000", "155037.346000", "155037.349000", "155037.351000", "155037.354000", "155037.356000", "155037.359000", "155037.361000", "155037.364000", "155037.366000", "155037.369000", "155037.372000", "155037.376000", "155037.379000", "155037.382000", "155037.385000", "155037.389000", "155037.391000", "155037.394000", "155037.397000", "155037.400000", "155037.402000", "155037.406000", "155037.408000", "155037.411000", "155117.356000", "155117.359000", "155117.361000", "155117.364000", "155117.366000", "155117.369000", "155117.371000", "155117.374000", "155117.376000", "155117.379000", "155117.381000", "155117.384000", "155117.387000", "155117.389000", "155117.392000", "155117.394000", "155117.397000", "155117.399000", "155117.402000", "155117.404000", "155117.407000", "155117.410000", "155117.412000", "155117.415000", "155117.417000", "155117.420000", "155117.422000", "155157.352000", "155157.355000", "155157.358000", "155157.360000", "155157.363000", "155157.365000", "155157.368000", "155157.370000", "155157.373000", "155157.376000", "155157.378000", "155157.381000", "155157.383000", "155157.386000", "155157.388000", "155157.391000", "155157.394000", "155157.396000", "155157.399000", "155157.401000", "155157.404000", "155157.406000", "155157.409000", "155157.411000", "155157.414000", "155157.416000", "155157.419000", "155237.344000", "155237.346000", "155237.349000", "155237.352000", "155237.354000", "155237.357000", "155237.359000", "155237.362000", "155237.364000", "155237.367000", "155237.369000", "155237.382000", "155237.385000", "155237.387000", "155237.390000", "155237.392000", "155237.395000", "155237.397000", "155237.400000", "155237.403000", "155237.405000", "155237.408000", "155237.410000", "155237.413000", "155237.415000", "155237.418000", "155237.420000", "155256.139000", "155256.142000", "155256.145000", "155256.148000", "155256.151000", "155256.153000", "155256.156000", "155256.159000", "155256.161000", "155256.164000", "155256.167000", "155256.169000", "155256.172000"],
