{
  "AcquisitionMatrixPE": 104,
  "AcquisitionNumber": 1,
  "AcquisitionTime": "16:07:18.215000",
  "BandwidthPerPixelPhaseEncode": 17.17,
  "BaseResolution": 104,
  "BodyPartExamined": "BRAIN",
  "CoilCombinationMethod": "Sum of Squares",
  "ConsistencyInfo": "N4_VE11C_LATEST_20160120",
  "ConversionSoftware": "dcm2niix",
  "ConversionSoftwareVersion": "v1.0.20211006",
  "DerivedVendorReportedEchoSpacing": 0.000560011,
  "DeviceSerialNumber": "167006",
  "DwellTime": 2.1e-06,
  "EchoTime": 0.037,
  "EchoTrainLength": 104,
  "EffectiveEchoSpacing": 0.000560011,
  "FlipAngle": 52,
  "HeudiconvVersion": "0.11.3.post9+gc939bf8",
  "ImageComments": "Unaliased MB4/PE3/LB",
  "ImageOrientationPatientDICOM": [0.997963, -0.0621006, 0.0146001, 0.063486, 0.944338, -0.322793],
  "ImageOrientationText": "Tra>Cor(-18.8)>Sag(-0.4)",
  "ImageType": [
    "ORIGINAL",
    "PRIMARY",
    "M",
    "MB",
    "ND",
    "MOSAIC"
],
  "ImagingFrequency": 123.259,
  "InPlanePhaseEncodingDirectionDICOM": "COL",
  "InstitutionAddress": "Chemin Queen-Mary 4565,Montreal,District,CA,H3W 1W5",
  "InstitutionName": "IUGM",
  "InstitutionalDepartmentName": "Department",
  "MRAcquisitionType": "2D",
  "MagneticFieldStrength": 3,
  "Manufacturer": "Siemens",
  "ManufacturersModelName": "Prisma_fit",
  "MatrixCoilMode": "SENSE",
  "Modality": "MR",
  "MultibandAccelerationFactor": 4,
  "PartialFourier": 1,
  "PatientPosition": "HFS",
  "PercentPhaseFOV": 100,
  "PercentSampling": 100,
  "PhaseEncodingDirection": "j",
  "PhaseEncodingSteps": 104,
  "PhaseResolution": 1,
  "PixelBandwidth": 2290,
  "ProcedureStepDescription": "games^mariostars",
  "ProtocolName": "func_task-mariostars_run-03",
  "PulseSequenceDetails": "%CustomerSeq%\\cmrr_mbep2d_bold",
  "ReceiveCoilActiveElements": "HC1-7;NC1,2",
  "ReceiveCoilName": "HeadNeck_64",
  "ReconMatrixPE": 104,
  "RepetitionTime": 1.49,
  "SAR": 0.0926512,
  "ScanOptions": "FS",
  "ScanningSequence": "EP",
  "SequenceName": "epfid2d1_104",
  "SequenceVariant": "SK\\SS",
  "SeriesDescription": "func_task-mariostars_run-03",
  "SeriesNumber": 17,
  "ShimSetting": [622, -7259, -8829, 528, 28, -243, -80, -15],
  "SliceThickness": 2,
  "SliceTiming": [0, 0.785, 0.0975, 0.8825, 0.1975, 0.98, 0.295, 1.0775, 0.3925, 1.1775, 0.49, 1.275, 0.5875, 1.3725, 0.6875, 0, 0.785, 0.0975, 0.8825, 0.1975, 0.98, 0.295, 1.0775, 0.3925, 1.1775, 0.49, 1.275, 0.5875, 1.3725, 0.6875, 0, 0.785, 0.0975, 0.8825, 0.1975, 0.98, 0.295, 1.0775, 0.3925, 1.1775, 0.49, 1.275, 0.5875, 1.3725, 0.6875, 0, 0.785, 0.0975, 0.8825, 0.1975, 0.98, 0.295, 1.0775, 0.3925, 1.1775, 0.49, 1.275, 0.5875, 1.3725, 0.6875],
  "SoftwareVersions": "syngo MR E11",
  "SpacingBetweenSlices": 2,
  "StationName": "MRC35049",
  "TaskName": "mariostars",
  "TotalReadoutTime": 0.0576811,
  "TxRefAmp": 308.978,
  "WipMemBlock": "26b1cb26-9a8f-4086-b2b9-f72a901a2528||Sequence: R017 ve11c/master r/75a17815+; Jun 28 2022 16:32:11 by eja",
  "dcmmeta_affine": [
    [-1.9959262609481812, 0.12697206437587738, -0.012516383081674576, 100.65763854980469],
    [0.12420111149549484, 1.8886761665344238, -0.6461242437362671, -72.2423324584961],
    [0.029200168326497078, 0.6455854177474976, 1.8927141427993774, -66.38787078857422],
    [0.0, 0.0, 0.0, 1.0]
],
  "dcmmeta_reorient_transform": [
    [0.0, -1.0, 0.0, 103.0],
    [1.0, 0.0, 0.0, 0.0],
    [0.0, 0.0, 1.0, 0.0],
    [0.0, 0.0, 0.0, 1.0]
],
  "dcmmeta_shape": [104, 104, 60, 468],
  "dcmmeta_slice_dim": 2,
  "dcmmeta_version": 0.6,
  "global": {
    "const": {
      "AcquisitionMatrix": [104, 0, 0, 104],
      "AngioFlag": "N",
      "BitsAllocated": 16,
      "BitsStored": 16,
      "BodyPartExamined": "BRAIN",
      "Columns": 832,
      "EchoNumbers": 1,
      "EchoTime": 37.0,
      "EchoTrainLength": 104,
      "FlipAngle": 52.0,
      "HighBit": 15,
      "ImageOrientationPatient": [0.99796310487442, -0.062100554364, 0.01460008414687, 0.0634860327017, 0.94433806684539, -0.3227927185649],
      "ImagePositionPatient": [-886.47073542087, -764.56021702821, 224.47166505479],
      "ImageType": [
        "ORIGINAL",
        "PRIMARY",
        "M",
        "MB",
        "ND",
        "MOSAIC"
],
      "ImagedNucleus": "1H",
      "ImagingFrequency": 123.25883,
      "InPlanePhaseEncodingDirection": "COL",
      "MRAcquisitionType": "2D",
      "MagneticFieldStrength": 3.0,
      "Manufacturer": "SIEMENS",
      "ManufacturerModelName": "Prisma_fit",
      "Modality": "MR",
      "NumberOfAverages": 1.0,
      "NumberOfPhaseEncodingSteps": 104,
      "PercentPhaseFieldOfView": 100.0,
      "PercentSampling": 100.0,
      "PerformedProcedureStepStartTime": "153746.586000",
      "PhotometricInterpretation": "MONOCHROME2",
      "PixelBandwidth": 2290.0,
      "PixelRepresentation": 0,
      "PixelSpacing": [2.0, 2.0],
      "ProtocolName": "func_task-mariostars_run-03",
      "RepetitionTime": 1490.0,
      "Rows": 832,
      "SAR": 0.09265119339149,
      "SamplesPerPixel": 1,
      "ScanOptions": "FS",
      "ScanningSequence": "EP",
      "SequenceName": "epfid2d1_104",
      "SequenceVariant": [
        "SK",
        "SS"
],
      "SeriesDescription": "func_task-mariostars_run-03",
      "SeriesNumber": 17,
      "SeriesTime": "160809.120000",
      "SliceLocation": -40.117805522874,
      "SliceThickness": 2.0,
      "SmallestImagePixelValue": 0,
      "SoftwareVersions": "syngo MR E11",
      "SpacingBetweenSlices": 1.999999958832,
      "SpecificCharacterSet": "ISO_IR 100",
      "StudyID": "1",
      "StudyTime": "153746.515000",
      "TransmitCoilName": "Body",
      "VariableFlipAngleFlag": "N",
      "WindowCenterWidthExplanation": "Algo1",
      "dBdt": 0.0},
    "slices": {}
  },
  "time": {
    "samples": {
      "AcquisitionNumber": [1, 2, 3, 4, 5, 6, 7, 8, 9, 10, 11, 12, 13, 14, 15, 16, 17, 18, 19, 20, 21, 22, 23, 24, 25, 26, 27, 28, 29, 30, 31, 32, 33, 34, 35, 36, 37, 38, 39, 40, 41, 42, 43, 44, 45, 46, 47, 48, 49, 50, 51, 52, 53, 54, 55, 56, 57, 58, 59, 60, 61, 62, 63, 64, 65, 66, 67, 68, 69, 70, 71, 72, 73, 74, 75, 76, 77, 78, 79, 80, 81, 82, 83, 84, 85, 86, 87, 88, 89, 90, 91, 92, 93, 94, 95, 96, 97, 98, 99, 100, 101, 102, 103, 104, 105, 106, 107, 108, 109, 110, 111, 112, 113, 114, 115, 116, 117, 118, 119, 120, 121, 122, 123, 124, 125, 126, 127, 128, 129, 130, 131, 132, 133, 134, 135, 136, 137, 138, 139, 140, 141, 142, 143, 144, 145, 146, 147, 148, 149, 150, 151, 152, 153, 154, 155, 156, 157, 158, 159, 160, 161, 162, 163, 164, 165, 166, 167, 168, 169, 170, 171, 172, 173, 174, 175, 176, 177, 178, 179, 180, 181, 182, 183, 184, 185, 186, 187, 188, 189, 190, 191, 192, 193, 194, 195, 196, 197, 198, 199, 200, 201, 202, 203, 204, 205, 206, 207, 208, 209, 210, 211, 212, 213, 214, 215, 216, 217, 218, 219, 220, 221, 222, 223, 224, 225, 226, 227, 228, 229, 230, 231, 232, 233, 234, 235, 236, 237, 238, 239, 240, 241, 242, 243, 244, 245, 246, 247, 248, 249, 250, 251, 252, 253, 254, 255, 256, 257, 258, 259, 260, 261, 262, 263, 264, 265, 266, 267, 268, 269, 270, 271, 272, 273, 274, 275, 276, 277, 278, 279, 280, 281, 282, 283, 284, 285, 286, 287, 288, 289, 290, 291, 292, 293, 294, 295, 296, 297, 298, 299, 300, 301, 302, 303, 304, 305, 306, 307, 308, 309, 310, 311, 312, 313, 314, 315, 316, 317, 318, 319, 320, 321, 322, 323, 324, 325, 326, 327, 328, 329, 330, 331, 332, 333, 334, 335, 336, 337, 338, 339, 340, 341, 342, 343, 344, 345, 346, 347, 348, 349, 350, 351, 352, 353, 354, 355, 356, 357, 358, 359, 360, 361, 362, 363, 364, 365, 366, 367, 368, 369, 370, 371, 372, 373, 374, 375, 376, 377, 378, 379, 380, 381, 382, 383, 384, 385, 386, 387, 388, 389, 390, 391, 392, 393, 394, 395, 396, 397, 398, 399, 400, 401, 402, 403, 404, 405, 406, 407, 408, 409, 410, 411, 412, 413, 414, 415, 416, 417, 418, 419, 420, 421, 422, 423, 424, 425, 426, 427, 428, 429, 430, 431, 432, 433, 434, 435, 436, 437, 438, 439, 440, 441, 442, 443, 444, 445, 446, 447, 448, 449, 450, 451, 452, 453, 454, 455, 456, 457, 458, 459, 460, 461, 462, 463, 464, 465, 466, 467, 468],
      "AcquisitionTime": ["160718.215000", "160719.705000", "160721.195000", "160722.685000", "160724.175000", "160725.665000", "160727.155000", "160728.645000", "160730.135000", "160731.625000", "160733.115000", "160734.605000", "160736.095000", "160737.585000", "160739.075000", "160740.565000", "160742.055000", "160743.545000", "160745.035000", "160746.525000", "160748.015000", "160749.505000", "160750.995000", "160752.485000", "160753.975000", "160755.465000", "160756.955000", "160758.445000", "160759.935000", "160801.425000", "160802.915000", "160804.405000", "160805.895000", "160807.385000", "160808.875000", "160810.365000", "160811.855000", "160813.345000", "160814.835000", "160816.325000", "160817.815000", "160819.305000", "160820.795000", "160822.285000", "160823.775000", "160825.265000", "160826.755000", "160828.245000", "160829.735000", "160831.225000", "160832.715000", "160834.205000", "160835.695000", "160837.185000", "160838.675000", "160840.165000", "160841.655000", "160843.145000", "160844.635000", "160846.125000", "160847.615000", "160849.105000", "160850.595000", "160852.085000", "160853.575000", "160855.065000", "160856.555000", "160858.045000", "160859.535000", "160901.025000", "160902.515000", "160904.005000", "160905.495000", "160906.985000", "160908.475000", "160909.965000", "160911.455000", "160912.945000", "160914.435000", "160915.925000", "160917.415000", "160918.905000", "160920.395000", "160921.885000", "160923.375000", "160924.865000", "160926.355000", "160927.845000", "160929.335000", "160930.825000", "160932.315000", "160933.805000", "160935.295000", "160936.785000", "160938.275000", "160939.765000", "160941.255000", "160942.745000", "160944.235000", "160945.725000", "160947.215000", "160948.705000", "160950.195000", "160951.685000", "160953.175000", "160954.665000", "160956.155000", "160957.645000", "160959.135000", "161000.625000", "161002.115000", "161003.605000", "161005.095000", "161006.585000", "161008.075000", "161009.565000", "161011.055000", "161012.545000", "161014.035000", "161015.525000", "161017.015000", "161018.505000", "161019.995000", "161021.485000", "161022.975000", "161024.465000", "161025.955000", "161027.445000", "161028.935000", "161030.425000", "161031.915000", "161033.405000", "161034.895000", "161036.385000", "161037.875000", "161039.365000", "161040.855000", "161042.345000", "161043.835000", "161045.325000", "161046.815000", "161048.305000", "161049.795000", "161051.285000", "161052.775000", "161054.265000", "161055.755000", "161057.245000", "161058.735000", "161100.225000", "161101.715000", "161103.205000", "161104.695000", "161106.185000", "161107.675000", "161109.165000", "161110.655000", "161112.145000", "161113.635000", "161115.125000", "161116.615000", "161118.105000", "161119.595000", "161121.085000", "161122.575000", "161124.065000", "161125.555000", "161127.045000", "161128.535000", "161130.025000", "161131.515000", "161133.005000", "161134.495000", "161135.985000", "161137.475000", "161138.965000", "161140.455000", "161141.945000", "161143.435000", "161144.925000", "161146.415000", "161147.905000", "161149.395000", "161150.885000", "161152.375000", "161153.865000", "161155.355000", "161156.845000", "161158.335000", "161159.825000", "161201.315000", "161202.805000", "161204.295000", "161205.785000", "161207.275000", "161208.765000", "161210.255000", "161211.745000", "161213.235000", "161214.725000", "161216.215000", "161217.705000", "161219.195000", "161220.685000", "161222.175000", "161223.665000", "161225.155000", "161226.645000", "161228.135000", "161229.625000", "161231.115000", "161232.605000", "161234.095000", "161235.585000", "161237.075000", "161238.565000", "161240.055000", "161241.545000", "161243.035000", "161244.525000", "161246.015000", "161247.505000", "161248.995000", "161250.485000", "161251.975000", "161253.465000", "161254.955000", "161256.445000", "161257.935000", "161259.425000", "161300.915000", "161302.405000", "161303.895000", "161305.385000", "161306.875000", "161308.365000", "161309.855000", "161311.345000", "161312.835000", "161314.325000", "161315.815000", "161317.305000", "161318.795000", "161320.285000", "161321.775000", "161323.265000", "161324.755000", "161326.245000", "161327.735000", "161329.225000", "161330.715000", "161332.205000", "161333.695000", "161335.185000", "161336.675000", "161338.165000", "161339.655000", "161341.145000", "161342.635000", "161344.125000", "161345.615000", "161347.105000", "161348.595000", "161350.085000", "161351.575000", "161353.065000", "161354.555000", "161356.045000", "161357.535000", "161359.025000", "161400.515000", "161402.005000", "161403.495000", "161404.985000", "161406.475000", "161407.965000", "161409.455000", "161410.945000", "161412.435000", "161413.925000", "161415.415000", "161416.905000", "161418.395000", "161419.885000", "161421.375000", "161422.865000", "161424.355000", "161425.845000", "161427.335000", "161428.825000", "161430.315000", "161431.805000", "161433.295000", "161434.785000", "161436.275000", "161437.765000", "161439.255000", "161440.745000", "161442.235000", "161443.725000", "161445.215000", "161446.705000", "161448.195000", "161449.685000", "161451.175000", "161452.665000", "161454.155000", "161455.645000", "161457.135000", "161458.625000", "161500.115000", "161501.605000", "161503.095000", "161504.585000", "161506.075000", "161507.565000", "161509.055000", "161510.545000", "161512.035000", "161513.525000", "161515.015000", "161516.505000", "161517.995000", "161519.485000", "161520.975000", "161522.465000", "161523.955000", "161525.445000", "161526.935000", "161528.425000", "161529.915000", "161531.405000", "161532.895000", "161534.385000", "161535.875000", "161537.365000", "161538.855000", "161540.345000", "161541.835000", "161543.325000", "161544.815000", "161546.305000", "161547.795000", "161549.285000", "161550.775000", "161552.265000", "161553.755000", "161555.245000", "161556.735000", "161558.225000", "161559.715000", "161601.205000", "161602.695000", "161604.185000", "161605.675000", "161607.165000", "161608.655000", "161610.145000", "161611.635000", "161613.125000", "161614.615000", "161616.105000", "161617.595000", "161619.085000", "161620.575000", "161622.065000", "161623.555000", "161625.045000", "161626.535000", "161628.025000", "161629.515000", "161631.005000", "161632.495000", "161633.985000", "161635.475000", "161636.965000", "161638.455000", "161639.945000", "161641.435000", "161642.925000", "161644.415000", "161645.905000", "161647.395000", "161648.885000", "161650.375000", "161651.865000", "161653.355000", "161654.845000", "161656.335000", "161657.825000", "161659.315000", "161700.805000", "161702.295000", "161703.785000", "161705.275000", "161706.765000", "161708.255000", "161709.745000", "161711.235000", "161712.725000", "161714.215000", "161715.705000", "161717.195000", "161718.685000", "161720.175000", "161721.665000", "161723.155000", "161724.645000", "161726.135000", "161727.625000", "161729.115000", "161730.605000", "161732.095000", "161733.585000", "161735.075000", "161736.565000", "161738.055000", "161739.545000", "161741.035000", "161742.525000", "161744.015000", "161745.505000", "161746.995000", "161748.485000", "161749.975000", "161751.465000", "161752.955000", "161754.445000", "161755.935000", "161757.425000", "161758.915000", "161800.405000", "161801.895000", "161803.385000", "161804.875000", "161806.365000", "161807.855000", "161809.345000", "161810.835000", "161812.325000", "161813.815000", "161815.305000", "161816.795000", "161818.285000", "161819.775000", "161821.265000", "161822.755000", "161824.245000", "161825.735000", "161827.225000", "161828.715000", "161830.205000", "161831.695000", "161833.185000", "161834.675000", "161836.165000", "161837.655000", "161839.145000", "161840.635000", "161842.125000", "161843.615000", "161845.105000", "161846.595000", "161848.085000", "161849.575000", "161851.065000", "161852.555000", "161854.045000"],
      "ContentTime": ["160809.123000", "160829.084000", "160829.088000", "160829.091000", "160829.094000", "160829.105000", "160829.108000", "160829.111000", "160829.115000", "160829.118000", "160829.121000", "160829.125000", "160829.128000", "160829.131000", "160829.135000", "160829.138000", "160829.141000", "160829.145000", "160829.148000", "160829.151000", "160829.155000", "160829.158000", "160849.084000", "160849.088000", "160849.091000", "160849.106000", "160849.110000", "160849.113000", "160849.116000", "160849.119000", "160849.123000", "160849.126000", "160849.130000", "160849.133000", "160849.136000", "160849.139000", "160849.143000", "160849.146000", "160849.150000", "160849.153000", "160849.156000", "160849.160000", "160909.084000", "160909.088000", "160909.091000", "160909.094000", "160909.098000", "160909.101000", "160909.105000", "160909.108000", "160909.111000", "160909.115000", "160909.118000", "160909.121000", "160909.125000", "160909.129000", "160909.132000", "160909.135000", "160909.139000", "160909.142000", "160909.146000", "160909.149000", "160929.084000", "160929.088000", "160929.091000", "160929.095000", "160929.098000", "160929.101000", "160929.105000", "160929.108000", "160929.111000", "160929.115000", "160929.118000", "160929.122000", "160929.125000", "160929.128000", "160929.132000", "160929.135000", "160929.138000", "160929.142000", "160929.145000", "160929.148000", "161009.084000", "161009.088000", "161009.091000", "161009.095000", "161009.098000", "161009.102000", "161009.105000", "161009.108000", "161009.117000", "161009.120000", "161009.123000", "161009.127000", "161009.130000", "161009.134000", "161009.137000", "161009.140000", "161009.145000", "161009.148000", "161009.151000", "161009.155000", "161009.158000", "161009.168000", "161009.171000", "161009.175000", "161009.178000", "161009.181000", "161009.185000", "161009.188000", "161009.192000", "161009.195000", "161009.198000", "161009.202000", "161049.084000", "161049.088000", "161049.092000", "161049.098000", "161049.103000", "161049.107000", "161049.111000", "161049.114000", "161049.118000", "161049.121000", "161049.125000", "161049.128000", "161049.132000", "161049.135000", "161049.138000", "161049.142000", "161049.145000", "161049.158000", "161049.161000", "161049.165000", "161049.168000", "161049.172000", "161049.175000", "161049.178000", "161049.182000", "161049.185000", "161129.084000", "161129.088000", "161129.092000", "161129.095000", "161129.098000", "161129.102000", "161129.105000", "161129.109000", "161129.112000", "161129.115000", "161129.119000", "161129.122000", "161129.126000", "161129.129000", "161129.132000", "161129.136000", "161129.139000", "161129.142000", "161129.146000", "161129.149000", "161129.153000", "161129.156000", "161129.159000", "161129.163000", "161129.166000", "161129.169000", "161129.173000", "161209.085000", "161209.089000", "161209.093000", "161209.096000", "161209.099000", "161209.103000", "161209.106000", "161209.110000", "161209.113000", "161209.116000", "161209.120000", "161209.123000", "161209.127000", "161209.130000", "161209.133000", "161209.137000", "161209.140000", "161209.143000", "161209.147000", "161209.150000", "161209.153000", "161209.157000", "161209.160000", "161209.164000", "161209.167000", "161209.171000", "161209.174000", "161249.085000", "161249.089000", "161249.092000", "161249.096000", "161249.099000", "161249.103000", "161249.106000", "161249.110000", "161249.113000", "161249.116000", "161249.120000", "161249.123000", "161249.127000", "161249.130000", "161249.133000", "161249.137000", "161249.140000", "161249.144000", "161249.147000", "161249.150000", "161249.154000", "161249.157000", "161249.161000", "161249.164000", "161249.168000", "161249.171000", "161249.174000", "161329.084000", "161329.088000", "161329.092000", "161329.095000", "161329.098000", "161329.102000", "161329.105000", "161329.109000", "161329.112000", "161329.115000", "161329.119000", "161329.122000", "161329.125000", "161329.129000", "161329.132000", "161329.143000", "161329.146000", "161329.149000", "161329.153000", "161329.156000", "161329.159000", "161329.163000", "161329.166000", "161329.170000", "161329.173000", "161329.176000", "161329.180000", "161409.084000", "161409.088000", "161409.091000", "161409.095000", "161409.098000", "161409.102000", "161409.105000", "161409.108000", "161409.112000", "161409.115000", "161409.119000", "161409.122000", "161409.126000", "161409.129000", "161409.132000", "161409.136000", "161409.139000", "161409.142000", "161409.146000", "161409.149000", "161409.153000", "161409.156000", "161409.159000", "161409.163000", "161409.166000", "161409.169000", "161409.173000", "161449.086000", "161449.089000", "161449.093000", "161449.096000", "161449.099000", "161449.103000", "161449.106000", "161449.110000", "161449.113000", "161449.116000", "161449.120000", "161449.123000", "161449.127000", "161449.130000", "161449.133000", "161449.137000", "161449.140000", "161449.144000", "161449.147000", "161449.150000", "161449.154000", "161449.157000", "161449.161000", "161449.164000", "161449.167000", "161449.171000", "161449.174000", "161529.084000", "161529.088000", "161529.091000", "161529.095000", "161529.098000", "161529.102000", "161529.105000", "161529.108000", "161529.112000", "161529.115000", "161529.119000", "161529.122000", "161529.126000", "161529.129000", "161529.132000", "161529.136000", "161529.139000", "161529.143000", "161529.157000", "161529.160000", "161529.164000", "161529.167000", "161529.170000", "161529.174000", "161529.177000", "161529.180000", "161609.084000", "161609.088000", "161609.091000", "161609.095000", "161609.098000", "161609.102000", "161609.105000", "161609.108000", "161609.112000", "161609.115000", "161609.118000", "161609.122000", "161609.125000", "161609.129000", "161609.132000", "161609.135000", "161609.139000", "161609.142000", "161609.146000", "161609.149000", "161609.152000", "161609.156000", "161609.159000", "161609.162000", "161609.166000", "161609.169000", "161609.172000", "161649.084000", "161649.088000", "161649.092000", "161649.095000", "161649.099000", "161649.102000", "161649.106000", "161649.109000", "161649.114000", "161649.118000", "161649.121000", "161649.124000", "161649.128000", "161649.131000", "161649.134000", "161649.138000", "161649.141000", "161649.144000", "161649.148000", "161649.151000", "161649.155000", "161649.158000", "161649.161000", "161649.165000", "161649.168000", "161649.172000", "161649.175000", "161729.085000", "161729.089000", "161729.092000", "161729.096000", "161729.099000", "161729.103000", "161729.106000", "161729.109000", "161729.113000", "161729.116000", "161729.120000", "161729.123000", "161729.126000", "161729.130000", "161729.133000", "161729.136000", "161729.140000", "161729.143000", "161729.146000", "161729.150000", "161729.153000", "161729.156000", "161729.160000", "161729.176000", "161729.179000", "161729.183000", "161729.186000", "161809.084000", "161809.088000", "161809.091000", "161809.095000", "161809.098000", "161809.101000", "161809.105000", "161809.108000", "161809.112000", "161809.115000", "161809.118000", "161809.122000", "161809.125000", "161809.129000", "161809.132000", "161809.135000", "161809.139000", "161809.142000", "161809.146000", "161809.149000", "161809.152000", "161809.156000", "161809.159000", "161809.162000", "161809.166000", "161809.169000", "161809.173000", "161849.084000", "161849.088000", "161849.091000", "161849.095000", "161849.098000", "161849.102000", "161849.105000", "161849.108000", "161849.112000", "161849.115000", "161849.119000", "161849.122000", "161849.125000", "161849.129000", "161849.132000", "161849.135000", "161849.139000", "161849.142000", "161849.145000", "161849.149000", "161849.152000", "161849.156000", "161849.159000", "161849.162000", "161849.166000", "161849.169000", "161849.172000", "161856.826000", "161856.830000", "161856.833000", "161856.837000", "161856.840000"],
