{
  "AcquisitionMatrixPE": 104,
  "AcquisitionNumber": 1,
  "AcquisitionTime": "16:07:18.215000",
  "BandwidthPerPixelPhaseEncode": 17.17,
  "BaseResolution": 104,
  "BodyPartExamined": "BRAIN",
  "CoilCombinationMethod": "Sum of Squares",
  "ConsistencyInfo": "N4_VE11C_LATEST_20160120",
  "ConversionSoftware": "dcm2niix",
  "ConversionSoftwareVersion": "v1.0.20211006",
  "DerivedVendorReportedEchoSpacing": 0.000560011,
  "DeviceSerialNumber": "167006",
  "DwellTime": 2.1e-06,
  "EchoTime": 0.037,
  "EchoTime1": 0.037,
  "EchoTime2": 0.001,
  "EchoTrainLength": 104,
  "EffectiveEchoSpacing": 0.000560011,
  "FlipAngle": 52,
  "HeudiconvVersion": "0.11.3.post9+gc939bf8",
  "ImageComments": "Unaliased MB4/PE3/LB",
  "ImageOrientationPatientDICOM": [0.997963, -0.0621006, 0.0146001, 0.063486, 0.944338, -0.322793],
  "ImageOrientationText": "Tra>Cor(-18.8)>Sag(-0.4)",
  "ImageType": [
    "ORIGINAL",
    "PRIMARY",
    "P",
    "MB",
    "ND",
    "MOSAIC",
    "PHASE"
],
  "ImagingFrequency": 123.259,
  "InPlanePhaseEncodingDirectionDICOM": "COL",
  "InstitutionAddress": "Chemin Queen-Mary 4565,Montreal,District,CA,H3W 1W5",
  "InstitutionName": "IUGM",
  "InstitutionalDepartmentName": "Department",
  "MRAcquisitionType": "2D",
  "MagneticFieldStrength": 3,
  "Manufacturer": "Siemens",
  "ManufacturersModelName": "Prisma_fit",
  "MatrixCoilMode": "SENSE",
  "Modality": "MR",
  "MultibandAccelerationFactor": 4,
  "PartialFourier": 1,
  "PatientPosition": "HFS",
  "PercentPhaseFOV": 100,
  "PercentSampling": 100,
  "PhaseEncodingDirection": "j",
  "PhaseEncodingSteps": 104,
  "PhaseResolution": 1,
  "PixelBandwidth": 2290,
  "ProcedureStepDescription": "games^mariostars",
  "ProtocolName": "func_task-mariostars_run-03",
  "PulseSequenceDetails": "%CustomerSeq%\\cmrr_mbep2d_bold",
  "ReceiveCoilActiveElements": "HC1-7;NC1,2",
  "ReceiveCoilName": "HeadNeck_64",
  "ReconMatrixPE": 104,
  "RepetitionTime": 1.49,
  "SAR": 0.0926512,
  "ScanOptions": "FS",
  "ScanningSequence": "EP",
  "SequenceName": "epfid2d1_104",
  "SequenceVariant": "SK\\SS",
  "SeriesDescription": "func_task-mariostars_run-03",
  "SeriesNumber": 18,
  "ShimSetting": [622, -7259, -8829, 528, 28, -243, -80, -15],
  "SliceThickness": 2,
  "SliceTiming": [0, 0.785, 0.0975, 0.8825, 0.1975, 0.98, 0.295, 1.0775, 0.3925, 1.1775, 0.49, 1.275, 0.5875, 1.3725, 0.6875, 0, 0.785, 0.0975, 0.8825, 0.1975, 0.98, 0.295, 1.0775, 0.3925, 1.1775, 0.49, 1.275, 0.5875, 1.3725, 0.6875, 0, 0.785, 0.0975, 0.8825, 0.1975, 0.98, 0.295, 1.0775, 0.3925, 1.1775, 0.49, 1.275, 0.5875, 1.3725, 0.6875, 0, 0.785, 0.0975, 0.8825, 0.1975, 0.98, 0.295, 1.0775, 0.3925, 1.1775, 0.49, 1.275, 0.5875, 1.3725, 0.6875],
  "SoftwareVersions": "syngo MR E11",
  "SpacingBetweenSlices": 2,
  "StationName": "MRC35049",
  "TaskName": "mariostars",
  "TotalReadoutTime": 0.0576811,
  "TxRefAmp": 308.978,
  "WipMemBlock": "26b1cb26-9a8f-4086-b2b9-f72a901a2528||Sequence: R017 ve11c/master r/75a17815+; Jun 28 2022 16:32:11 by eja",
  "dcmmeta_affine": [
    [-1.9959262609481812, 0.12697206437587738, -0.012516383081674576, 100.65763854980469],
    [0.12420111149549484, 1.8886761665344238, -0.6461242437362671, -72.2423324584961],
    [0.029200168326497078, 0.6455854177474976, 1.8927141427993774, -66.38787078857422],
    [0.0, 0.0, 0.0, 1.0]
],
  "dcmmeta_reorient_transform": [
    [0.0, -1.0, 0.0, 103.0],
    [1.0, 0.0, 0.0, 0.0],
    [0.0, 0.0, 1.0, 0.0],
    [0.0, 0.0, 0.0, 1.0]
],
  "dcmmeta_shape": [104, 104, 60, 468],
  "dcmmeta_slice_dim": 2,
  "dcmmeta_version": 0.6,
  "global": {
    "const": {
      "AcquisitionMatrix": [104, 0, 0, 104],
      "AngioFlag": "N",
      "BitsAllocated": 16,
      "BitsStored": 16,
      "BodyPartExamined": "BRAIN",
      "Columns": 832,
      "EchoNumbers": 1,
      "EchoTime": 37.0,
      "EchoTrainLength": 104,
      "FlipAngle": 52.0,
      "HighBit": 15,
      "ImageOrientationPatient": [0.99796310487442, -0.062100554364, 0.01460008414687, 0.0634860327017, 0.94433806684539, -0.3227927185649],
      "ImagePositionPatient": [-886.47073542087, -764.56021702821, 224.47166505479],
      "ImageType": [
        "ORIGINAL",
        "PRIMARY",
        "P",
        "MB",
        "ND",
        "MOSAIC"
],
      "ImagedNucleus": "1H",
      "ImagingFrequency": 123.25883,
      "InPlanePhaseEncodingDirection": "COL",
      "LargestImagePixelValue": 4095,
      "MRAcquisitionType": "2D",
      "MagneticFieldStrength": 3.0,
      "Manufacturer": "SIEMENS",
      "ManufacturerModelName": "Prisma_fit",
      "Modality": "MR",
      "NumberOfAverages": 1.0,
      "NumberOfPhaseEncodingSteps": 104,
      "PercentPhaseFieldOfView": 100.0,
      "PercentSampling": 100.0,
      "PerformedProcedureStepStartTime": "153746.586000",
      "PhotometricInterpretation": "MONOCHROME2",
      "PixelBandwidth": 2290.0,
      "PixelRepresentation": 0,
      "PixelSpacing": [2.0, 2.0],
      "ProtocolName": "func_task-mariostars_run-03",
      "RepetitionTime": 1490.0,
      "RescaleIntercept": -4096.0,
      "RescaleSlope": 2.0,
      "RescaleType": "US",
      "Rows": 832,
      "SAR": 0.09265119339149,
      "SamplesPerPixel": 1,
      "ScanOptions": "FS",
      "ScanningSequence": "EP",
      "SequenceName": "epfid2d1_104",
      "SequenceVariant": [
        "SK",
        "SS"
],
      "SeriesDescription": "func_task-mariostars_run-03",
      "SeriesNumber": 18,
      "SeriesTime": "160809.160000",
      "SliceLocation": -40.117805522874,
      "SliceThickness": 2.0,
      "SmallestImagePixelValue": 0,
      "SoftwareVersions": "syngo MR E11",
      "SpacingBetweenSlices": 1.999999958832,
      "SpecificCharacterSet": "ISO_IR 100",
      "StudyID": "1",
      "StudyTime": "153746.515000",
      "TransmitCoilName": "Body",
      "VariableFlipAngleFlag": "N",
      "WindowCenterWidthExplanation": "Algo1",
      "dBdt": 0.0},
    "slices": {}
  },
  "time": {
    "samples": {
      "AcquisitionNumber": [1, 2, 3, 4, 5, 6, 7, 8, 9, 10, 11, 12, 13, 14, 15, 16, 17, 18, 19, 20, 21, 22, 23, 24, 25, 26, 27, 28, 29, 30, 31, 32, 33, 34, 35, 36, 37, 38, 39, 40, 41, 42, 43, 44, 45, 46, 47, 48, 49, 50, 51, 52, 53, 54, 55, 56, 57, 58, 59, 60, 61, 62, 63, 64, 65, 66, 67, 68, 69, 70, 71, 72, 73, 74, 75, 76, 77, 78, 79, 80, 81, 82, 83, 84, 85, 86, 87, 88, 89, 90, 91, 92, 93, 94, 95, 96, 97, 98, 99, 100, 101, 102, 103, 104, 105, 106, 107, 108, 109, 110, 111, 112, 113, 114, 115, 116, 117, 118, 119, 120, 121, 122, 123, 124, 125, 126, 127, 128, 129, 130, 131, 132, 133, 134, 135, 136, 137, 138, 139, 140, 141, 142, 143, 144, 145, 146, 147, 148, 149, 150, 151, 152, 153, 154, 155, 156, 157, 158, 159, 160, 161, 162, 163, 164, 165, 166, 167, 168, 169, 170, 171, 172, 173, 174, 175, 176, 177, 178, 179, 180, 181, 182, 183, 184, 185, 186, 187, 188, 189, 190, 191, 192, 193, 194, 195, 196, 197, 198, 199, 200, 201, 202, 203, 204, 205, 206, 207, 208, 209, 210, 211, 212, 213, 214, 215, 216, 217, 218, 219, 220, 221, 222, 223, 224, 225, 226, 227, 228, 229, 230, 231, 232, 233, 234, 235, 236, 237, 238, 239, 240, 241, 242, 243, 244, 245, 246, 247, 248, 249, 250, 251, 252, 253, 254, 255, 256, 257, 258, 259, 260, 261, 262, 263, 264, 265, 266, 267, 268, 269, 270, 271, 272, 273, 274, 275, 276, 277, 278, 279, 280, 281, 282, 283, 284, 285, 286, 287, 288, 289, 290, 291, 292, 293, 294, 295, 296, 297, 298, 299, 300, 301, 302, 303, 304, 305, 306, 307, 308, 309, 310, 311, 312, 313, 314, 315, 316, 317, 318, 319, 320, 321, 322, 323, 324, 325, 326, 327, 328, 329, 330, 331, 332, 333, 334, 335, 336, 337, 338, 339, 340, 341, 342, 343, 344, 345, 346, 347, 348, 349, 350, 351, 352, 353, 354, 355, 356, 357, 358, 359, 360, 361, 362, 363, 364, 365, 366, 367, 368, 369, 370, 371, 372, 373, 374, 375, 376, 377, 378, 379, 380, 381, 382, 383, 384, 385, 386, 387, 388, 389, 390, 391, 392, 393, 394, 395, 396, 397, 398, 399, 400, 401, 402, 403, 404, 405, 406, 407, 408, 409, 410, 411, 412, 413, 414, 415, 416, 417, 418, 419, 420, 421, 422, 423, 424, 425, 426, 427, 428, 429, 430, 431, 432, 433, 434, 435, 436, 437, 438, 439, 440, 441, 442, 443, 444, 445, 446, 447, 448, 449, 450, 451, 452, 453, 454, 455, 456, 457, 458, 459, 460, 461, 462, 463, 464, 465, 466, 467, 468],
      "AcquisitionTime": ["160718.215000", "160719.705000", "160721.195000", "160722.685000", "160724.175000", "160725.665000", "160727.155000", "160728.645000", "160730.135000", "160731.625000", "160733.115000", "160734.605000", "160736.095000", "160737.585000", "160739.075000", "160740.565000", "160742.055000", "160743.545000", "160745.035000", "160746.525000", "160748.015000", "160749.505000", "160750.995000", "160752.485000", "160753.975000", "160755.465000", "160756.955000", "160758.445000", "160759.935000", "160801.425000", "160802.915000", "160804.405000", "160805.895000", "160807.385000", "160808.875000", "160810.365000", "160811.855000", "160813.345000", "160814.835000", "160816.325000", "160817.815000", "160819.305000", "160820.795000", "160822.285000", "160823.775000", "160825.265000", "160826.755000", "160828.245000", "160829.735000", "160831.225000", "160832.715000", "160834.205000", "160835.695000", "160837.185000", "160838.675000", "160840.165000", "160841.655000", "160843.145000", "160844.635000", "160846.125000", "160847.615000", "160849.105000", "160850.595000", "160852.085000", "160853.575000", "160855.065000", "160856.555000", "160858.045000", "160859.535000", "160901.025000", "160902.515000", "160904.005000", "160905.495000", "160906.985000", "160908.475000", "160909.965000", "160911.455000", "160912.945000", "160914.435000", "160915.925000", "160917.415000", "160918.905000", "160920.395000", "160921.885000", "160923.375000", "160924.865000", "160926.355000", "160927.845000", "160929.335000", "160930.825000", "160932.315000", "160933.805000", "160935.295000", "160936.785000", "160938.275000", "160939.765000", "160941.255000", "160942.745000", "160944.235000", "160945.725000", "160947.215000", "160948.705000", "160950.195000", "160951.685000", "160953.175000", "160954.665000", "160956.155000", "160957.645000", "160959.135000", "161000.625000", "161002.115000", "161003.605000", "161005.095000", "161006.585000", "161008.075000", "161009.565000", "161011.055000", "161012.545000", "161014.035000", "161015.525000", "161017.015000", "161018.505000", "161019.995000", "161021.485000", "161022.975000", "161024.465000", "161025.955000", "161027.445000", "161028.935000", "161030.425000", "161031.915000", "161033.405000", "161034.895000", "161036.385000", "161037.875000", "161039.365000", "161040.855000", "161042.345000", "161043.835000", "161045.325000", "161046.815000", "161048.305000", "161049.795000", "161051.285000", "161052.775000", "161054.265000", "161055.755000", "161057.245000", "161058.735000", "161100.225000", "161101.715000", "161103.205000", "161104.695000", "161106.185000", "161107.675000", "161109.165000", "161110.655000", "161112.145000", "161113.635000", "161115.125000", "161116.615000", "161118.105000", "161119.595000", "161121.085000", "161122.575000", "161124.065000", "161125.555000", "161127.045000", "161128.535000", "161130.025000", "161131.515000", "161133.005000", "161134.495000", "161135.985000", "161137.475000", "161138.965000", "161140.455000", "161141.945000", "161143.435000", "161144.925000", "161146.415000", "161147.905000", "161149.395000", "161150.885000", "161152.375000", "161153.865000", "161155.355000", "161156.845000", "161158.335000", "161159.825000", "161201.315000", "161202.805000", "161204.295000", "161205.785000", "161207.275000", "161208.765000", "161210.255000", "161211.745000", "161213.235000", "161214.725000", "161216.215000", "161217.705000", "161219.195000", "161220.685000", "161222.175000", "161223.665000", "161225.155000", "161226.645000", "161228.135000", "161229.625000", "161231.115000", "161232.605000", "161234.095000", "161235.585000", "161237.075000", "161238.565000", "161240.055000", "161241.545000", "161243.035000", "161244.525000", "161246.015000", "161247.505000", "161248.995000", "161250.485000", "161251.975000", "161253.465000", "161254.955000", "161256.445000", "161257.935000", "161259.425000", "161300.915000", "161302.405000", "161303.895000", "161305.385000", "161306.875000", "161308.365000", "161309.855000", "161311.345000", "161312.835000", "161314.325000", "161315.815000", "161317.305000", "161318.795000", "161320.285000", "161321.775000", "161323.265000", "161324.755000", "161326.245000", "161327.735000", "161329.225000", "161330.715000", "161332.205000", "161333.695000", "161335.185000", "161336.675000", "161338.165000", "161339.655000", "161341.145000", "161342.635000", "161344.125000", "161345.615000", "161347.105000", "161348.595000", "161350.085000", "161351.575000", "161353.065000", "161354.555000", "161356.045000", "161357.535000", "161359.025000", "161400.515000", "161402.005000", "161403.495000", "161404.985000", "161406.475000", "161407.965000", "161409.455000", "161410.945000", "161412.435000", "161413.925000", "161415.415000", "161416.905000", "161418.395000", "161419.885000", "161421.375000", "161422.865000", "161424.355000", "161425.845000", "161427.335000", "161428.825000", "161430.315000", "161431.805000", "161433.295000", "161434.785000", "161436.275000", "161437.765000", "161439.255000", "161440.745000", "161442.235000", "161443.725000", "161445.215000", "161446.705000", "161448.195000", "161449.685000", "161451.175000", "161452.665000", "161454.155000", "161455.645000", "161457.135000", "161458.625000", "161500.115000", "161501.605000", "161503.095000", "161504.585000", "161506.075000", "161507.565000", "161509.055000", "161510.545000", "161512.035000", "161513.525000", "161515.015000", "161516.505000", "161517.995000", "161519.485000", "161520.975000", "161522.465000", "161523.955000", "161525.445000", "161526.935000", "161528.425000", "161529.915000", "161531.405000", "161532.895000", "161534.385000", "161535.875000", "161537.365000", "161538.855000", "161540.345000", "161541.835000", "161543.325000", "161544.815000", "161546.305000", "161547.795000", "161549.285000", "161550.775000", "161552.265000", "161553.755000", "161555.245000", "161556.735000", "161558.225000", "161559.715000", "161601.205000", "161602.695000", "161604.185000", "161605.675000", "161607.165000", "161608.655000", "161610.145000", "161611.635000", "161613.125000", "161614.615000", "161616.105000", "161617.595000", "161619.085000", "161620.575000", "161622.065000", "161623.555000", "161625.045000", "161626.535000", "161628.025000", "161629.515000", "161631.005000", "161632.495000", "161633.985000", "161635.475000", "161636.965000", "161638.455000", "161639.945000", "161641.435000", "161642.925000", "161644.415000", "161645.905000", "161647.395000", "161648.885000", "161650.375000", "161651.865000", "161653.355000", "161654.845000", "161656.335000", "161657.825000", "161659.315000", "161700.805000", "161702.295000", "161703.785000", "161705.275000", "161706.765000", "161708.255000", "161709.745000", "161711.235000", "161712.725000", "161714.215000", "161715.705000", "161717.195000", "161718.685000", "161720.175000", "161721.665000", "161723.155000", "161724.645000", "161726.135000", "161727.625000", "161729.115000", "161730.605000", "161732.095000", "161733.585000", "161735.075000", "161736.565000", "161738.055000", "161739.545000", "161741.035000", "161742.525000", "161744.015000", "161745.505000", "161746.995000", "161748.485000", "161749.975000", "161751.465000", "161752.955000", "161754.445000", "161755.935000", "161757.425000", "161758.915000", "161800.405000", "161801.895000", "161803.385000", "161804.875000", "161806.365000", "161807.855000", "161809.345000", "161810.835000", "161812.325000", "161813.815000", "161815.305000", "161816.795000", "161818.285000", "161819.775000", "161821.265000", "161822.755000", "161824.245000", "161825.735000", "161827.225000", "161828.715000", "161830.205000", "161831.695000", "161833.185000", "161834.675000", "161836.165000", "161837.655000", "161839.145000", "161840.635000", "161842.125000", "161843.615000", "161845.105000", "161846.595000", "161848.085000", "161849.575000", "161851.065000", "161852.555000", "161854.045000"],
      "ContentTime": ["160809.162000", "160829.216000", "160829.219000", "160829.221000", "160829.224000", "160829.226000", "160829.229000", "160829.231000", "160829.234000", "160829.237000", "160829.239000", "160829.242000", "160829.244000", "160829.247000", "160829.249000", "160829.252000", "160829.254000", "160829.257000", "160829.259000", "160829.267000", "160829.270000", "160829.272000", "160849.203000", "160849.206000", "160849.209000", "160849.211000", "160849.214000", "160849.216000", "160849.219000", "160849.221000", "160849.224000", "160849.226000", "160849.229000", "160849.231000", "160849.234000", "160849.236000", "160849.239000", "160849.241000", "160849.244000", "160849.246000", "160849.249000", "160849.251000", "160909.203000", "160909.205000", "160909.208000", "160909.211000", "160909.213000", "160909.216000", "160909.218000", "160909.221000", "160909.223000", "160909.226000", "160909.228000", "160909.231000", "160909.233000", "160909.236000", "160909.238000", "160909.241000", "160909.243000", "160909.246000", "160909.248000", "160909.251000", "160929.199000", "160929.201000", "160929.204000", "160929.206000", "160929.209000", "160929.212000", "160929.214000", "160929.217000", "160929.219000", "160929.222000", "160929.224000", "160929.227000", "160929.229000", "160929.232000", "160929.234000", "160929.237000", "160929.239000", "160929.242000", "160929.244000", "160929.247000", "161009.694000", "161009.697000", "161009.700000", "161009.702000", "161009.705000", "161009.707000", "161009.710000", "161009.712000", "161009.715000", "161009.717000", "161009.720000", "161009.723000", "161009.725000", "161009.728000", "161009.730000", "161009.733000", "161009.735000", "161009.738000", "161009.741000", "161009.743000", "161009.746000", "161009.748000", "161009.751000", "161009.753000", "161009.756000", "161009.758000", "161009.761000", "161009.764000", "161009.766000", "161009.769000", "161009.771000", "161009.774000", "161049.234000", "161049.236000", "161049.239000", "161049.241000", "161049.244000", "161049.246000", "161049.249000", "161049.252000", "161049.254000", "161049.257000", "161049.259000", "161049.262000", "161049.265000", "161049.267000", "161049.270000", "161049.272000", "161049.275000", "161049.278000", "161049.280000", "161049.283000", "161049.285000", "161049.288000", "161049.290000", "161049.293000", "161049.296000", "161049.298000", "161129.224000", "161129.227000", "161129.229000", "161129.232000", "161129.234000", "161129.237000", "161129.240000", "161129.242000", "161129.245000", "161129.247000", "161129.250000", "161129.253000", "161129.255000", "161129.258000", "161129.260000", "161129.263000", "161129.265000", "161129.268000", "161129.271000", "161129.274000", "161129.276000", "161129.279000", "161129.281000", "161129.284000", "161129.292000", "161129.294000", "161129.297000", "161209.226000", "161209.228000", "161209.231000", "161209.233000", "161209.236000", "161209.239000", "161209.241000", "161209.244000", "161209.246000", "161209.249000", "161209.251000", "161209.254000", "161209.257000", "161209.259000", "161209.262000", "161209.264000", "161209.267000", "161209.270000", "161209.272000", "161209.275000", "161209.277000", "161209.280000", "161209.282000", "161209.285000", "161209.287000", "161209.290000", "161209.293000", "161249.235000", "161249.238000", "161249.240000", "161249.243000", "161249.245000", "161249.248000", "161249.250000", "161249.253000", "161249.255000", "161249.258000", "161249.261000", "161249.263000", "161249.266000", "161249.268000", "161249.271000", "161249.273000", "161249.276000", "161249.279000", "161249.281000", "161249.284000", "161249.286000", "161249.289000", "161249.291000", "161249.294000", "161249.296000", "161249.299000", "161249.302000", "161329.231000", "161329.234000", "161329.236000", "161329.239000", "161329.241000", "161329.244000", "161329.246000", "161329.249000", "161329.251000", "161329.254000", "161329.256000", "161329.259000", "161329.262000", "161329.264000", "161329.267000", "161329.269000", "161329.272000", "161329.275000", "161329.277000", "161329.280000", "161329.282000", "161329.285000", "161329.287000", "161329.290000", "161329.292000", "161329.295000", "161329.298000", "161409.221000", "161409.224000", "161409.227000", "161409.229000", "161409.232000", "161409.234000", "161409.237000", "161409.239000", "161409.242000", "161409.245000", "161409.247000", "161409.250000", "161409.252000", "161409.255000", "161409.257000", "161409.260000", "161409.262000", "161409.265000", "161409.267000", "161409.270000", "161409.273000", "161409.275000", "161409.278000", "161409.280000", "161409.283000", "161409.286000", "161409.288000", "161449.225000", "161449.227000", "161449.230000", "161449.232000", "161449.235000", "161449.238000", "161449.240000", "161449.243000", "161449.245000", "161449.248000", "161449.250000", "161449.253000", "161449.255000", "161449.258000", "161449.261000", "161449.263000", "161449.266000", "161449.268000", "161449.271000", "161449.274000", "161449.276000", "161449.279000", "161449.281000", "161449.284000", "161449.286000", "161449.289000", "161449.291000", "161529.222000", "161529.225000", "161529.228000", "161529.231000", "161529.233000", "161529.236000", "161529.238000", "161529.241000", "161529.243000", "161529.246000", "161529.249000", "161529.251000", "161529.254000", "161529.256000", "161529.259000", "161529.261000", "161529.264000", "161529.266000", "161529.269000", "161529.272000", "161529.274000", "161529.277000", "161529.279000", "161529.282000", "161529.284000", "161529.287000", "161609.223000", "161609.226000", "161609.229000", "161609.231000", "161609.234000", "161609.236000", "161609.239000", "161609.241000", "161609.244000", "161609.246000", "161609.249000", "161609.251000", "161609.254000", "161609.257000", "161609.259000", "161609.262000", "161609.264000", "161609.267000", "161609.269000", "161609.272000", "161609.274000", "161609.277000", "161609.280000", "161609.282000", "161609.285000", "161609.287000", "161609.290000", "161649.237000", "161649.240000", "161649.242000", "161649.245000", "161649.248000", "161649.250000", "161649.253000", "161649.255000", "161649.258000", "161649.260000", "161649.263000", "161649.265000", "161649.268000", "161649.271000", "161649.273000", "161649.276000", "161649.278000", "161649.281000", "161649.284000", "161649.286000", "161649.289000", "161649.291000", "161649.294000", "161649.296000", "161649.299000", "161649.301000", "161649.304000", "161729.235000", "161729.238000", "161729.240000", "161729.243000", "161729.245000", "161729.248000", "161729.250000", "161729.253000", "161729.255000", "161729.258000", "161729.260000", "161729.263000", "161729.266000", "161729.268000", "161729.271000", "161729.274000", "161729.276000", "161729.279000", "161729.281000", "161729.284000", "161729.286000", "161729.289000", "161729.291000", "161729.294000", "161729.296000", "161729.299000", "161729.301000", "161809.232000", "161809.234000", "161809.237000", "161809.239000", "161809.242000", "161809.245000", "161809.247000", "161809.250000", "161809.252000", "161809.255000", "161809.257000", "161809.260000", "161809.262000", "161809.265000", "161809.267000", "161809.270000", "161809.273000", "161809.275000", "161809.278000", "161809.280000", "161809.283000", "161809.285000", "161809.288000", "161809.291000", "161809.293000", "161809.296000", "161809.298000", "161849.229000", "161849.232000", "161849.234000", "161849.237000", "161849.239000", "161849.242000", "161849.244000", "161849.247000", "161849.249000", "161849.252000", "161849.254000", "161849.257000", "161849.260000", "161849.262000", "161849.265000", "161849.267000", "161849.270000", "161849.272000", "161849.275000", "161849.277000", "161849.280000", "161849.282000", "161849.285000", "161849.288000", "161849.290000", "161849.293000", "161849.295000", "161856.868000", "161856.871000", "161856.874000", "161856.876000", "161856.879000"],
