{
  "AcquisitionMatrixPE": 104,
  "AcquisitionNumber": 1,
  "AcquisitionTime": "17:21:53.942500",
  "BandwidthPerPixelPhaseEncode": 17.17,
  "BaseResolution": 104,
  "BodyPartExamined": "BRAIN",
  "CoilCombinationMethod": "Sum of Squares",
  "ConsistencyInfo": "N4_VE11C_LATEST_20160120",
  "ConversionSoftware": "dcm2niix",
  "ConversionSoftwareVersion": "v1.0.20211006",
  "DerivedVendorReportedEchoSpacing": 0.000560011,
  "DeviceSerialNumber": "167006",
  "DwellTime": 2.1e-06,
  "EchoTime": 0.037,
  "EchoTime1": 0.037,
  "EchoTime2": 0.001,
  "EchoTrainLength": 104,
  "EffectiveEchoSpacing": 0.000560011,
  "FlipAngle": 52,
  "HeudiconvVersion": "0.11.3.post9+gc939bf8",
  "ImageComments": "Unaliased MB4/PE3/LB",
  "ImageOrientationPatientDICOM": [0.995216, 0.0939963, 0.0266573, -0.0798983, 0.940008, -0.331663],
  "ImageOrientationText": "Tra>Cor(-19.2)>Sag(3.2)",
  "ImageType": [
    "ORIGINAL",
    "PRIMARY",
    "P",
    "MB",
    "ND",
    "MOSAIC",
    "PHASE"
],
  "ImagingFrequency": 123.259,
  "InPlanePhaseEncodingDirectionDICOM": "COL",
  "InstitutionAddress": "Chemin Queen-Mary 4565,Montreal,District,CA,H3W 1W5",
  "InstitutionName": "IUGM",
  "InstitutionalDepartmentName": "Department",
  "MRAcquisitionType": "2D",
  "MagneticFieldStrength": 3,
  "Manufacturer": "Siemens",
  "ManufacturersModelName": "Prisma_fit",
  "MatrixCoilMode": "SENSE",
  "Modality": "MR",
  "MultibandAccelerationFactor": 4,
  "PartialFourier": 1,
  "PatientPosition": "HFS",
  "PercentPhaseFOV": 100,
  "PercentSampling": 100,
  "PhaseEncodingDirection": "j",
  "PhaseEncodingSteps": 104,
  "PhaseResolution": 1,
  "PixelBandwidth": 2290,
  "ProcedureStepDescription": "games^mariostars",
  "ProtocolName": "func_task-mariostars_run-01",
  "PulseSequenceDetails": "%CustomerSeq%\\cmrr_mbep2d_bold",
  "ReceiveCoilActiveElements": "HC1-7;NC1,2",
  "ReceiveCoilName": "HeadNeck_64",
  "ReconMatrixPE": 104,
  "RepetitionTime": 1.49,
  "SAR": 0.051815,
  "ScanOptions": "FS",
  "ScanningSequence": "EP",
  "SequenceName": "epfid2d1_104",
  "SequenceVariant": "SK\\SS",
  "SeriesDescription": "func_task-mariostars_run-01",
  "SeriesNumber": 11,
  "ShimSetting": [641, -7185, -8816, 659, 142, 16, -24, 4],
  "SliceThickness": 2,
  "SliceTiming": [0, 0.7825, 0.0975, 0.88, 0.195, 0.98, 0.2925, 1.0775, 0.39, 1.175, 0.49, 1.2725, 0.5875, 1.37, 0.685, 0, 0.7825, 0.0975, 0.88, 0.195, 0.98, 0.2925, 1.0775, 0.39, 1.175, 0.49, 1.2725, 0.5875, 1.37, 0.685, 0, 0.7825, 0.0975, 0.88, 0.195, 0.98, 0.2925, 1.0775, 0.39, 1.175, 0.49, 1.2725, 0.5875, 1.37, 0.685, 0, 0.7825, 0.0975, 0.88, 0.195, 0.98, 0.2925, 1.0775, 0.39, 1.175, 0.49, 1.2725, 0.5875, 1.37, 0.685],
  "SoftwareVersions": "syngo MR E11",
  "SpacingBetweenSlices": 2,
  "StationName": "MRC35049",
  "TaskName": "mariostars",
  "TotalReadoutTime": 0.0576811,
  "TxRefAmp": 275.299,
  "WipMemBlock": "be6a0efb-7cae-4d1b-921c-45f63f4328ed||Sequence: R016 ve11c/master r/e634e98; Dec 19 2017 11:00:25 by eja",
  "dcmmeta_affine": [
    [-1.9904311895370483, -0.15979669988155365, 0.11246634274721146, 110.62923431396484],
    [-0.1879926174879074, 1.880016803741455, -0.655893087387085, -51.44361877441406],
    [0.05331452563405037, 0.6633264422416687, 1.8860423564910889, -61.21650695800781],
    [0.0, 0.0, 0.0, 1.0]
],
  "dcmmeta_reorient_transform": [
    [0.0, -1.0, 0.0, 103.0],
    [1.0, 0.0, 0.0, 0.0],
    [0.0, 0.0, 1.0, 0.0],
    [0.0, 0.0, 0.0, 1.0]
],
  "dcmmeta_shape": [104, 104, 60, 457],
  "dcmmeta_slice_dim": 2,
  "dcmmeta_version": 0.6,
  "global": {
    "const": {
      "AcquisitionMatrix": [104, 0, 0, 104],
      "AngioFlag": "N",
      "BitsAllocated": 16,
      "BitsStored": 16,
      "BodyPartExamined": "BRAIN",
      "Columns": 832,
      "EchoNumbers": 1,
      "EchoTime": 37.0,
      "EchoTrainLength": 104,
      "FlipAngle": 52.0,
      "HighBit": 15,
      "ImageOrientationPatient": [0.99521559687149, 0.09399630876335, 0.02665726322391, -0.0798983502289, 0.94000838265712, -0.3316632240166],
      "ImagePositionPatient": [-760.52113004524, -894.95352435558, 229.15045551901],
      "ImageType": [
        "ORIGINAL",
        "PRIMARY",
        "P",
        "MB",
        "ND",
        "MOSAIC"
],
      "ImagedNucleus": "1H",
      "ImagingFrequency": 123.258832,
      "InPlanePhaseEncodingDirection": "COL",
      "LargestImagePixelValue": 4095,
      "MRAcquisitionType": "2D",
      "MagneticFieldStrength": 3.0,
      "Manufacturer": "SIEMENS",
      "ManufacturerModelName": "Prisma_fit",
      "Modality": "MR",
      "NumberOfAverages": 1.0,
      "NumberOfPhaseEncodingSteps": 104,
      "PercentPhaseFieldOfView": 100.0,
      "PercentSampling": 100.0,
      "PerformedProcedureStepStartTime": "170113.910000",
      "PhotometricInterpretation": "MONOCHROME2",
      "PixelBandwidth": 2290.0,
      "PixelRepresentation": 0,
      "PixelSpacing": [2.0, 2.0],
      "ProtocolName": "func_task-mariostars_run-01",
      "RepetitionTime": 1490.0,
      "RescaleIntercept": -4096.0,
      "RescaleSlope": 2.0,
      "RescaleType": "US",
      "Rows": 832,
      "SAR": 0.05181498587509,
      "SamplesPerPixel": 1,
      "ScanOptions": "FS",
      "ScanningSequence": "EP",
      "SequenceName": "epfid2d1_104",
      "SequenceVariant": [
        "SK",
        "SS"
],
      "SeriesDescription": "func_task-mariostars_run-01",
      "SeriesNumber": 11,
      "SeriesTime": "172325.587000",
      "SliceLocation": -34.636672970634,
      "SliceThickness": 2.0,
      "SmallestImagePixelValue": 0,
      "SoftwareVersions": "syngo MR E11",
      "SpacingBetweenSlices": 2.0000000475625,
      "SpecificCharacterSet": "ISO_IR 100",
      "StudyID": "1",
      "StudyTime": "170113.838000",
      "TransmitCoilName": "Body",
      "VariableFlipAngleFlag": "N",
      "WindowCenterWidthExplanation": "Algo1",
      "dBdt": 0.0},
    "slices": {}
  },
  "time": {
    "samples": {
      "AcquisitionNumber": [1, 2, 3, 4, 5, 6, 7, 8, 9, 10, 11, 12, 13, 14, 15, 16, 17, 18, 19, 20, 21, 22, 23, 24, 25, 26, 27, 28, 29, 30, 31, 32, 33, 34, 35, 36, 37, 38, 39, 40, 41, 42, 43, 44, 45, 46, 47, 48, 49, 50, 51, 52, 53, 54, 55, 56, 57, 58, 59, 60, 61, 62, 63, 64, 65, 66, 67, 68, 69, 70, 71, 72, 73, 74, 75, 76, 77, 78, 79, 80, 81, 82, 83, 84, 85, 86, 87, 88, 89, 90, 91, 92, 93, 94, 95, 96, 97, 98, 99, 100, 101, 102, 103, 104, 105, 106, 107, 108, 109, 110, 111, 112, 113, 114, 115, 116, 117, 118, 119, 120, 121, 122, 123, 124, 125, 126, 127, 128, 129, 130, 131, 132, 133, 134, 135, 136, 137, 138, 139, 140, 141, 142, 143, 144, 145, 146, 147, 148, 149, 150, 151, 152, 153, 154, 155, 156, 157, 158, 159, 160, 161, 162, 163, 164, 165, 166, 167, 168, 169, 170, 171, 172, 173, 174, 175, 176, 177, 178, 179, 180, 181, 182, 183, 184, 185, 186, 187, 188, 189, 190, 191, 192, 193, 194, 195, 196, 197, 198, 199, 200, 201, 202, 203, 204, 205, 206, 207, 208, 209, 210, 211, 212, 213, 214, 215, 216, 217, 218, 219, 220, 221, 222, 223, 224, 225, 226, 227, 228, 229, 230, 231, 232, 233, 234, 235, 236, 237, 238, 239, 240, 241, 242, 243, 244, 245, 246, 247, 248, 249, 250, 251, 252, 253, 254, 255, 256, 257, 258, 259, 260, 261, 262, 263, 264, 265, 266, 267, 268, 269, 270, 271, 272, 273, 274, 275, 276, 277, 278, 279, 280, 281, 282, 283, 284, 285, 286, 287, 288, 289, 290, 291, 292, 293, 294, 295, 296, 297, 298, 299, 300, 301, 302, 303, 304, 305, 306, 307, 308, 309, 310, 311, 312, 313, 314, 315, 316, 317, 318, 319, 320, 321, 322, 323, 324, 325, 326, 327, 328, 329, 330, 331, 332, 333, 334, 335, 336, 337, 338, 339, 340, 341, 342, 343, 344, 345, 346, 347, 348, 349, 350, 351, 352, 353, 354, 355, 356, 357, 358, 359, 360, 361, 362, 363, 364, 365, 366, 367, 368, 369, 370, 371, 372, 373, 374, 375, 376, 377, 378, 379, 380, 381, 382, 383, 384, 385, 386, 387, 388, 389, 390, 391, 392, 393, 394, 395, 396, 397, 398, 399, 400, 401, 402, 403, 404, 405, 406, 407, 408, 409, 410, 411, 412, 413, 414, 415, 416, 417, 418, 419, 420, 421, 422, 423, 424, 425, 426, 427, 428, 429, 430, 431, 432, 433, 434, 435, 436, 437, 438, 439, 440, 441, 442, 443, 444, 445, 446, 447, 448, 449, 450, 451, 452, 453, 454, 455, 456, 457],
      "AcquisitionTime": ["172153.942500", "172155.432500", "172156.922500", "172158.412500", "172159.902500", "172201.392500", "172202.882500", "172204.372500", "172205.862500", "172207.352500", "172208.842500", "172210.332500", "172211.822500", "172213.312500", "172214.802500", "172216.292500", "172217.782500", "172219.272500", "172220.762500", "172222.252500", "172223.742500", "172225.232500", "172226.722500", "172228.212500", "172229.702500", "172231.192500", "172232.682500", "172234.172500", "172235.662500", "172237.152500", "172238.642500", "172240.132500", "172241.622500", "172243.112500", "172244.602500", "172246.092500", "172247.582500", "172249.072500", "172250.562500", "172252.052500", "172253.542500", "172255.032500", "172256.522500", "172258.012500", "172259.502500", "172300.992500", "172302.482500", "172303.972500", "172305.462500", "172306.952500", "172308.442500", "172309.932500", "172311.422500", "172312.912500", "172314.402500", "172315.892500", "172317.382500", "172318.872500", "172320.362500", "172321.852500", "172323.342500", "172324.832500", "172326.322500", "172327.812500", "172329.302500", "172330.792500", "172332.282500", "172333.772500", "172335.262500", "172336.752500", "172338.242500", "172339.732500", "172341.222500", "172342.712500", "172344.202500", "172345.692500", "172347.182500", "172348.672500", "172350.162500", "172351.652500", "172353.142500", "172354.632500", "172356.122500", "172357.612500", "172359.102500", "172400.592500", "172402.082500", "172403.572500", "172405.062500", "172406.552500", "172408.042500", "172409.532500", "172411.022500", "172412.512500", "172414.002500", "172415.492500", "172416.982500", "172418.472500", "172419.962500", "172421.452500", "172422.942500", "172424.432500", "172425.922500", "172427.412500", "172428.902500", "172430.392500", "172431.882500", "172433.372500", "172434.862500", "172436.352500", "172437.842500", "172439.332500", "172440.822500", "172442.312500", "172443.802500", "172445.292500", "172446.782500", "172448.272500", "172449.762500", "172451.252500", "172452.742500", "172454.232500", "172455.722500", "172457.212500", "172458.702500", "172500.192500", "172501.682500", "172503.172500", "172504.662500", "172506.152500", "172507.642500", "172509.132500", "172510.622500", "172512.112500", "172513.602500", "172515.092500", "172516.582500", "172518.072500", "172519.562500", "172521.052500", "172522.542500", "172524.032500", "172525.522500", "172527.012500", "172528.502500", "172529.992500", "172531.482500", "172532.972500", "172534.462500", "172535.952500", "172537.442500", "172538.932500", "172540.422500", "172541.912500", "172543.402500", "172544.892500", "172546.382500", "172547.872500", "172549.362500", "172550.852500", "172552.342500", "172553.832500", "172555.322500", "172556.812500", "172558.302500", "172559.792500", "172601.282500", "172602.772500", "172604.262500", "172605.752500", "172607.242500", "172608.732500", "172610.222500", "172611.712500", "172613.202500", "172614.692500", "172616.182500", "172617.672500", "172619.162500", "172620.652500", "172622.142500", "172623.632500", "172625.122500", "172626.612500", "172628.102500", "172629.592500", "172631.082500", "172632.572500", "172634.062500", "172635.552500", "172637.042500", "172638.532500", "172640.022500", "172641.512500", "172643.002500", "172644.492500", "172645.982500", "172647.472500", "172648.962500", "172650.452500", "172651.942500", "172653.432500", "172654.922500", "172656.412500", "172657.902500", "172659.392500", "172700.882500", "172702.372500", "172703.862500", "172705.352500", "172706.842500", "172708.332500", "172709.822500", "172711.312500", "172712.802500", "172714.292500", "172715.782500", "172717.272500", "172718.762500", "172720.252500", "172721.742500", "172723.232500", "172724.722500", "172726.212500", "172727.702500", "172729.192500", "172730.682500", "172732.172500", "172733.662500", "172735.152500", "172736.642500", "172738.132500", "172739.622500", "172741.112500", "172742.602500", "172744.092500", "172745.582500", "172747.072500", "172748.562500", "172750.052500", "172751.542500", "172753.032500", "172754.522500", "172756.012500", "172757.502500", "172758.992500", "172800.482500", "172801.972500", "172803.462500", "172804.952500", "172806.442500", "172807.932500", "172809.422500", "172810.912500", "172812.402500", "172813.892500", "172815.382500", "172816.872500", "172818.362500", "172819.852500", "172821.342500", "172822.832500", "172824.322500", "172825.812500", "172827.302500", "172828.792500", "172830.282500", "172831.772500", "172833.262500", "172834.752500", "172836.242500", "172837.732500", "172839.222500", "172840.712500", "172842.202500", "172843.692500", "172845.182500", "172846.672500", "172848.162500", "172849.652500", "172851.142500", "172852.632500", "172854.122500", "172855.612500", "172857.102500", "172858.592500", "172900.082500", "172901.572500", "172903.062500", "172904.552500", "172906.042500", "172907.532500", "172909.022500", "172910.512500", "172912.002500", "172913.492500", "172914.982500", "172916.472500", "172917.962500", "172919.452500", "172920.942500", "172922.432500", "172923.922500", "172925.412500", "172926.902500", "172928.392500", "172929.882500", "172931.372500", "172932.862500", "172934.352500", "172935.842500", "172937.332500", "172938.822500", "172940.312500", "172941.802500", "172943.292500", "172944.782500", "172946.272500", "172947.762500", "172949.252500", "172950.742500", "172952.232500", "172953.722500", "172955.212500", "172956.702500", "172958.192500", "172959.682500", "173001.172500", "173002.662500", "173004.152500", "173005.642500", "173007.132500", "173008.622500", "173010.112500", "173011.602500", "173013.092500", "173014.582500", "173016.072500", "173017.562500", "173019.052500", "173020.542500", "173022.032500", "173023.522500", "173025.012500", "173026.502500", "173027.992500", "173029.482500", "173030.972500", "173032.462500", "173033.952500", "173035.442500", "173036.932500", "173038.422500", "173039.912500", "173041.402500", "173042.892500", "173044.382500", "173045.872500", "173047.362500", "173048.852500", "173050.342500", "173051.832500", "173053.322500", "173054.812500", "173056.302500", "173057.792500", "173059.282500", "173100.772500", "173102.262500", "173103.752500", "173105.242500", "173106.732500", "173108.222500", "173109.712500", "173111.202500", "173112.692500", "173114.182500", "173115.672500", "173117.162500", "173118.652500", "173120.142500", "173121.632500", "173123.122500", "173124.612500", "173126.102500", "173127.592500", "173129.082500", "173130.572500", "173132.062500", "173133.552500", "173135.042500", "173136.532500", "173138.022500", "173139.512500", "173141.002500", "173142.492500", "173143.982500", "173145.472500", "173146.962500", "173148.452500", "173149.942500", "173151.432500", "173152.922500", "173154.412500", "173155.902500", "173157.392500", "173158.882500", "173200.372500", "173201.862500", "173203.352500", "173204.842500", "173206.332500", "173207.822500", "173209.312500", "173210.802500", "173212.292500", "173213.782500", "173215.272500", "173216.762500", "173218.252500", "173219.742500", "173221.232500", "173222.722500", "173224.212500", "173225.702500", "173227.192500", "173228.682500", "173230.172500", "173231.662500", "173233.152500", "173234.642500", "173236.132500", "173237.622500", "173239.112500", "173240.602500", "173242.092500", "173243.582500", "173245.072500", "173246.562500", "173248.052500", "173249.542500", "173251.032500", "173252.522500", "173254.012500", "173255.502500", "173256.992500", "173258.482500", "173259.972500", "173301.462500", "173302.952500", "173304.442500", "173305.932500", "173307.422500", "173308.912500", "173310.402500", "173311.892500", "173313.382500"],
      "ContentTime": ["172325.589000", "172325.592000", "172325.594000", "172325.597000", "172325.599000", "172325.602000", "172325.604000", "172325.606000", "172325.609000", "172325.619000", "172325.622000", "172325.624000", "172325.627000", "172325.629000", "172325.632000", "172325.634000", "172325.636000", "172325.639000", "172325.641000", "172325.644000", "172325.646000", "172325.649000", "172325.651000", "172325.654000", "172325.656000", "172325.659000", "172325.661000", "172325.663000", "172325.666000", "172325.668000", "172325.671000", "172325.673000", "172325.676000", "172325.678000", "172325.681000", "172325.683000", "172325.686000", "172325.688000", "172325.691000", "172345.460000", "172345.463000", "172345.465000", "172345.468000", "172345.470000", "172345.472000", "172345.475000", "172345.477000", "172345.480000", "172345.482000", "172345.485000", "172345.487000", "172345.490000", "172345.492000", "172345.495000", "172345.497000", "172345.500000", "172345.502000", "172345.505000", "172345.507000", "172405.471000", "172405.474000", "172405.476000", "172405.479000", "172405.481000", "172405.484000", "172405.486000", "172405.489000", "172405.491000", "172405.493000", "172405.496000", "172405.498000", "172405.501000", "172405.503000", "172405.506000", "172405.508000", "172405.511000", "172405.513000", "172405.516000", "172405.518000", "172425.470000", "172425.473000", "172425.476000", "172425.478000", "172425.481000", "172425.483000", "172425.486000", "172425.488000", "172425.490000", "172425.493000", "172425.495000", "172425.498000", "172425.500000", "172425.503000", "172425.505000", "172425.508000", "172425.510000", "172425.513000", "172425.515000", "172425.518000", "172425.520000", "172505.495000", "172505.498000", "172505.500000", "172505.503000", "172505.505000", "172505.508000", "172505.510000", "172505.513000", "172505.515000", "172505.518000", "172505.520000", "172505.522000", "172505.530000", "172505.532000", "172505.535000", "172505.537000", "172505.540000", "172505.542000", "172505.545000", "172505.547000", "172505.550000", "172505.552000", "172505.554000", "172505.557000", "172505.559000", "172505.562000", "172505.564000", "172505.567000", "172545.485000", "172545.488000", "172545.490000", "172545.493000", "172545.495000", "172545.498000", "172545.500000", "172545.503000", "172545.505000", "172545.508000", "172545.510000", "172545.513000", "172545.515000", "172545.518000", "172545.520000", "172545.522000", "172545.525000", "172545.527000", "172545.530000", "172545.532000", "172545.535000", "172545.537000", "172545.540000", "172545.542000", "172545.545000", "172545.547000", "172545.550000", "172625.505000", "172625.508000", "172625.510000", "172625.513000", "172625.515000", "172625.518000", "172625.520000", "172625.523000", "172625.525000", "172625.527000", "172625.530000", "172625.532000", "172625.535000", "172625.537000", "172625.540000", "172625.544000", "172625.546000", "172625.549000", "172625.551000", "172625.554000", "172625.556000", "172625.559000", "172625.561000", "172625.564000", "172625.566000", "172625.569000", "172705.495000", "172705.498000", "172705.500000", "172705.503000", "172705.505000", "172705.508000", "172705.510000", "172705.513000", "172705.515000", "172705.518000", "172705.520000", "172705.523000", "172705.525000", "172705.528000", "172705.530000", "172705.533000", "172705.535000", "172705.537000", "172705.540000", "172705.542000", "172705.545000", "172705.547000", "172705.550000", "172705.552000", "172705.555000", "172705.557000", "172705.560000", "172745.480000", "172745.483000", "172745.485000", "172745.488000", "172745.490000", "172745.493000", "172745.495000", "172745.498000", "172745.500000", "172745.503000", "172745.505000", "172745.508000", "172745.510000", "172745.512000", "172745.515000", "172745.517000", "172745.520000", "172745.522000", "172745.525000", "172745.527000", "172745.530000", "172745.532000", "172745.535000", "172745.537000", "172745.540000", "172745.542000", "172745.545000", "172805.432000", "172805.435000", "172805.438000", "172805.440000", "172805.443000", "172805.445000", "172805.448000", "172805.450000", "172805.453000", "172805.455000", "172805.457000", "172805.460000", "172805.462000", "172845.487000", "172845.490000", "172845.493000", "172845.495000", "172845.498000", "172845.500000", "172845.503000", "172845.505000", "172845.508000", "172845.510000", "172845.513000", "172845.515000", "172845.518000", "172845.520000", "172845.522000", "172845.525000", "172845.527000", "172845.530000", "172845.532000", "172845.535000", "172845.537000", "172845.540000", "172845.543000", "172845.545000", "172845.548000", "172845.550000", "172845.552000", "172925.495000", "172925.498000", "172925.500000", "172925.503000", "172925.505000", "172925.508000", "172925.510000", "172925.513000", "172925.515000", "172925.518000", "172925.520000", "172925.523000", "172925.525000", "172925.527000", "172925.530000", "172925.532000", "172925.535000", "172925.537000", "172925.540000", "172925.542000", "172925.545000", "172925.547000", "172925.550000", "172925.552000", "172925.555000", "172925.557000", "172925.560000", "173005.486000", "173005.488000", "173005.491000", "173005.493000", "173005.496000", "173005.498000", "173005.501000", "173005.504000", "173005.506000", "173005.509000", "173005.511000", "173005.514000", "173005.516000", "173005.519000", "173005.521000", "173005.524000", "173005.526000", "173005.529000", "173005.531000", "173005.534000", "173005.536000", "173005.539000", "173005.541000", "173005.544000", "173005.546000", "173005.549000", "173005.551000", "173045.499000", "173045.502000", "173045.505000", "173045.507000", "173045.510000", "173045.512000", "173045.515000", "173045.517000", "173045.520000", "173045.522000", "173045.525000", "173045.527000", "173045.529000", "173045.532000", "173045.534000", "173045.537000", "173045.539000", "173045.542000", "173045.544000", "173045.547000", "173045.549000", "173045.552000", "173045.554000", "173045.556000", "173045.559000", "173045.561000", "173045.564000", "173126.147000", "173126.150000", "173126.153000", "173126.155000", "173126.157000", "173126.160000", "173126.162000", "173126.165000", "173126.167000", "173126.170000", "173126.172000", "173126.175000", "173126.177000", "173126.180000", "173126.182000", "173126.185000", "173126.187000", "173126.190000", "173126.192000", "173126.195000", "173126.197000", "173126.199000", "173126.204000", "173126.206000", "173126.209000", "173126.211000", "173126.214000", "173205.488000", "173205.490000", "173205.493000", "173205.495000", "173205.498000", "173205.500000", "173205.503000", "173205.505000", "173205.508000", "173205.510000", "173205.513000", "173205.515000", "173205.518000", "173205.520000", "173205.523000", "173205.525000", "173205.528000", "173205.530000", "173205.533000", "173205.535000", "173205.538000", "173205.540000", "173205.543000", "173205.545000", "173205.548000", "173205.550000", "173205.553000", "173245.479000", "173245.481000", "173245.484000", "173245.487000", "173245.489000", "173245.492000", "173245.494000", "173245.497000", "173245.499000", "173245.503000", "173245.506000", "173245.508000", "173245.511000", "173245.513000", "173245.516000", "173245.518000", "173245.521000", "173245.523000", "173245.526000", "173245.528000", "173245.531000", "173245.533000", "173245.536000", "173245.538000", "173245.541000", "173245.543000", "173316.542000", "173316.545000", "173316.548000", "173316.550000", "173316.553000", "173316.555000", "173316.558000", "173316.560000", "173316.563000", "173316.565000", "173316.568000", "173316.570000", "173316.573000", "173316.576000", "173316.578000", "173316.581000", "173316.583000", "173316.585000", "173316.588000", "173316.590000", "173316.593000"],
