{
  "AcquisitionMatrixPE": 104,
  "AcquisitionNumber": 1,
  "AcquisitionTime": "17:34:39.332500",
  "BandwidthPerPixelPhaseEncode": 17.17,
  "BaseResolution": 104,
  "BodyPartExamined": "BRAIN",
  "CoilCombinationMethod": "Sum of Squares",
  "ConsistencyInfo": "N4_VE11C_LATEST_20160120",
  "ConversionSoftware": "dcm2niix",
  "ConversionSoftwareVersion": "v1.0.20211006",
  "DerivedVendorReportedEchoSpacing": 0.000560011,
  "DeviceSerialNumber": "167006",
  "DwellTime": 2.1e-06,
  "EchoTime": 0.037,
  "EchoTime1": 0.037,
  "EchoTime2": 0.001,
  "EchoTrainLength": 104,
  "EffectiveEchoSpacing": 0.000560011,
  "FlipAngle": 52,
  "HeudiconvVersion": "0.11.3.post9+gc939bf8",
  "ImageComments": "Unaliased MB4/PE3/LB",
  "ImageOrientationPatientDICOM": [0.995216, 0.0939963, 0.0266573, -0.0798983, 0.940008, -0.331663],
  "ImageOrientationText": "Tra>Cor(-19.2)>Sag(3.2)",
  "ImageType": [
    "ORIGINAL",
    "PRIMARY",
    "P",
    "MB",
    "ND",
    "MOSAIC",
    "PHASE"
],
  "ImagingFrequency": 123.259,
  "InPlanePhaseEncodingDirectionDICOM": "COL",
  "InstitutionAddress": "Chemin Queen-Mary 4565,Montreal,District,CA,H3W 1W5",
  "InstitutionName": "IUGM",
  "InstitutionalDepartmentName": "Department",
  "MRAcquisitionType": "2D",
  "MagneticFieldStrength": 3,
  "Manufacturer": "Siemens",
  "ManufacturersModelName": "Prisma_fit",
  "MatrixCoilMode": "SENSE",
  "Modality": "MR",
  "MultibandAccelerationFactor": 4,
  "PartialFourier": 1,
  "PatientPosition": "HFS",
  "PercentPhaseFOV": 100,
  "PercentSampling": 100,
  "PhaseEncodingDirection": "j",
  "PhaseEncodingSteps": 104,
  "PhaseResolution": 1,
  "PixelBandwidth": 2290,
  "ProcedureStepDescription": "games^mariostars",
  "ProtocolName": "func_task-mariostars_run-02",
  "PulseSequenceDetails": "%CustomerSeq%\\cmrr_mbep2d_bold",
  "ReceiveCoilActiveElements": "HC1-7;NC1,2",
  "ReceiveCoilName": "HeadNeck_64",
  "ReconMatrixPE": 104,
  "RepetitionTime": 1.49,
  "SAR": 0.051815,
  "ScanOptions": "FS",
  "ScanningSequence": "EP",
  "SequenceName": "epfid2d1_104",
  "SequenceVariant": "SK\\SS",
  "SeriesDescription": "func_task-mariostars_run-02",
  "SeriesNumber": 14,
  "ShimSetting": [641, -7185, -8816, 659, 142, 16, -24, 4],
  "SliceThickness": 2,
  "SliceTiming": [0, 0.7825, 0.0975, 0.88, 0.195, 0.9775, 0.2925, 1.0775, 0.39, 1.175, 0.49, 1.2725, 0.5875, 1.37, 0.685, 0, 0.7825, 0.0975, 0.88, 0.195, 0.9775, 0.2925, 1.0775, 0.39, 1.175, 0.49, 1.2725, 0.5875, 1.37, 0.685, 0, 0.7825, 0.0975, 0.88, 0.195, 0.9775, 0.2925, 1.0775, 0.39, 1.175, 0.49, 1.2725, 0.5875, 1.37, 0.685, 0, 0.7825, 0.0975, 0.88, 0.195, 0.9775, 0.2925, 1.0775, 0.39, 1.175, 0.49, 1.2725, 0.5875, 1.37, 0.685],
  "SoftwareVersions": "syngo MR E11",
  "SpacingBetweenSlices": 2,
  "StationName": "MRC35049",
  "TaskName": "mariostars",
  "TotalReadoutTime": 0.0576811,
  "TxRefAmp": 275.299,
  "WipMemBlock": "3ac725a9-9566-41a8-a92b-a9fbb825c39a||Sequence: R016 ve11c/master r/e634e98; Dec 19 2017 11:00:25 by eja",
  "dcmmeta_affine": [
    [-1.9904311895370483, -0.15979669988155365, 0.11246634274721146, 110.62923431396484],
    [-0.1879926174879074, 1.880016803741455, -0.655893087387085, -51.44361877441406],
    [0.05331452563405037, 0.6633264422416687, 1.8860423564910889, -61.21650695800781],
    [0.0, 0.0, 0.0, 1.0]
],
  "dcmmeta_reorient_transform": [
    [0.0, -1.0, 0.0, 103.0],
    [1.0, 0.0, 0.0, 0.0],
    [0.0, 0.0, 1.0, 0.0],
    [0.0, 0.0, 0.0, 1.0]
],
  "dcmmeta_shape": [104, 104, 60, 429],
  "dcmmeta_slice_dim": 2,
  "dcmmeta_version": 0.6,
  "global": {
    "const": {
      "AcquisitionMatrix": [104, 0, 0, 104],
      "AngioFlag": "N",
      "BitsAllocated": 16,
      "BitsStored": 16,
      "BodyPartExamined": "BRAIN",
      "Columns": 832,
      "EchoNumbers": 1,
      "EchoTime": 37.0,
      "EchoTrainLength": 104,
      "FlipAngle": 52.0,
      "HighBit": 15,
      "ImageOrientationPatient": [0.99521559687149, 0.09399630876335, 0.02665726322391, -0.0798983502289, 0.94000838265712, -0.3316632240166],
      "ImagePositionPatient": [-760.52113004524, -894.95352435558, 229.15045551901],
      "ImageType": [
        "ORIGINAL",
        "PRIMARY",
        "P",
        "MB",
        "ND",
        "MOSAIC"
],
      "ImagedNucleus": "1H",
      "ImagingFrequency": 123.258842,
      "InPlanePhaseEncodingDirection": "COL",
      "LargestImagePixelValue": 4095,
      "MRAcquisitionType": "2D",
      "MagneticFieldStrength": 3.0,
      "Manufacturer": "SIEMENS",
      "ManufacturerModelName": "Prisma_fit",
      "Modality": "MR",
      "NumberOfAverages": 1.0,
      "NumberOfPhaseEncodingSteps": 104,
      "PercentPhaseFieldOfView": 100.0,
      "PercentSampling": 100.0,
      "PerformedProcedureStepStartTime": "170113.910000",
      "PhotometricInterpretation": "MONOCHROME2",
      "PixelBandwidth": 2290.0,
      "PixelRepresentation": 0,
      "PixelSpacing": [2.0, 2.0],
      "ProtocolName": "func_task-mariostars_run-02",
      "RepetitionTime": 1490.0,
      "RescaleIntercept": -4096.0,
      "RescaleSlope": 2.0,
      "RescaleType": "US",
      "Rows": 832,
      "SAR": 0.05181498587509,
      "SamplesPerPixel": 1,
      "ScanOptions": "FS",
      "ScanningSequence": "EP",
      "SequenceName": "epfid2d1_104",
      "SequenceVariant": [
        "SK",
        "SS"
],
      "SeriesDescription": "func_task-mariostars_run-02",
      "SeriesNumber": 14,
      "SeriesTime": "173607.912000",
      "SliceLocation": -34.636672970634,
      "SliceThickness": 2.0,
      "SmallestImagePixelValue": 0,
      "SoftwareVersions": "syngo MR E11",
      "SpacingBetweenSlices": 2.0000000475625,
      "SpecificCharacterSet": "ISO_IR 100",
      "StudyID": "1",
      "StudyTime": "170113.838000",
      "TransmitCoilName": "Body",
      "VariableFlipAngleFlag": "N",
      "WindowCenterWidthExplanation": "Algo1",
      "dBdt": 0.0},
    "slices": {}
  },
  "time": {
    "samples": {
      "AcquisitionNumber": [1, 2, 3, 4, 5, 6, 7, 8, 9, 10, 11, 12, 13, 14, 15, 16, 17, 18, 19, 20, 21, 22, 23, 24, 25, 26, 27, 28, 29, 30, 31, 32, 33, 34, 35, 36, 37, 38, 39, 40, 41, 42, 43, 44, 45, 46, 47, 48, 49, 50, 51, 52, 53, 54, 55, 56, 57, 58, 59, 60, 61, 62, 63, 64, 65, 66, 67, 68, 69, 70, 71, 72, 73, 74, 75, 76, 77, 78, 79, 80, 81, 82, 83, 84, 85, 86, 87, 88, 89, 90, 91, 92, 93, 94, 95, 96, 97, 98, 99, 100, 101, 102, 103, 104, 105, 106, 107, 108, 109, 110, 111, 112, 113, 114, 115, 116, 117, 118, 119, 120, 121, 122, 123, 124, 125, 126, 127, 128, 129, 130, 131, 132, 133, 134, 135, 136, 137, 138, 139, 140, 141, 142, 143, 144, 145, 146, 147, 148, 149, 150, 151, 152, 153, 154, 155, 156, 157, 158, 159, 160, 161, 162, 163, 164, 165, 166, 167, 168, 169, 170, 171, 172, 173, 174, 175, 176, 177, 178, 179, 180, 181, 182, 183, 184, 185, 186, 187, 188, 189, 190, 191, 192, 193, 194, 195, 196, 197, 198, 199, 200, 201, 202, 203, 204, 205, 206, 207, 208, 209, 210, 211, 212, 213, 214, 215, 216, 217, 218, 219, 220, 221, 222, 223, 224, 225, 226, 227, 228, 229, 230, 231, 232, 233, 234, 235, 236, 237, 238, 239, 240, 241, 242, 243, 244, 245, 246, 247, 248, 249, 250, 251, 252, 253, 254, 255, 256, 257, 258, 259, 260, 261, 262, 263, 264, 265, 266, 267, 268, 269, 270, 271, 272, 273, 274, 275, 276, 277, 278, 279, 280, 281, 282, 283, 284, 285, 286, 287, 288, 289, 290, 291, 292, 293, 294, 295, 296, 297, 298, 299, 300, 301, 302, 303, 304, 305, 306, 307, 308, 309, 310, 311, 312, 313, 314, 315, 316, 317, 318, 319, 320, 321, 322, 323, 324, 325, 326, 327, 328, 329, 330, 331, 332, 333, 334, 335, 336, 337, 338, 339, 340, 341, 342, 343, 344, 345, 346, 347, 348, 349, 350, 351, 352, 353, 354, 355, 356, 357, 358, 359, 360, 361, 362, 363, 364, 365, 366, 367, 368, 369, 370, 371, 372, 373, 374, 375, 376, 377, 378, 379, 380, 381, 382, 383, 384, 385, 386, 387, 388, 389, 390, 391, 392, 393, 394, 395, 396, 397, 398, 399, 400, 401, 402, 403, 404, 405, 406, 407, 408, 409, 410, 411, 412, 413, 414, 415, 416, 417, 418, 419, 420, 421, 422, 423, 424, 425, 426, 427, 428, 429],
      "AcquisitionTime": ["173439.332500", "173440.822500", "173442.312500", "173443.802500", "173445.292500", "173446.782500", "173448.272500", "173449.762500", "173451.252500", "173452.742500", "173454.232500", "173455.722500", "173457.212500", "173458.702500", "173500.192500", "173501.682500", "173503.172500", "173504.662500", "173506.152500", "173507.642500", "173509.132500", "173510.622500", "173512.112500", "173513.602500", "173515.092500", "173516.582500", "173518.072500", "173519.562500", "173521.052500", "173522.542500", "173524.032500", "173525.522500", "173527.012500", "173528.502500", "173529.992500", "173531.482500", "173532.972500", "173534.462500", "173535.952500", "173537.442500", "173538.932500", "173540.422500", "173541.912500", "173543.402500", "173544.892500", "173546.382500", "173547.872500", "173549.362500", "173550.852500", "173552.342500", "173553.832500", "173555.322500", "173556.812500", "173558.302500", "173559.792500", "173601.282500", "173602.772500", "173604.262500", "173605.752500", "173607.242500", "173608.732500", "173610.222500", "173611.712500", "173613.202500", "173614.692500", "173616.182500", "173617.672500", "173619.162500", "173620.652500", "173622.142500", "173623.632500", "173625.122500", "173626.612500", "173628.102500", "173629.592500", "173631.082500", "173632.572500", "173634.062500", "173635.552500", "173637.042500", "173638.532500", "173640.022500", "173641.512500", "173643.002500", "173644.492500", "173645.982500", "173647.472500", "173648.962500", "173650.452500", "173651.942500", "173653.432500", "173654.922500", "173656.412500", "173657.902500", "173659.392500", "173700.882500", "173702.372500", "173703.862500", "173705.352500", "173706.842500", "173708.332500", "173709.822500", "173711.312500", "173712.802500", "173714.292500", "173715.782500", "173717.272500", "173718.762500", "173720.252500", "173721.742500", "173723.232500", "173724.722500", "173726.212500", "173727.702500", "173729.192500", "173730.682500", "173732.172500", "173733.662500", "173735.152500", "173736.642500", "173738.132500", "173739.622500", "173741.112500", "173742.602500", "173744.092500", "173745.582500", "173747.072500", "173748.562500", "173750.052500", "173751.542500", "173753.032500", "173754.522500", "173756.012500", "173757.502500", "173758.992500", "173800.482500", "173801.972500", "173803.462500", "173804.952500", "173806.442500", "173807.932500", "173809.422500", "173810.912500", "173812.402500", "173813.892500", "173815.382500", "173816.872500", "173818.362500", "173819.852500", "173821.342500", "173822.832500", "173824.322500", "173825.812500", "173827.302500", "173828.792500", "173830.282500", "173831.772500", "173833.262500", "173834.752500", "173836.242500", "173837.732500", "173839.222500", "173840.712500", "173842.202500", "173843.692500", "173845.182500", "173846.672500", "173848.162500", "173849.652500", "173851.142500", "173852.632500", "173854.122500", "173855.612500", "173857.102500", "173858.592500", "173900.082500", "173901.572500", "173903.062500", "173904.552500", "173906.042500", "173907.532500", "173909.022500", "173910.512500", "173912.002500", "173913.492500", "173914.982500", "173916.472500", "173917.962500", "173919.452500", "173920.942500", "173922.432500", "173923.922500", "173925.412500", "173926.902500", "173928.392500", "173929.882500", "173931.372500", "173932.862500", "173934.352500", "173935.842500", "173937.332500", "173938.822500", "173940.312500", "173941.802500", "173943.292500", "173944.782500", "173946.272500", "173947.762500", "173949.252500", "173950.742500", "173952.232500", "173953.722500", "173955.212500", "173956.702500", "173958.192500", "173959.682500", "174001.172500", "174002.662500", "174004.152500", "174005.642500", "174007.132500", "174008.622500", "174010.112500", "174011.602500", "174013.092500", "174014.582500", "174016.072500", "174017.562500", "174019.052500", "174020.542500", "174022.032500", "174023.522500", "174025.012500", "174026.502500", "174027.992500", "174029.482500", "174030.972500", "174032.462500", "174033.952500", "174035.442500", "174036.932500", "174038.422500", "174039.912500", "174041.402500", "174042.892500", "174044.382500", "174045.872500", "174047.362500", "174048.852500", "174050.342500", "174051.832500", "174053.322500", "174054.812500", "174056.302500", "174057.792500", "174059.282500", "174100.772500", "174102.262500", "174103.752500", "174105.242500", "174106.732500", "174108.222500", "174109.712500", "174111.202500", "174112.692500", "174114.182500", "174115.672500", "174117.162500", "174118.652500", "174120.142500", "174121.632500", "174123.122500", "174124.612500", "174126.102500", "174127.592500", "174129.082500", "174130.572500", "174132.062500", "174133.552500", "174135.042500", "174136.532500", "174138.022500", "174139.512500", "174141.002500", "174142.492500", "174143.982500", "174145.472500", "174146.962500", "174148.452500", "174149.942500", "174151.432500", "174152.922500", "174154.412500", "174155.902500", "174157.392500", "174158.882500", "174200.372500", "174201.862500", "174203.352500", "174204.842500", "174206.332500", "174207.822500", "174209.312500", "174210.802500", "174212.292500", "174213.782500", "174215.272500", "174216.762500", "174218.252500", "174219.742500", "174221.232500", "174222.722500", "174224.212500", "174225.702500", "174227.192500", "174228.682500", "174230.172500", "174231.662500", "174233.152500", "174234.642500", "174236.132500", "174237.622500", "174239.112500", "174240.602500", "174242.092500", "174243.582500", "174245.072500", "174246.562500", "174248.052500", "174249.542500", "174251.032500", "174252.522500", "174254.012500", "174255.502500", "174256.992500", "174258.482500", "174259.972500", "174301.462500", "174302.952500", "174304.442500", "174305.932500", "174307.422500", "174308.912500", "174310.402500", "174311.892500", "174313.382500", "174314.872500", "174316.362500", "174317.852500", "174319.342500", "174320.832500", "174322.322500", "174323.812500", "174325.302500", "174326.792500", "174328.282500", "174329.772500", "174331.262500", "174332.752500", "174334.242500", "174335.732500", "174337.222500", "174338.712500", "174340.202500", "174341.692500", "174343.182500", "174344.672500", "174346.162500", "174347.652500", "174349.142500", "174350.632500", "174352.122500", "174353.612500", "174355.102500", "174356.592500", "174358.082500", "174359.572500", "174401.062500", "174402.552500", "174404.042500", "174405.532500", "174407.022500", "174408.512500", "174410.002500", "174411.492500", "174412.982500", "174414.472500", "174415.962500", "174417.452500", "174418.942500", "174420.432500", "174421.922500", "174423.412500", "174424.902500", "174426.392500", "174427.882500", "174429.372500", "174430.862500", "174432.352500", "174433.842500", "174435.332500", "174436.822500", "174438.312500", "174439.802500", "174441.292500", "174442.782500", "174444.272500", "174445.762500", "174447.252500", "174448.742500", "174450.232500", "174451.722500", "174453.212500", "174454.702500", "174456.192500", "174457.682500", "174459.172500", "174500.662500", "174502.152500", "174503.642500", "174505.132500", "174506.622500", "174508.112500", "174509.602500", "174511.092500", "174512.582500", "174514.072500", "174515.562500", "174517.052500"],
      "ContentTime": ["173607.914000", "173607.917000", "173607.919000", "173607.922000", "173607.924000", "173607.926000", "173607.929000", "173607.931000", "173607.934000", "173607.936000", "173607.939000", "173607.941000", "173607.944000", "173607.946000", "173607.949000", "173607.951000", "173607.953000", "173607.956000", "173607.958000", "173607.961000", "173607.963000", "173607.966000", "173607.969000", "173607.972000", "173607.974000", "173607.977000", "173607.979000", "173607.995000", "173607.997000", "173608.001000", "173608.003000", "173608.006000", "173608.008000", "173608.011000", "173627.814000", "173627.817000", "173627.819000", "173627.822000", "173627.824000", "173627.827000", "173627.829000", "173627.832000", "173627.834000", "173627.836000", "173627.839000", "173627.841000", "173627.844000", "173627.846000", "173627.849000", "173627.851000", "173627.854000", "173627.856000", "173627.858000", "173627.861000", "173627.863000", "173647.796000", "173647.799000", "173647.801000", "173647.804000", "173647.806000", "173647.808000", "173647.811000", "173647.813000", "173647.816000", "173647.818000", "173647.821000", "173647.823000", "173647.826000", "173647.828000", "173647.831000", "173647.833000", "173647.835000", "173647.838000", "173647.840000", "173647.843000", "173707.813000", "173707.816000", "173707.819000", "173707.821000", "173707.824000", "173707.826000", "173707.829000", "173707.832000", "173707.835000", "173707.838000", "173707.840000", "173707.843000", "173707.845000", "173707.848000", "173707.850000", "173707.852000", "173707.855000", "173707.857000", "173707.860000", "173707.862000", "173747.884000", "173747.887000", "173747.889000", "173747.892000", "173747.894000", "173747.897000", "173747.899000", "173747.901000", "173747.904000", "173747.906000", "173747.909000", "173747.911000", "173747.914000", "173747.916000", "173747.919000", "173747.922000", "173747.925000", "173747.927000", "173747.930000", "173747.933000", "173747.935000", "173747.938000", "173747.941000", "173747.943000", "173747.946000", "173747.949000", "173747.951000", "173747.954000", "173747.956000", "173747.959000", "173807.762000", "173807.764000", "173807.767000", "173807.831000", "173807.834000", "173807.836000", "173807.839000", "173807.841000", "173807.843000", "173807.846000", "173807.848000", "173807.851000", "173807.853000", "173807.856000", "173847.844000", "173847.846000", "173847.849000", "173847.851000", "173847.854000", "173847.856000", "173847.859000", "173847.861000", "173847.870000", "173847.872000", "173847.875000", "173847.877000", "173847.880000", "173847.882000", "173847.885000", "173847.887000", "173847.889000", "173847.892000", "173847.894000", "173847.897000", "173847.899000", "173847.902000", "173847.904000", "173847.907000", "173847.909000", "173847.912000", "173847.914000", "173927.857000", "173927.859000", "173927.862000", "173927.864000", "173927.867000", "173927.869000", "173927.872000", "173927.874000", "173927.877000", "173927.879000", "173927.882000", "173927.884000", "173927.887000", "173927.889000", "173927.891000", "173927.894000", "173927.896000", "173927.899000", "173927.901000", "173927.904000", "173927.906000", "173927.909000", "173927.911000", "173927.914000", "173927.916000", "173927.919000", "174007.848000", "174007.851000", "174007.853000", "174007.856000", "174007.859000", "174007.861000", "174007.864000", "174007.866000", "174007.869000", "174007.871000", "174007.874000", "174007.876000", "174007.879000", "174007.881000", "174007.884000", "174007.886000", "174007.888000", "174007.891000", "174007.893000", "174007.896000", "174007.898000", "174007.901000", "174007.903000", "174007.906000", "174007.908000", "174007.911000", "174007.914000", "174047.850000", "174047.853000", "174047.855000", "174047.858000", "174047.860000", "174047.863000", "174047.865000", "174047.867000", "174047.870000", "174047.872000", "174047.875000", "174047.877000", "174047.880000", "174047.882000", "174047.885000", "174047.887000", "174047.890000", "174047.892000", "174047.895000", "174047.897000", "174047.900000", "174047.902000", "174047.905000", "174047.907000", "174047.910000", "174047.912000", "174047.914000", "174127.846000", "174127.849000", "174127.851000", "174127.854000", "174127.856000", "174127.859000", "174127.861000", "174127.864000", "174127.866000", "174127.869000", "174127.871000", "174127.874000", "174127.876000", "174127.879000", "174127.882000", "174127.884000", "174127.887000", "174127.889000", "174127.892000", "174127.894000", "174127.897000", "174127.899000", "174127.902000", "174127.904000", "174127.907000", "174127.909000", "174127.912000", "174207.883000", "174207.885000", "174207.888000", "174207.890000", "174207.894000", "174207.896000", "174207.899000", "174207.901000", "174207.904000", "174207.906000", "174207.909000", "174207.911000", "174207.914000", "174207.916000", "174207.918000", "174207.921000", "174207.923000", "174207.926000", "174207.928000", "174207.931000", "174207.933000", "174207.936000", "174207.938000", "174207.941000", "174207.943000", "174207.946000", "174207.948000", "174247.829000", "174247.831000", "174247.834000", "174247.836000", "174247.839000", "174247.841000", "174247.844000", "174247.846000", "174247.849000", "174247.851000", "174247.854000", "174247.856000", "174247.859000", "174247.861000", "174247.864000", "174247.866000", "174247.869000", "174247.871000", "174247.873000", "174247.876000", "174247.878000", "174247.881000", "174247.883000", "174247.886000", "174247.888000", "174247.891000", "174247.893000", "174328.287000", "174328.290000", "174328.292000", "174328.295000", "174328.297000", "174328.300000", "174328.302000", "174328.305000", "174328.307000", "174328.310000", "174328.312000", "174328.314000", "174328.317000", "174328.319000", "174328.322000", "174328.324000", "174328.327000", "174328.330000", "174328.332000", "174328.335000", "174328.337000", "174328.340000", "174328.342000", "174328.345000", "174328.347000", "174328.349000", "174328.352000", "174407.892000", "174407.895000", "174407.898000", "174407.900000", "174407.903000", "174407.905000", "174407.908000", "174407.910000", "174407.913000", "174407.915000", "174407.918000", "174407.920000", "174407.923000", "174407.925000", "174407.928000", "174407.930000", "174407.933000", "174407.935000", "174407.938000", "174407.940000", "174407.943000", "174407.945000", "174407.948000", "174407.951000", "174407.953000", "174407.956000", "174447.836000", "174447.839000", "174447.842000", "174447.844000", "174447.847000", "174447.849000", "174447.851000", "174447.854000", "174447.856000", "174447.859000", "174447.861000", "174447.864000", "174447.866000", "174447.869000", "174447.871000", "174447.874000", "174447.876000", "174447.879000", "174447.881000", "174447.884000", "174447.886000", "174447.888000", "174447.891000", "174447.893000", "174447.896000", "174447.898000", "174447.901000", "174520.337000", "174520.340000", "174520.343000", "174520.345000", "174520.348000", "174520.350000", "174520.353000", "174520.355000", "174520.358000", "174520.360000", "174520.362000", "174520.365000", "174520.367000", "174520.370000", "174520.372000", "174520.375000", "174520.377000", "174520.380000", "174520.382000", "174520.385000", "174520.387000", "174520.390000"],
      "InstanceCreationTime": ["173607.914000", "173607.917000", "173607.919000", "173607.922000", "173607.924000", "173607.926000", "173607.929000", "173607.931000", "173607.934000", "173607.936000", "173607.939000", "173607.941000", "173607.944000", "173607.946000", "173607.949000", "173607.951000", "173607.953000", "173607.956000", "173607.958000", "173607.961000", "173607.963000", "173607.966000", "173607.969000", "173607.972000", "173607.974000", "173607.977000", "173607.979000", "173607.995000", "173607.997000", "173608.001000", "173608.003000", "173608.006000", "173608.008000", "173608.011000", "173627.814000", "173627.817000", "173627.819000", "173627.822000", "173627.824000", "173627.827000", "173627.829000", "173627.832000", "173627.834000", "173627.836000", "173627.839000", "173627.841000", "173627.844000", "173627.846000", "173627.849000", "173627.851000", "173627.854000", "173627.856000", "173627.858000", "173627.861000", "173627.863000", "173647.796000", "173647.799000", "173647.801000", "173647.804000", "173647.806000", "173647.808000", "173647.811000", "173647.813000", "173647.816000", "173647.818000", "173647.821000", "173647.823000", "173647.826000", "173647.828000", "173647.831000", "173647.833000", "173647.835000", "173647.838000", "173647.840000", "173647.843000", "173707.813000", "173707.816000", "173707.819000", "173707.821000", "173707.824000", "173707.826000", "173707.829000", "173707.832000", "173707.835000", "173707.838000", "173707.840000", "173707.843000", "173707.845000", "173707.848000", "173707.850000", "173707.852000", "173707.855000", "173707.857000", "173707.860000", "173707.862000", "173747.884000", "173747.887000", "173747.889000", "173747.892000", "173747.894000", "173747.897000", "173747.899000", "173747.901000", "173747.904000", "173747.906000", "173747.909000", "173747.911000", "173747.914000", "173747.916000", "173747.919000", "173747.922000", "173747.925000", "173747.927000", "173747.930000", "173747.933000", "173747.935000", "173747.938000", "173747.941000", "173747.943000", "173747.946000", "173747.949000", "173747.951000", "173747.954000", "173747.956000", "173747.959000", "173807.762000", "173807.764000", "173807.767000", "173807.831000", "173807.834000", "173807.836000", "173807.839000", "173807.841000", "173807.843000", "173807.846000", "173807.848000", "173807.851000", "173807.853000", "173807.856000", "173847.844000", "173847.846000", "173847.849000", "173847.851000", "173847.854000", "173847.856000", "173847.859000", "173847.861000", "173847.870000", "173847.872000", "173847.875000", "173847.877000", "173847.880000", "173847.882000", "173847.885000", "173847.887000", "173847.889000", "173847.892000", "173847.894000", "173847.897000", "173847.899000", "173847.902000", "173847.904000", "173847.907000", "173847.909000", "173847.912000", "173847.914000", "173927.857000", "173927.859000", "173927.862000", "173927.864000", "173927.867000", "173927.869000", "173927.872000", "173927.874000", "173927.877000", "173927.879000", "173927.882000", "173927.884000", "173927.887000", "173927.889000", "173927.891000", "173927.894000", "173927.896000", "173927.899000", "173927.901000", "173927.904000", "173927.906000", "173927.909000", "173927.911000", "173927.914000", "173927.916000", "173927.919000", "174007.848000", "174007.851000", "174007.853000", "174007.856000", "174007.859000", "174007.861000", "174007.864000", "174007.866000", "174007.869000", "174007.871000", "174007.874000", "174007.876000", "174007.879000", "174007.881000", "174007.884000", "174007.886000", "174007.888000", "174007.891000", "174007.893000", "174007.896000", "174007.898000", "174007.901000", "174007.903000", "174007.906000", "174007.908000", "174007.911000", "174007.914000", "174047.850000", "174047.853000", "174047.855000", "174047.858000", "174047.860000", "174047.863000", "174047.865000", "174047.867000", "174047.870000", "174047.872000", "174047.875000", "174047.877000", "174047.880000", "174047.882000", "174047.885000", "174047.887000", "174047.890000", "174047.892000", "174047.895000", "174047.897000", "174047.900000", "174047.902000", "174047.905000", "174047.907000", "174047.910000", "174047.912000", "174047.914000", "174127.846000", "174127.849000", "174127.851000", "174127.854000", "174127.856000", "174127.859000", "174127.861000", "174127.864000", "174127.866000", "174127.869000", "174127.871000", "174127.874000", "174127.876000", "174127.879000", "174127.882000", "174127.884000", "174127.887000", "174127.889000", "174127.892000", "174127.894000", "174127.897000", "174127.899000", "174127.902000", "174127.904000", "174127.907000", "174127.909000", "174127.912000", "174207.883000", "174207.885000", "174207.888000", "174207.890000", "174207.894000", "174207.896000", "174207.899000", "174207.901000", "174207.904000", "174207.906000", "174207.909000", "174207.911000", "174207.914000", "174207.916000", "174207.918000", "174207.921000", "174207.923000", "174207.926000", "174207.928000", "174207.931000", "174207.933000", "174207.936000", "174207.938000", "174207.941000", "174207.943000", "174207.946000", "174207.948000", "174247.829000", "174247.831000", "174247.834000", "174247.836000", "174247.839000", "174247.841000", "174247.844000", "174247.846000", "174247.849000", "174247.851000", "174247.854000", "174247.856000", "174247.859000", "174247.861000", "174247.864000", "174247.866000", "174247.869000", "174247.871000", "174247.873000", "174247.876000", "174247.878000", "174247.881000", "174247.883000", "174247.886000", "174247.888000", "174247.891000", "174247.893000", "174328.287000", "174328.290000", "174328.292000", "174328.295000", "174328.297000", "174328.300000", "174328.302000", "174328.305000", "174328.307000", "174328.310000", "174328.312000", "174328.314000", "174328.317000", "174328.319000", "174328.322000", "174328.324000", "174328.327000", "174328.330000", "174328.332000", "174328.335000", "174328.337000", "174328.340000", "174328.342000", "174328.345000", "174328.347000", "174328.349000", "174328.352000", "174407.892000", "174407.895000", "174407.898000", "174407.900000", "174407.903000", "174407.905000", "174407.908000", "174407.910000", "174407.913000", "174407.915000", "174407.918000", "174407.920000", "174407.923000", "174407.925000", "174407.928000", "174407.930000", "174407.933000", "174407.935000", "174407.938000", "174407.940000", "174407.943000", "174407.945000", "174407.948000", "174407.951000", "174407.953000", "174407.956000", "174447.836000", "174447.839000", "174447.842000", "174447.844000", "174447.847000", "174447.849000", "174447.851000", "174447.854000", "174447.856000", "174447.859000", "174447.861000", "174447.864000", "174447.866000", "174447.869000", "174447.871000", "174447.874000", "174447.876000", "174447.879000", "174447.881000", "174447.884000", "174447.886000", "174447.888000", "174447.891000", "174447.893000", "174447.896000", "174447.898000", "174447.901000", "174520.337000", "174520.340000", "174520.343000", "174520.345000", "174520.348000", "174520.350000", "174520.353000", "174520.355000", "174520.358000", "174520.360000", "174520.362000", "174520.365000", "174520.367000", "174520.370000", "174520.372000", "174520.375000", "174520.377000", "174520.380000", "174520.382000", "174520.385000", "174520.387000", "174520.390000"],
