{
  "AcquisitionMatrixPE": 104,
  "AcquisitionNumber": 1,
  "AcquisitionTime": "17:59:53.242500",
  "BandwidthPerPixelPhaseEncode": 17.17,
  "BaseResolution": 104,
  "BodyPartExamined": "BRAIN",
  "CoilCombinationMethod": "Sum of Squares",
  "ConsistencyInfo": "N4_VE11C_LATEST_20160120",
  "ConversionSoftware": "dcm2niix",
  "ConversionSoftwareVersion": "v1.0.20211006",
  "DerivedVendorReportedEchoSpacing": 0.000560011,
  "DeviceSerialNumber": "167006",
  "DwellTime": 2.1e-06,
  "EchoTime": 0.037,
  "EchoTime1": 0.037,
  "EchoTime2": 0.001,
  "EchoTrainLength": 104,
  "EffectiveEchoSpacing": 0.000560011,
  "FlipAngle": 52,
  "HeudiconvVersion": "0.11.3.post9+gc939bf8",
  "ImageComments": "Unaliased MB4/PE3/LB",
  "ImageOrientationPatientDICOM": [0.995216, 0.0939963, 0.0266573, -0.0798983, 0.940008, -0.331663],
  "ImageOrientationText": "Tra>Cor(-19.2)>Sag(3.2)",
  "ImageType": [
    "ORIGINAL",
    "PRIMARY",
    "P",
    "MB",
    "ND",
    "MOSAIC",
    "PHASE"
],
  "ImagingFrequency": 123.259,
  "InPlanePhaseEncodingDirectionDICOM": "COL",
  "InstitutionAddress": "Chemin Queen-Mary 4565,Montreal,District,CA,H3W 1W5",
  "InstitutionName": "IUGM",
  "InstitutionalDepartmentName": "Department",
  "MRAcquisitionType": "2D",
  "MagneticFieldStrength": 3,
  "Manufacturer": "Siemens",
  "ManufacturersModelName": "Prisma_fit",
  "MatrixCoilMode": "SENSE",
  "Modality": "MR",
  "MultibandAccelerationFactor": 4,
  "PartialFourier": 1,
  "PatientPosition": "HFS",
  "PercentPhaseFOV": 100,
  "PercentSampling": 100,
  "PhaseEncodingDirection": "j",
  "PhaseEncodingSteps": 104,
  "PhaseResolution": 1,
  "PixelBandwidth": 2290,
  "ProcedureStepDescription": "games^mariostars",
  "ProtocolName": "func_task-mariostars_run-04",
  "PulseSequenceDetails": "%CustomerSeq%\\cmrr_mbep2d_bold",
  "ReceiveCoilActiveElements": "HC1-7;NC1,2",
  "ReceiveCoilName": "HeadNeck_64",
  "ReconMatrixPE": 104,
  "RepetitionTime": 1.49,
  "SAR": 0.051815,
  "ScanOptions": "FS",
  "ScanningSequence": "EP",
  "SequenceName": "epfid2d1_104",
  "SequenceVariant": "SK\\SS",
  "SeriesDescription": "func_task-mariostars_run-04",
  "SeriesNumber": 20,
  "ShimSetting": [641, -7185, -8816, 659, 142, 16, -24, 4],
  "SliceThickness": 2,
  "SliceTiming": [0, 0.7825, 0.0975, 0.88, 0.195, 0.98, 0.2925, 1.0775, 0.39, 1.175, 0.49, 1.2725, 0.5875, 1.37, 0.685, 0, 0.7825, 0.0975, 0.88, 0.195, 0.98, 0.2925, 1.0775, 0.39, 1.175, 0.49, 1.2725, 0.5875, 1.37, 0.685, 0, 0.7825, 0.0975, 0.88, 0.195, 0.98, 0.2925, 1.0775, 0.39, 1.175, 0.49, 1.2725, 0.5875, 1.37, 0.685, 0, 0.7825, 0.0975, 0.88, 0.195, 0.98, 0.2925, 1.0775, 0.39, 1.175, 0.49, 1.2725, 0.5875, 1.37, 0.685],
  "SoftwareVersions": "syngo MR E11",
  "SpacingBetweenSlices": 2,
  "StationName": "MRC35049",
  "TaskName": "mariostars",
  "TotalReadoutTime": 0.0576811,
  "TxRefAmp": 275.299,
  "WipMemBlock": "d60b3b96-94e5-4a0a-a8a9-f4c635e38ab1||Sequence: R016 ve11c/master r/e634e98; Dec 19 2017 11:00:25 by eja",
  "dcmmeta_affine": [
    [-1.9904311895370483, -0.15979669988155365, 0.11246634274721146, 110.62923431396484],
    [-0.1879926174879074, 1.880016803741455, -0.655893087387085, -51.44361877441406],
    [0.05331452563405037, 0.6633264422416687, 1.8860423564910889, -61.21650695800781],
    [0.0, 0.0, 0.0, 1.0]
],
  "dcmmeta_reorient_transform": [
    [0.0, -1.0, 0.0, 103.0],
    [1.0, 0.0, 0.0, 0.0],
    [0.0, 0.0, 1.0, 0.0],
    [0.0, 0.0, 0.0, 1.0]
],
  "dcmmeta_shape": [104, 104, 60, 430],
  "dcmmeta_slice_dim": 2,
  "dcmmeta_version": 0.6,
  "global": {
    "const": {
      "AcquisitionMatrix": [104, 0, 0, 104],
      "AngioFlag": "N",
      "BitsAllocated": 16,
      "BitsStored": 16,
      "BodyPartExamined": "BRAIN",
      "Columns": 832,
      "EchoNumbers": 1,
      "EchoTime": 37.0,
      "EchoTrainLength": 104,
      "FlipAngle": 52.0,
      "HighBit": 15,
      "ImageOrientationPatient": [0.99521559687149, 0.09399630876335, 0.02665726322391, -0.0798983502289, 0.94000838265712, -0.3316632240166],
      "ImagePositionPatient": [-760.52113004524, -894.95352435558, 229.15045551901],
      "ImageType": [
        "ORIGINAL",
        "PRIMARY",
        "P",
        "MB",
        "ND",
        "MOSAIC"
],
      "ImagedNucleus": "1H",
      "ImagingFrequency": 123.258853,
      "InPlanePhaseEncodingDirection": "COL",
      "LargestImagePixelValue": 4095,
      "MRAcquisitionType": "2D",
      "MagneticFieldStrength": 3.0,
      "Manufacturer": "SIEMENS",
      "ManufacturerModelName": "Prisma_fit",
      "Modality": "MR",
      "NumberOfAverages": 1.0,
      "NumberOfPhaseEncodingSteps": 104,
      "PercentPhaseFieldOfView": 100.0,
      "PercentSampling": 100.0,
      "PerformedProcedureStepStartTime": "170113.910000",
      "PhotometricInterpretation": "MONOCHROME2",
      "PixelBandwidth": 2290.0,
      "PixelRepresentation": 0,
      "PixelSpacing": [2.0, 2.0],
      "ProtocolName": "func_task-mariostars_run-04",
      "RepetitionTime": 1490.0,
      "RescaleIntercept": -4096.0,
      "RescaleSlope": 2.0,
      "RescaleType": "US",
      "Rows": 832,
      "SAR": 0.05181498587509,
      "SamplesPerPixel": 1,
      "ScanOptions": "FS",
      "ScanningSequence": "EP",
      "SequenceName": "epfid2d1_104",
      "SequenceVariant": [
        "SK",
        "SS"
],
      "SeriesDescription": "func_task-mariostars_run-04",
      "SeriesNumber": 20,
      "SeriesTime": "180125.598000",
      "SliceLocation": -34.636672970634,
      "SliceThickness": 2.0,
      "SmallestImagePixelValue": 0,
      "SoftwareVersions": "syngo MR E11",
      "SpacingBetweenSlices": 2.0000000475625,
      "SpecificCharacterSet": "ISO_IR 100",
      "StudyID": "1",
      "StudyTime": "170113.838000",
      "TransmitCoilName": "Body",
      "VariableFlipAngleFlag": "N",
      "WindowCenterWidthExplanation": "Algo1",
      "dBdt": 0.0},
    "slices": {}
  },
  "time": {
    "samples": {
      "AcquisitionNumber": [1, 2, 3, 4, 5, 6, 7, 8, 9, 10, 11, 12, 13, 14, 15, 16, 17, 18, 19, 20, 21, 22, 23, 24, 25, 26, 27, 28, 29, 30, 31, 32, 33, 34, 35, 36, 37, 38, 39, 40, 41, 42, 43, 44, 45, 46, 47, 48, 49, 50, 51, 52, 53, 54, 55, 56, 57, 58, 59, 60, 61, 62, 63, 64, 65, 66, 67, 68, 69, 70, 71, 72, 73, 74, 75, 76, 77, 78, 79, 80, 81, 82, 83, 84, 85, 86, 87, 88, 89, 90, 91, 92, 93, 94, 95, 96, 97, 98, 99, 100, 101, 102, 103, 104, 105, 106, 107, 108, 109, 110, 111, 112, 113, 114, 115, 116, 117, 118, 119, 120, 121, 122, 123, 124, 125, 126, 127, 128, 129, 130, 131, 132, 133, 134, 135, 136, 137, 138, 139, 140, 141, 142, 143, 144, 145, 146, 147, 148, 149, 150, 151, 152, 153, 154, 155, 156, 157, 158, 159, 160, 161, 162, 163, 164, 165, 166, 167, 168, 169, 170, 171, 172, 173, 174, 175, 176, 177, 178, 179, 180, 181, 182, 183, 184, 185, 186, 187, 188, 189, 190, 191, 192, 193, 194, 195, 196, 197, 198, 199, 200, 201, 202, 203, 204, 205, 206, 207, 208, 209, 210, 211, 212, 213, 214, 215, 216, 217, 218, 219, 220, 221, 222, 223, 224, 225, 226, 227, 228, 229, 230, 231, 232, 233, 234, 235, 236, 237, 238, 239, 240, 241, 242, 243, 244, 245, 246, 247, 248, 249, 250, 251, 252, 253, 254, 255, 256, 257, 258, 259, 260, 261, 262, 263, 264, 265, 266, 267, 268, 269, 270, 271, 272, 273, 274, 275, 276, 277, 278, 279, 280, 281, 282, 283, 284, 285, 286, 287, 288, 289, 290, 291, 292, 293, 294, 295, 296, 297, 298, 299, 300, 301, 302, 303, 304, 305, 306, 307, 308, 309, 310, 311, 312, 313, 314, 315, 316, 317, 318, 319, 320, 321, 322, 323, 324, 325, 326, 327, 328, 329, 330, 331, 332, 333, 334, 335, 336, 337, 338, 339, 340, 341, 342, 343, 344, 345, 346, 347, 348, 349, 350, 351, 352, 353, 354, 355, 356, 357, 358, 359, 360, 361, 362, 363, 364, 365, 366, 367, 368, 369, 370, 371, 372, 373, 374, 375, 376, 377, 378, 379, 380, 381, 382, 383, 384, 385, 386, 387, 388, 389, 390, 391, 392, 393, 394, 395, 396, 397, 398, 399, 400, 401, 402, 403, 404, 405, 406, 407, 408, 409, 410, 411, 412, 413, 414, 415, 416, 417, 418, 419, 420, 421, 422, 423, 424, 425, 426, 427, 428, 429, 430],
      "AcquisitionTime": ["175953.242500", "175954.732500", "175956.222500", "175957.712500", "175959.202500", "180000.692500", "180002.182500", "180003.672500", "180005.162500", "180006.652500", "180008.142500", "180009.632500", "180011.122500", "180012.612500", "180014.102500", "180015.592500", "180017.082500", "180018.572500", "180020.062500", "180021.552500", "180023.042500", "180024.532500", "180026.022500", "180027.512500", "180029.002500", "180030.492500", "180031.982500", "180033.472500", "180034.962500", "180036.452500", "180037.942500", "180039.432500", "180040.922500", "180042.412500", "180043.902500", "180045.392500", "180046.882500", "180048.372500", "180049.862500", "180051.352500", "180052.842500", "180054.332500", "180055.822500", "180057.312500", "180058.802500", "180100.292500", "180101.782500", "180103.272500", "180104.762500", "180106.252500", "180107.742500", "180109.232500", "180110.722500", "180112.212500", "180113.702500", "180115.192500", "180116.682500", "180118.172500", "180119.662500", "180121.152500", "180122.642500", "180124.132500", "180125.622500", "180127.112500", "180128.602500", "180130.092500", "180131.582500", "180133.072500", "180134.562500", "180136.052500", "180137.542500", "180139.032500", "180140.522500", "180142.012500", "180143.502500", "180144.992500", "180146.482500", "180147.972500", "180149.462500", "180150.952500", "180152.442500", "180153.932500", "180155.422500", "180156.912500", "180158.402500", "180159.892500", "180201.382500", "180202.872500", "180204.362500", "180205.852500", "180207.342500", "180208.832500", "180210.322500", "180211.812500", "180213.302500", "180214.792500", "180216.282500", "180217.772500", "180219.262500", "180220.752500", "180222.242500", "180223.732500", "180225.222500", "180226.712500", "180228.202500", "180229.692500", "180231.182500", "180232.672500", "180234.162500", "180235.652500", "180237.142500", "180238.632500", "180240.122500", "180241.612500", "180243.102500", "180244.592500", "180246.082500", "180247.572500", "180249.062500", "180250.552500", "180252.042500", "180253.532500", "180255.022500", "180256.512500", "180258.002500", "180259.492500", "180300.982500", "180302.472500", "180303.962500", "180305.452500", "180306.942500", "180308.432500", "180309.922500", "180311.412500", "180312.902500", "180314.392500", "180315.882500", "180317.372500", "180318.862500", "180320.352500", "180321.842500", "180323.332500", "180324.822500", "180326.312500", "180327.802500", "180329.292500", "180330.782500", "180332.272500", "180333.762500", "180335.252500", "180336.742500", "180338.232500", "180339.722500", "180341.212500", "180342.702500", "180344.192500", "180345.682500", "180347.172500", "180348.662500", "180350.152500", "180351.642500", "180353.132500", "180354.622500", "180356.112500", "180357.602500", "180359.092500", "180400.582500", "180402.072500", "180403.562500", "180405.052500", "180406.542500", "180408.032500", "180409.522500", "180411.012500", "180412.502500", "180413.992500", "180415.482500", "180416.972500", "180418.462500", "180419.952500", "180421.442500", "180422.932500", "180424.422500", "180425.912500", "180427.402500", "180428.892500", "180430.382500", "180431.872500", "180433.362500", "180434.852500", "180436.342500", "180437.832500", "180439.322500", "180440.812500", "180442.302500", "180443.792500", "180445.282500", "180446.772500", "180448.262500", "180449.752500", "180451.242500", "180452.732500", "180454.222500", "180455.712500", "180457.202500", "180458.692500", "180500.182500", "180501.672500", "180503.162500", "180504.652500", "180506.142500", "180507.632500", "180509.122500", "180510.612500", "180512.102500", "180513.592500", "180515.082500", "180516.572500", "180518.062500", "180519.552500", "180521.042500", "180522.532500", "180524.022500", "180525.512500", "180527.002500", "180528.492500", "180529.982500", "180531.472500", "180532.962500", "180534.452500", "180535.942500", "180537.432500", "180538.922500", "180540.412500", "180541.902500", "180543.392500", "180544.882500", "180546.372500", "180547.862500", "180549.352500", "180550.842500", "180552.332500", "180553.822500", "180555.312500", "180556.802500", "180558.292500", "180559.782500", "180601.272500", "180602.762500", "180604.252500", "180605.742500", "180607.232500", "180608.722500", "180610.212500", "180611.702500", "180613.192500", "180614.682500", "180616.172500", "180617.662500", "180619.152500", "180620.642500", "180622.132500", "180623.622500", "180625.112500", "180626.602500", "180628.092500", "180629.582500", "180631.072500", "180632.562500", "180634.052500", "180635.542500", "180637.032500", "180638.522500", "180640.012500", "180641.502500", "180642.992500", "180644.482500", "180645.972500", "180647.462500", "180648.952500", "180650.442500", "180651.932500", "180653.422500", "180654.912500", "180656.402500", "180657.892500", "180659.382500", "180700.872500", "180702.362500", "180703.852500", "180705.342500", "180706.832500", "180708.322500", "180709.812500", "180711.302500", "180712.792500", "180714.282500", "180715.772500", "180717.262500", "180718.752500", "180720.242500", "180721.732500", "180723.222500", "180724.712500", "180726.202500", "180727.692500", "180729.182500", "180730.672500", "180732.162500", "180733.652500", "180735.142500", "180736.632500", "180738.122500", "180739.612500", "180741.102500", "180742.592500", "180744.082500", "180745.572500", "180747.062500", "180748.552500", "180750.042500", "180751.532500", "180753.022500", "180754.512500", "180756.002500", "180757.492500", "180758.982500", "180800.472500", "180801.962500", "180803.452500", "180804.942500", "180806.432500", "180807.922500", "180809.412500", "180810.902500", "180812.392500", "180813.882500", "180815.372500", "180816.862500", "180818.352500", "180819.842500", "180821.332500", "180822.822500", "180824.312500", "180825.802500", "180827.292500", "180828.782500", "180830.272500", "180831.762500", "180833.252500", "180834.742500", "180836.232500", "180837.722500", "180839.212500", "180840.702500", "180842.192500", "180843.682500", "180845.172500", "180846.662500", "180848.152500", "180849.642500", "180851.132500", "180852.622500", "180854.112500", "180855.602500", "180857.092500", "180858.582500", "180900.072500", "180901.562500", "180903.052500", "180904.542500", "180906.032500", "180907.522500", "180909.012500", "180910.502500", "180911.992500", "180913.482500", "180914.972500", "180916.462500", "180917.952500", "180919.442500", "180920.932500", "180922.422500", "180923.912500", "180925.402500", "180926.892500", "180928.382500", "180929.872500", "180931.362500", "180932.852500", "180934.342500", "180935.832500", "180937.322500", "180938.812500", "180940.302500", "180941.792500", "180943.282500", "180944.772500", "180946.262500", "180947.752500", "180949.242500", "180950.732500", "180952.222500", "180953.712500", "180955.202500", "180956.692500", "180958.182500", "180959.672500", "181001.162500", "181002.652500", "181004.142500", "181005.632500", "181007.122500", "181008.612500", "181010.102500", "181011.592500", "181013.082500", "181014.572500", "181016.062500", "181017.552500", "181019.042500", "181020.532500", "181022.022500", "181023.512500", "181025.002500", "181026.492500", "181027.982500", "181029.472500", "181030.962500", "181032.452500"],
      "ContentTime": ["180125.600000", "180125.603000", "180125.605000", "180125.608000", "180125.610000", "180125.613000", "180125.615000", "180125.618000", "180125.620000", "180125.623000", "180125.625000", "180125.628000", "180125.630000", "180125.633000", "180125.635000", "180125.637000", "180125.640000", "180125.642000", "180125.645000", "180125.647000", "180125.650000", "180125.652000", "180125.655000", "180125.657000", "180125.659000", "180125.662000", "180125.665000", "180125.668000", "180125.670000", "180125.673000", "180125.675000", "180125.678000", "180125.680000", "180125.683000", "180125.685000", "180125.688000", "180125.690000", "180125.693000", "180125.695000", "180145.483000", "180145.485000", "180145.488000", "180145.490000", "180145.493000", "180145.495000", "180145.498000", "180145.500000", "180145.502000", "180145.505000", "180145.507000", "180145.510000", "180145.512000", "180145.515000", "180145.517000", "180145.520000", "180145.522000", "180145.525000", "180145.527000", "180145.530000", "180205.464000", "180205.467000", "180205.470000", "180205.472000", "180205.475000", "180205.477000", "180205.479000", "180205.482000", "180205.484000", "180205.487000", "180205.489000", "180205.492000", "180205.494000", "180205.497000", "180205.499000", "180205.501000", "180205.504000", "180205.506000", "180205.509000", "180205.512000", "180225.463000", "180225.466000", "180225.469000", "180225.471000", "180225.474000", "180225.476000", "180225.478000", "180225.481000", "180225.483000", "180225.486000", "180225.488000", "180225.491000", "180225.493000", "180225.496000", "180225.498000", "180225.501000", "180225.503000", "180225.506000", "180225.508000", "180225.511000", "180305.511000", "180305.514000", "180305.516000", "180305.519000", "180305.521000", "180305.524000", "180305.526000", "180305.529000", "180305.531000", "180305.534000", "180305.536000", "180305.539000", "180305.541000", "180305.544000", "180305.546000", "180305.549000", "180305.551000", "180305.554000", "180305.556000", "180305.558000", "180305.561000", "180305.563000", "180305.566000", "180305.568000", "180305.571000", "180305.574000", "180305.576000", "180305.579000", "180305.581000", "180345.485000", "180345.488000", "180345.490000", "180345.493000", "180345.495000", "180345.498000", "180345.500000", "180345.503000", "180345.505000", "180345.508000", "180345.510000", "180345.513000", "180345.515000", "180345.518000", "180345.520000", "180345.523000", "180345.525000", "180345.528000", "180345.530000", "180345.533000", "180345.535000", "180345.537000", "180345.540000", "180345.542000", "180345.545000", "180345.547000", "180345.550000", "180425.498000", "180425.501000", "180425.504000", "180425.506000", "180425.509000", "180425.511000", "180425.514000", "180425.516000", "180425.519000", "180425.521000", "180425.523000", "180425.526000", "180425.528000", "180425.531000", "180425.533000", "180425.536000", "180425.538000", "180425.541000", "180425.543000", "180425.546000", "180425.548000", "180425.551000", "180425.553000", "180425.556000", "180425.558000", "180425.561000", "180425.563000", "180505.489000", "180505.491000", "180505.494000", "180505.496000", "180505.499000", "180505.501000", "180505.504000", "180505.507000", "180505.509000", "180505.512000", "180505.514000", "180505.517000", "180505.520000", "180505.522000", "180505.537000", "180505.539000", "180505.542000", "180505.544000", "180505.547000", "180505.549000", "180505.552000", "180505.554000", "180505.557000", "180505.559000", "180505.561000", "180505.564000", "180545.497000", "180545.500000", "180545.502000", "180545.505000", "180545.507000", "180545.510000", "180545.512000", "180545.515000", "180545.517000", "180545.520000", "180545.522000", "180545.525000", "180545.527000", "180545.529000", "180545.532000", "180545.534000", "180545.537000", "180545.539000", "180545.542000", "180545.544000", "180545.547000", "180545.549000", "180545.552000", "180545.554000", "180545.557000", "180545.559000", "180545.562000", "180625.488000", "180625.491000", "180625.493000", "180625.496000", "180625.498000", "180625.501000", "180625.503000", "180625.506000", "180625.508000", "180625.511000", "180625.513000", "180625.516000", "180625.518000", "180625.521000", "180625.523000", "180625.526000", "180625.528000", "180625.531000", "180625.533000", "180625.536000", "180625.538000", "180625.541000", "180625.543000", "180625.546000", "180625.548000", "180625.551000", "180625.553000", "180705.501000", "180705.504000", "180705.506000", "180705.509000", "180705.511000", "180705.514000", "180705.516000", "180705.519000", "180705.521000", "180705.524000", "180705.526000", "180705.529000", "180705.531000", "180705.534000", "180705.536000", "180705.539000", "180705.541000", "180705.544000", "180705.546000", "180705.549000", "180705.551000", "180705.554000", "180705.556000", "180705.559000", "180705.561000", "180705.563000", "180705.566000", "180745.977000", "180745.979000", "180745.982000", "180745.984000", "180745.987000", "180745.989000", "180745.992000", "180745.994000", "180745.997000", "180746.000000", "180746.003000", "180746.005000", "180746.008000", "180746.011000", "180746.013000", "180746.016000", "180746.018000", "180746.021000", "180746.023000", "180746.026000", "180746.028000", "180746.031000", "180746.033000", "180746.036000", "180746.038000", "180746.041000", "180746.043000", "180805.440000", "180805.442000", "180805.445000", "180805.447000", "180805.450000", "180805.452000", "180805.455000", "180805.457000", "180805.460000", "180805.462000", "180805.465000", "180805.467000", "180805.470000", "180845.483000", "180845.486000", "180845.488000", "180845.491000", "180845.493000", "180845.496000", "180845.498000", "180845.501000", "180845.503000", "180845.506000", "180845.508000", "180845.511000", "180845.513000", "180845.515000", "180845.518000", "180845.520000", "180845.523000", "180845.525000", "180845.528000", "180845.530000", "180845.533000", "180845.535000", "180845.538000", "180845.540000", "180845.543000", "180845.545000", "180845.548000", "180925.490000", "180925.493000", "180925.496000", "180925.498000", "180925.501000", "180925.503000", "180925.506000", "180925.508000", "180925.511000", "180925.513000", "180925.516000", "180925.518000", "180925.521000", "180925.523000", "180925.526000", "180925.528000", "180925.531000", "180925.533000", "180925.536000", "180925.538000", "180925.541000", "180925.543000", "180925.546000", "180925.548000", "180925.551000", "180925.553000", "180925.556000", "181005.508000", "181005.511000", "181005.513000", "181005.516000", "181005.518000", "181005.521000", "181005.523000", "181005.526000", "181005.528000", "181005.531000", "181005.533000", "181005.536000", "181005.538000", "181005.541000", "181005.543000", "181005.546000", "181005.548000", "181005.551000", "181005.553000", "181005.556000", "181005.558000", "181005.561000", "181005.563000", "181005.566000", "181005.569000", "181005.571000", "181005.573000", "181035.136000", "181035.139000", "181035.142000", "181035.144000", "181035.147000", "181035.149000", "181035.152000", "181035.154000", "181035.157000", "181035.159000", "181035.162000", "181035.164000", "181035.167000", "181035.169000", "181035.172000", "181035.174000", "181035.177000", "181035.180000", "181035.182000", "181035.184000"],
      "InstanceCreationTime": ["180125.600000", "180125.603000", "180125.605000", "180125.608000", "180125.610000", "180125.613000", "180125.615000", "180125.618000", "180125.620000", "180125.623000", "180125.625000", "180125.628000", "180125.630000", "180125.633000", "180125.635000", "180125.637000", "180125.640000", "180125.642000", "180125.645000", "180125.647000", "180125.650000", "180125.652000", "180125.655000", "180125.657000", "180125.659000", "180125.662000", "180125.665000", "180125.668000", "180125.670000", "180125.673000", "180125.675000", "180125.678000", "180125.680000", "180125.683000", "180125.685000", "180125.688000", "180125.690000", "180125.693000", "180125.695000", "180145.483000", "180145.485000", "180145.488000", "180145.490000", "180145.493000", "180145.495000", "180145.498000", "180145.500000", "180145.502000", "180145.505000", "180145.507000", "180145.510000", "180145.512000", "180145.515000", "180145.517000", "180145.520000", "180145.522000", "180145.525000", "180145.527000", "180145.530000", "180205.464000", "180205.467000", "180205.470000", "180205.472000", "180205.475000", "180205.477000", "180205.479000", "180205.482000", "180205.484000", "180205.487000", "180205.489000", "180205.492000", "180205.494000", "180205.497000", "180205.499000", "180205.501000", "180205.504000", "180205.506000", "180205.509000", "180205.512000", "180225.463000", "180225.466000", "180225.469000", "180225.471000", "180225.474000", "180225.476000", "180225.478000", "180225.481000", "180225.483000", "180225.486000", "180225.488000", "180225.491000", "180225.493000", "180225.496000", "180225.498000", "180225.501000", "180225.503000", "180225.506000", "180225.508000", "180225.511000", "180305.511000", "180305.514000", "180305.516000", "180305.519000", "180305.521000", "180305.524000", "180305.526000", "180305.529000", "180305.531000", "180305.534000", "180305.536000", "180305.539000", "180305.541000", "180305.544000", "180305.546000", "180305.549000", "180305.551000", "180305.554000", "180305.556000", "180305.558000", "180305.561000", "180305.563000", "180305.566000", "180305.568000", "180305.571000", "180305.574000", "180305.576000", "180305.579000", "180305.581000", "180345.485000", "180345.488000", "180345.490000", "180345.493000", "180345.495000", "180345.498000", "180345.500000", "180345.503000", "180345.505000", "180345.508000", "180345.510000", "180345.513000", "180345.515000", "180345.518000", "180345.520000", "180345.523000", "180345.525000", "180345.528000", "180345.530000", "180345.533000", "180345.535000", "180345.537000", "180345.540000", "180345.542000", "180345.545000", "180345.547000", "180345.550000", "180425.498000", "180425.501000", "180425.504000", "180425.506000", "180425.509000", "180425.511000", "180425.514000", "180425.516000", "180425.519000", "180425.521000", "180425.523000", "180425.526000", "180425.528000", "180425.531000", "180425.533000", "180425.536000", "180425.538000", "180425.541000", "180425.543000", "180425.546000", "180425.548000", "180425.551000", "180425.553000", "180425.556000", "180425.558000", "180425.561000", "180425.563000", "180505.489000", "180505.491000", "180505.494000", "180505.496000", "180505.499000", "180505.501000", "180505.504000", "180505.507000", "180505.509000", "180505.512000", "180505.514000", "180505.517000", "180505.520000", "180505.522000", "180505.537000", "180505.539000", "180505.542000", "180505.544000", "180505.547000", "180505.549000", "180505.552000", "180505.554000", "180505.557000", "180505.559000", "180505.561000", "180505.564000", "180545.497000", "180545.500000", "180545.502000", "180545.505000", "180545.507000", "180545.510000", "180545.512000", "180545.515000", "180545.517000", "180545.520000", "180545.522000", "180545.525000", "180545.527000", "180545.529000", "180545.532000", "180545.534000", "180545.537000", "180545.539000", "180545.542000", "180545.544000", "180545.547000", "180545.549000", "180545.552000", "180545.554000", "180545.557000", "180545.559000", "180545.562000", "180625.488000", "180625.491000", "180625.493000", "180625.496000", "180625.498000", "180625.501000", "180625.503000", "180625.506000", "180625.508000", "180625.511000", "180625.513000", "180625.516000", "180625.518000", "180625.521000", "180625.523000", "180625.526000", "180625.528000", "180625.531000", "180625.533000", "180625.536000", "180625.538000", "180625.541000", "180625.543000", "180625.546000", "180625.548000", "180625.551000", "180625.553000", "180705.501000", "180705.504000", "180705.506000", "180705.509000", "180705.511000", "180705.514000", "180705.516000", "180705.519000", "180705.521000", "180705.524000", "180705.526000", "180705.529000", "180705.531000", "180705.534000", "180705.536000", "180705.539000", "180705.541000", "180705.544000", "180705.546000", "180705.549000", "180705.551000", "180705.554000", "180705.556000", "180705.559000", "180705.561000", "180705.563000", "180705.566000", "180745.977000", "180745.979000", "180745.982000", "180745.984000", "180745.987000", "180745.989000", "180745.992000", "180745.994000", "180745.997000", "180746.000000", "180746.003000", "180746.005000", "180746.008000", "180746.011000", "180746.013000", "180746.016000", "180746.018000", "180746.021000", "180746.023000", "180746.026000", "180746.028000", "180746.031000", "180746.033000", "180746.036000", "180746.038000", "180746.041000", "180746.043000", "180805.440000", "180805.442000", "180805.445000", "180805.447000", "180805.450000", "180805.452000", "180805.455000", "180805.457000", "180805.460000", "180805.462000", "180805.465000", "180805.467000", "180805.470000", "180845.483000", "180845.486000", "180845.488000", "180845.491000", "180845.493000", "180845.496000", "180845.498000", "180845.501000", "180845.503000", "180845.506000", "180845.508000", "180845.511000", "180845.513000", "180845.515000", "180845.518000", "180845.520000", "180845.523000", "180845.525000", "180845.528000", "180845.530000", "180845.533000", "180845.535000", "180845.538000", "180845.540000", "180845.543000", "180845.545000", "180845.548000", "180925.490000", "180925.493000", "180925.496000", "180925.498000", "180925.501000", "180925.503000", "180925.506000", "180925.508000", "180925.511000", "180925.513000", "180925.516000", "180925.518000", "180925.521000", "180925.523000", "180925.526000", "180925.528000", "180925.531000", "180925.533000", "180925.536000", "180925.538000", "180925.541000", "180925.543000", "180925.546000", "180925.548000", "180925.551000", "180925.553000", "180925.556000", "181005.508000", "181005.511000", "181005.513000", "181005.516000", "181005.518000", "181005.521000", "181005.523000", "181005.526000", "181005.528000", "181005.531000", "181005.533000", "181005.536000", "181005.538000", "181005.541000", "181005.543000", "181005.546000", "181005.548000", "181005.551000", "181005.553000", "181005.556000", "181005.558000", "181005.561000", "181005.563000", "181005.566000", "181005.569000", "181005.571000", "181005.573000", "181035.136000", "181035.139000", "181035.142000", "181035.144000", "181035.147000", "181035.149000", "181035.152000", "181035.154000", "181035.157000", "181035.159000", "181035.162000", "181035.164000", "181035.167000", "181035.169000", "181035.172000", "181035.174000", "181035.177000", "181035.180000", "181035.182000", "181035.184000"],
