{
  "AcquisitionMatrixPE": 104,
  "AcquisitionNumber": 1,
  "AcquisitionTime": "17:46:45.135000",
  "BandwidthPerPixelPhaseEncode": 17.17,
  "BaseResolution": 104,
  "BodyPartExamined": "BRAIN",
  "CoilCombinationMethod": "Sum of Squares",
  "ConsistencyInfo": "N4_VE11C_LATEST_20160120",
  "ConversionSoftware": "dcm2niix",
  "ConversionSoftwareVersion": "v1.0.20211006",
  "DerivedVendorReportedEchoSpacing": 0.000560011,
  "DeviceSerialNumber": "167006",
  "DwellTime": 2.1e-06,
  "EchoTime": 0.037,
  "EchoTrainLength": 104,
  "EffectiveEchoSpacing": 0.000560011,
  "FlipAngle": 52,
  "HeudiconvVersion": "0.11.3.post9+gc939bf8",
  "ImageComments": "Unaliased MB4/PE3/LB",
  "ImageOrientationPatientDICOM": [0.995216, 0.0939963, 0.0266573, -0.0798983, 0.940008, -0.331663],
  "ImageOrientationText": "Tra>Cor(-19.2)>Sag(3.2)",
  "ImageType": [
    "ORIGINAL",
    "PRIMARY",
    "M",
    "MB",
    "ND",
    "MOSAIC"
],
  "ImagingFrequency": 123.259,
  "InPlanePhaseEncodingDirectionDICOM": "COL",
  "InstitutionAddress": "Chemin Queen-Mary 4565,Montreal,District,CA,H3W 1W5",
  "InstitutionName": "IUGM",
  "InstitutionalDepartmentName": "Department",
  "MRAcquisitionType": "2D",
  "MagneticFieldStrength": 3,
  "Manufacturer": "Siemens",
  "ManufacturersModelName": "Prisma_fit",
  "MatrixCoilMode": "SENSE",
  "Modality": "MR",
  "MultibandAccelerationFactor": 4,
  "PartialFourier": 1,
  "PatientPosition": "HFS",
  "PercentPhaseFOV": 100,
  "PercentSampling": 100,
  "PhaseEncodingDirection": "j",
  "PhaseEncodingSteps": 104,
  "PhaseResolution": 1,
  "PixelBandwidth": 2290,
  "ProcedureStepDescription": "games^mariostars",
  "ProtocolName": "func_task-mariostars_run-03",
  "PulseSequenceDetails": "%CustomerSeq%\\cmrr_mbep2d_bold",
  "ReceiveCoilActiveElements": "HC1-7;NC1,2",
  "ReceiveCoilName": "HeadNeck_64",
  "ReconMatrixPE": 104,
  "RepetitionTime": 1.49,
  "SAR": 0.051815,
  "ScanOptions": "FS",
  "ScanningSequence": "EP",
  "SequenceName": "epfid2d1_104",
  "SequenceVariant": "SK\\SS",
  "SeriesDescription": "func_task-mariostars_run-03",
  "SeriesNumber": 16,
  "ShimSetting": [641, -7185, -8816, 659, 142, 16, -24, 4],
  "SliceThickness": 2,
  "SliceTiming": [0, 0.785, 0.1, 0.8825, 0.1975, 0.98, 0.295, 1.08, 0.3925, 1.1775, 0.49, 1.275, 0.59, 1.3725, 0.6875, 0, 0.785, 0.1, 0.8825, 0.1975, 0.98, 0.295, 1.08, 0.3925, 1.1775, 0.49, 1.275, 0.59, 1.3725, 0.6875, 0, 0.785, 0.1, 0.8825, 0.1975, 0.98, 0.295, 1.08, 0.3925, 1.1775, 0.49, 1.275, 0.59, 1.3725, 0.6875, 0, 0.785, 0.1, 0.8825, 0.1975, 0.98, 0.295, 1.08, 0.3925, 1.1775, 0.49, 1.275, 0.59, 1.3725, 0.6875],
  "SoftwareVersions": "syngo MR E11",
  "SpacingBetweenSlices": 2,
  "StationName": "MRC35049",
  "TaskName": "mariostars",
  "TotalReadoutTime": 0.0576811,
  "TxRefAmp": 275.299,
  "WipMemBlock": "85c9182f-2270-4fa7-a1f0-00e178b87d03||Sequence: R016 ve11c/master r/e634e98; Dec 19 2017 11:00:25 by eja",
  "dcmmeta_affine": [
    [-1.9904311895370483, -0.15979669988155365, 0.11246634274721146, 110.62923431396484],
    [-0.1879926174879074, 1.880016803741455, -0.655893087387085, -51.44361877441406],
    [0.05331452563405037, 0.6633264422416687, 1.8860423564910889, -61.21650695800781],
    [0.0, 0.0, 0.0, 1.0]
],
  "dcmmeta_reorient_transform": [
    [0.0, -1.0, 0.0, 103.0],
    [1.0, 0.0, 0.0, 0.0],
    [0.0, 0.0, 1.0, 0.0],
    [0.0, 0.0, 0.0, 1.0]
],
  "dcmmeta_shape": [104, 104, 60, 469],
  "dcmmeta_slice_dim": 2,
  "dcmmeta_version": 0.6,
  "global": {
    "const": {
      "AcquisitionMatrix": [104, 0, 0, 104],
      "AngioFlag": "N",
      "BitsAllocated": 16,
      "BitsStored": 16,
      "BodyPartExamined": "BRAIN",
      "Columns": 832,
      "EchoNumbers": 1,
      "EchoTime": 37.0,
      "EchoTrainLength": 104,
      "FlipAngle": 52.0,
      "HighBit": 15,
      "ImageOrientationPatient": [0.99521559687149, 0.09399630876335, 0.02665726322391, -0.0798983502289, 0.94000838265712, -0.3316632240166],
      "ImagePositionPatient": [-760.52113004524, -894.95352435558, 229.15045551901],
      "ImageType": [
        "ORIGINAL",
        "PRIMARY",
        "M",
        "MB",
        "ND",
        "MOSAIC"
],
      "ImagedNucleus": "1H",
      "ImagingFrequency": 123.258847,
      "InPlanePhaseEncodingDirection": "COL",
      "MRAcquisitionType": "2D",
      "MagneticFieldStrength": 3.0,
      "Manufacturer": "SIEMENS",
      "ManufacturerModelName": "Prisma_fit",
      "Modality": "MR",
      "NumberOfAverages": 1.0,
      "NumberOfPhaseEncodingSteps": 104,
      "PercentPhaseFieldOfView": 100.0,
      "PercentSampling": 100.0,
      "PerformedProcedureStepStartTime": "170113.910000",
      "PhotometricInterpretation": "MONOCHROME2",
      "PixelBandwidth": 2290.0,
      "PixelRepresentation": 0,
      "PixelSpacing": [2.0, 2.0],
      "ProtocolName": "func_task-mariostars_run-03",
      "RepetitionTime": 1490.0,
      "Rows": 832,
      "SAR": 0.05181498587509,
      "SamplesPerPixel": 1,
      "ScanOptions": "FS",
      "ScanningSequence": "EP",
      "SequenceName": "epfid2d1_104",
      "SequenceVariant": [
        "SK",
        "SS"
],
      "SeriesDescription": "func_task-mariostars_run-03",
      "SeriesNumber": 16,
      "SeriesTime": "174815.232000",
      "SliceLocation": -34.636672970634,
      "SliceThickness": 2.0,
      "SmallestImagePixelValue": 0,
      "SoftwareVersions": "syngo MR E11",
      "SpacingBetweenSlices": 2.0000000475625,
      "SpecificCharacterSet": "ISO_IR 100",
      "StudyID": "1",
      "StudyTime": "170113.838000",
      "TransmitCoilName": "Body",
      "VariableFlipAngleFlag": "N",
      "WindowCenterWidthExplanation": "Algo1",
      "dBdt": 0.0},
    "slices": {}
  },
  "time": {
    "samples": {
      "AcquisitionNumber": [1, 2, 3, 4, 5, 6, 7, 8, 9, 10, 11, 12, 13, 14, 15, 16, 17, 18, 19, 20, 21, 22, 23, 24, 25, 26, 27, 28, 29, 30, 31, 32, 33, 34, 35, 36, 37, 38, 39, 40, 41, 42, 43, 44, 45, 46, 47, 48, 49, 50, 51, 52, 53, 54, 55, 56, 57, 58, 59, 60, 61, 62, 63, 64, 65, 66, 67, 68, 69, 70, 71, 72, 73, 74, 75, 76, 77, 78, 79, 80, 81, 82, 83, 84, 85, 86, 87, 88, 89, 90, 91, 92, 93, 94, 95, 96, 97, 98, 99, 100, 101, 102, 103, 104, 105, 106, 107, 108, 109, 110, 111, 112, 113, 114, 115, 116, 117, 118, 119, 120, 121, 122, 123, 124, 125, 126, 127, 128, 129, 130, 131, 132, 133, 134, 135, 136, 137, 138, 139, 140, 141, 142, 143, 144, 145, 146, 147, 148, 149, 150, 151, 152, 153, 154, 155, 156, 157, 158, 159, 160, 161, 162, 163, 164, 165, 166, 167, 168, 169, 170, 171, 172, 173, 174, 175, 176, 177, 178, 179, 180, 181, 182, 183, 184, 185, 186, 187, 188, 189, 190, 191, 192, 193, 194, 195, 196, 197, 198, 199, 200, 201, 202, 203, 204, 205, 206, 207, 208, 209, 210, 211, 212, 213, 214, 215, 216, 217, 218, 219, 220, 221, 222, 223, 224, 225, 226, 227, 228, 229, 230, 231, 232, 233, 234, 235, 236, 237, 238, 239, 240, 241, 242, 243, 244, 245, 246, 247, 248, 249, 250, 251, 252, 253, 254, 255, 256, 257, 258, 259, 260, 261, 262, 263, 264, 265, 266, 267, 268, 269, 270, 271, 272, 273, 274, 275, 276, 277, 278, 279, 280, 281, 282, 283, 284, 285, 286, 287, 288, 289, 290, 291, 292, 293, 294, 295, 296, 297, 298, 299, 300, 301, 302, 303, 304, 305, 306, 307, 308, 309, 310, 311, 312, 313, 314, 315, 316, 317, 318, 319, 320, 321, 322, 323, 324, 325, 326, 327, 328, 329, 330, 331, 332, 333, 334, 335, 336, 337, 338, 339, 340, 341, 342, 343, 344, 345, 346, 347, 348, 349, 350, 351, 352, 353, 354, 355, 356, 357, 358, 359, 360, 361, 362, 363, 364, 365, 366, 367, 368, 369, 370, 371, 372, 373, 374, 375, 376, 377, 378, 379, 380, 381, 382, 383, 384, 385, 386, 387, 388, 389, 390, 391, 392, 393, 394, 395, 396, 397, 398, 399, 400, 401, 402, 403, 404, 405, 406, 407, 408, 409, 410, 411, 412, 413, 414, 415, 416, 417, 418, 419, 420, 421, 422, 423, 424, 425, 426, 427, 428, 429, 430, 431, 432, 433, 434, 435, 436, 437, 438, 439, 440, 441, 442, 443, 444, 445, 446, 447, 448, 449, 450, 451, 452, 453, 454, 455, 456, 457, 458, 459, 460, 461, 462, 463, 464, 465, 466, 467, 468, 469],
      "AcquisitionTime": ["174645.135000", "174646.625000", "174648.115000", "174649.605000", "174651.095000", "174652.585000", "174654.075000", "174655.565000", "174657.055000", "174658.545000", "174700.035000", "174701.525000", "174703.015000", "174704.505000", "174705.995000", "174707.485000", "174708.975000", "174710.465000", "174711.955000", "174713.445000", "174714.935000", "174716.425000", "174717.915000", "174719.405000", "174720.895000", "174722.385000", "174723.875000", "174725.365000", "174726.855000", "174728.345000", "174729.835000", "174731.325000", "174732.815000", "174734.305000", "174735.795000", "174737.285000", "174738.775000", "174740.265000", "174741.755000", "174743.245000", "174744.735000", "174746.225000", "174747.715000", "174749.205000", "174750.695000", "174752.185000", "174753.675000", "174755.165000", "174756.655000", "174758.145000", "174759.635000", "174801.125000", "174802.615000", "174804.105000", "174805.595000", "174807.085000", "174808.575000", "174810.065000", "174811.555000", "174813.045000", "174814.535000", "174816.025000", "174817.515000", "174819.005000", "174820.495000", "174821.985000", "174823.475000", "174824.965000", "174826.455000", "174827.945000", "174829.435000", "174830.925000", "174832.415000", "174833.905000", "174835.395000", "174836.885000", "174838.375000", "174839.865000", "174841.355000", "174842.845000", "174844.335000", "174845.825000", "174847.315000", "174848.805000", "174850.295000", "174851.785000", "174853.275000", "174854.765000", "174856.255000", "174857.745000", "174859.235000", "174900.725000", "174902.215000", "174903.705000", "174905.195000", "174906.685000", "174908.175000", "174909.665000", "174911.155000", "174912.645000", "174914.135000", "174915.625000", "174917.115000", "174918.605000", "174920.095000", "174921.585000", "174923.075000", "174924.565000", "174926.055000", "174927.545000", "174929.035000", "174930.525000", "174932.015000", "174933.505000", "174934.995000", "174936.485000", "174937.975000", "174939.465000", "174940.955000", "174942.445000", "174943.935000", "174945.425000", "174946.915000", "174948.405000", "174949.895000", "174951.385000", "174952.875000", "174954.365000", "174955.855000", "174957.345000", "174958.835000", "175000.325000", "175001.815000", "175003.305000", "175004.795000", "175006.285000", "175007.775000", "175009.265000", "175010.755000", "175012.245000", "175013.735000", "175015.225000", "175016.715000", "175018.205000", "175019.695000", "175021.185000", "175022.675000", "175024.165000", "175025.655000", "175027.145000", "175028.635000", "175030.125000", "175031.615000", "175033.105000", "175034.595000", "175036.085000", "175037.575000", "175039.065000", "175040.555000", "175042.045000", "175043.535000", "175045.025000", "175046.515000", "175048.005000", "175049.495000", "175050.985000", "175052.475000", "175053.965000", "175055.455000", "175056.945000", "175058.435000", "175059.925000", "175101.415000", "175102.905000", "175104.395000", "175105.885000", "175107.375000", "175108.865000", "175110.355000", "175111.845000", "175113.335000", "175114.825000", "175116.315000", "175117.805000", "175119.295000", "175120.785000", "175122.275000", "175123.765000", "175125.255000", "175126.745000", "175128.235000", "175129.725000", "175131.215000", "175132.705000", "175134.195000", "175135.685000", "175137.175000", "175138.665000", "175140.155000", "175141.645000", "175143.135000", "175144.625000", "175146.115000", "175147.605000", "175149.095000", "175150.585000", "175152.075000", "175153.565000", "175155.055000", "175156.545000", "175158.035000", "175159.525000", "175201.015000", "175202.505000", "175203.995000", "175205.485000", "175206.975000", "175208.465000", "175209.955000", "175211.445000", "175212.935000", "175214.425000", "175215.915000", "175217.405000", "175218.895000", "175220.385000", "175221.875000", "175223.365000", "175224.855000", "175226.345000", "175227.835000", "175229.325000", "175230.815000", "175232.305000", "175233.795000", "175235.285000", "175236.775000", "175238.265000", "175239.755000", "175241.245000", "175242.735000", "175244.225000", "175245.715000", "175247.205000", "175248.695000", "175250.185000", "175251.675000", "175253.165000", "175254.655000", "175256.145000", "175257.635000", "175259.125000", "175300.615000", "175302.105000", "175303.595000", "175305.085000", "175306.575000", "175308.065000", "175309.555000", "175311.045000", "175312.535000", "175314.025000", "175315.515000", "175317.005000", "175318.495000", "175319.985000", "175321.475000", "175322.965000", "175324.455000", "175325.945000", "175327.435000", "175328.925000", "175330.415000", "175331.905000", "175333.395000", "175334.885000", "175336.375000", "175337.865000", "175339.355000", "175340.845000", "175342.335000", "175343.825000", "175345.315000", "175346.805000", "175348.295000", "175349.785000", "175351.275000", "175352.765000", "175354.255000", "175355.745000", "175357.235000", "175358.725000", "175400.215000", "175401.705000", "175403.195000", "175404.685000", "175406.175000", "175407.665000", "175409.155000", "175410.645000", "175412.135000", "175413.625000", "175415.115000", "175416.605000", "175418.095000", "175419.585000", "175421.075000", "175422.565000", "175424.055000", "175425.545000", "175427.035000", "175428.525000", "175430.015000", "175431.505000", "175432.995000", "175434.485000", "175435.975000", "175437.465000", "175438.955000", "175440.445000", "175441.935000", "175443.425000", "175444.915000", "175446.405000", "175447.895000", "175449.385000", "175450.875000", "175452.365000", "175453.855000", "175455.345000", "175456.835000", "175458.325000", "175459.815000", "175501.305000", "175502.795000", "175504.285000", "175505.775000", "175507.265000", "175508.755000", "175510.245000", "175511.735000", "175513.225000", "175514.715000", "175516.205000", "175517.695000", "175519.185000", "175520.675000", "175522.165000", "175523.655000", "175525.145000", "175526.635000", "175528.125000", "175529.615000", "175531.105000", "175532.595000", "175534.085000", "175535.575000", "175537.065000", "175538.555000", "175540.045000", "175541.535000", "175543.025000", "175544.515000", "175546.005000", "175547.495000", "175548.985000", "175550.475000", "175551.965000", "175553.455000", "175554.945000", "175556.435000", "175557.925000", "175559.415000", "175600.905000", "175602.395000", "175603.885000", "175605.375000", "175606.865000", "175608.355000", "175609.845000", "175611.335000", "175612.825000", "175614.315000", "175615.805000", "175617.295000", "175618.785000", "175620.275000", "175621.765000", "175623.255000", "175624.745000", "175626.235000", "175627.725000", "175629.215000", "175630.705000", "175632.195000", "175633.685000", "175635.175000", "175636.665000", "175638.155000", "175639.645000", "175641.135000", "175642.625000", "175644.115000", "175645.605000", "175647.095000", "175648.585000", "175650.075000", "175651.565000", "175653.055000", "175654.545000", "175656.035000", "175657.525000", "175659.015000", "175700.505000", "175701.995000", "175703.485000", "175704.975000", "175706.465000", "175707.955000", "175709.445000", "175710.935000", "175712.425000", "175713.915000", "175715.405000", "175716.895000", "175718.385000", "175719.875000", "175721.365000", "175722.855000", "175724.345000", "175725.835000", "175727.325000", "175728.815000", "175730.305000", "175731.795000", "175733.285000", "175734.775000", "175736.265000", "175737.755000", "175739.245000", "175740.735000", "175742.225000", "175743.715000", "175745.205000", "175746.695000", "175748.185000", "175749.675000", "175751.165000", "175752.655000", "175754.145000", "175755.635000", "175757.125000", "175758.615000", "175800.105000", "175801.595000", "175803.085000", "175804.575000", "175806.065000", "175807.555000", "175809.045000", "175810.535000", "175812.025000", "175813.515000", "175815.005000", "175816.495000", "175817.985000", "175819.475000", "175820.965000", "175822.455000"],
      "ContentTime": ["174815.235000", "174815.239000", "174815.242000", "174815.245000", "174815.249000", "174815.252000", "174815.255000", "174815.258000", "174815.262000", "174815.265000", "174815.268000", "174815.271000", "174815.275000", "174815.286000", "174815.289000", "174815.292000", "174815.295000", "174815.299000", "174815.302000", "174815.305000", "174815.308000", "174815.312000", "174815.320000", "174815.323000", "174815.326000", "174815.330000", "174815.333000", "174815.336000", "174815.339000", "174815.343000", "174815.346000", "174815.349000", "174815.353000", "174815.356000", "174815.359000", "174815.362000", "174835.199000", "174835.203000", "174835.206000", "174835.210000", "174835.213000", "174835.216000", "174835.220000", "174835.223000", "174835.226000", "174835.230000", "174835.233000", "174835.236000", "174835.240000", "174835.243000", "174835.246000", "174835.250000", "174835.253000", "174835.256000", "174835.260000", "174835.263000", "174855.199000", "174855.203000", "174855.206000", "174855.209000", "174855.213000", "174855.216000", "174855.219000", "174855.222000", "174855.226000", "174855.229000", "174855.232000", "174855.236000", "174855.239000", "174855.242000", "174855.245000", "174855.249000", "174855.252000", "174855.255000", "174855.259000", "174855.262000", "174915.199000", "174915.203000", "174915.206000", "174915.209000", "174915.213000", "174915.216000", "174915.219000", "174915.222000", "174915.226000", "174915.229000", "174915.232000", "174915.236000", "174915.239000", "174915.242000", "174915.245000", "174915.249000", "174915.252000", "174915.255000", "174915.258000", "174915.261000", "174915.265000", "174955.198000", "174955.202000", "174955.205000", "174955.208000", "174955.212000", "174955.215000", "174955.218000", "174955.222000", "174955.225000", "174955.229000", "174955.233000", "174955.236000", "174955.239000", "174955.243000", "174955.246000", "174955.249000", "174955.252000", "174955.256000", "174955.259000", "174955.262000", "174955.266000", "174955.269000", "174955.272000", "174955.275000", "174955.279000", "174955.294000", "174955.297000", "174955.300000", "174955.304000", "175035.199000", "175035.203000", "175035.206000", "175035.209000", "175035.213000", "175035.216000", "175035.219000", "175035.223000", "175035.226000", "175035.229000", "175035.232000", "175035.236000", "175035.239000", "175035.242000", "175035.245000", "175035.249000", "175035.252000", "175035.255000", "175035.259000", "175035.262000", "175035.265000", "175035.268000", "175035.272000", "175035.275000", "175035.278000", "175035.281000", "175035.285000", "175115.199000", "175115.203000", "175115.206000", "175115.209000", "175115.213000", "175115.216000", "175115.219000", "175115.223000", "175115.226000", "175115.229000", "175115.232000", "175115.236000", "175115.240000", "175115.243000", "175115.246000", "175115.250000", "175115.253000", "175115.256000", "175115.260000", "175115.263000", "175115.266000", "175115.269000", "175115.273000", "175115.276000", "175115.279000", "175115.283000", "175115.286000", "175155.198000", "175155.202000", "175155.205000", "175155.208000", "175155.212000", "175155.215000", "175155.218000", "175155.222000", "175155.225000", "175155.228000", "175155.231000", "175155.235000", "175155.238000", "175155.241000", "175155.244000", "175155.248000", "175155.251000", "175155.254000", "175155.258000", "175155.261000", "175155.264000", "175155.267000", "175155.271000", "175155.274000", "175155.277000", "175155.281000", "175155.284000", "175235.198000", "175235.202000", "175235.205000", "175235.208000", "175235.212000", "175235.215000", "175235.231000", "175235.235000", "175235.238000", "175235.241000", "175235.245000", "175235.248000", "175235.251000", "175235.255000", "175235.258000", "175235.261000", "175235.265000", "175235.268000", "175235.271000", "175235.274000", "175235.278000", "175235.281000", "175235.284000", "175235.288000", "175235.291000", "175235.294000", "175235.297000", "175315.199000", "175315.203000", "175315.206000", "175315.210000", "175315.221000", "175315.224000", "175315.227000", "175315.230000", "175315.234000", "175315.237000", "175315.240000", "175315.244000", "175315.247000", "175315.250000", "175315.253000", "175315.257000", "175315.260000", "175315.263000", "175315.267000", "175315.270000", "175315.273000", "175315.277000", "175315.280000", "175315.283000", "175315.286000", "175315.290000", "175315.293000", "175355.199000", "175355.203000", "175355.206000", "175355.209000", "175355.213000", "175355.216000", "175355.220000", "175355.223000", "175355.226000", "175355.230000", "175355.233000", "175355.236000", "175355.240000", "175355.243000", "175355.246000", "175355.250000", "175355.253000", "175355.256000", "175355.260000", "175355.263000", "175355.266000", "175355.270000", "175355.273000", "175355.276000", "175355.279000", "175355.283000", "175435.198000", "175435.202000", "175435.205000", "175435.208000", "175435.212000", "175435.215000", "175435.218000", "175435.222000", "175435.225000", "175435.228000", "175435.231000", "175435.235000", "175435.238000", "175435.241000", "175435.245000", "175435.248000", "175435.251000", "175435.254000", "175435.258000", "175435.261000", "175435.264000", "175435.268000", "175435.271000", "175435.274000", "175435.277000", "175435.280000", "175435.284000", "175515.199000", "175515.203000", "175515.206000", "175515.209000", "175515.213000", "175515.216000", "175515.219000", "175515.223000", "175515.226000", "175515.229000", "175515.232000", "175515.236000", "175515.239000", "175515.242000", "175515.246000", "175515.259000", "175515.263000", "175515.266000", "175515.269000", "175515.273000", "175515.276000", "175515.279000", "175515.282000", "175515.286000", "175515.289000", "175515.292000", "175515.295000", "175555.199000", "175555.203000", "175555.206000", "175555.209000", "175555.213000", "175555.216000", "175555.219000", "175555.223000", "175555.226000", "175555.229000", "175555.232000", "175555.236000", "175555.239000", "175555.242000", "175555.245000", "175555.249000", "175555.252000", "175555.255000", "175555.259000", "175555.262000", "175555.265000", "175555.269000", "175555.272000", "175555.275000", "175555.278000", "175555.282000", "175555.285000", "175635.198000", "175635.202000", "175635.205000", "175635.208000", "175635.213000", "175635.217000", "175635.220000", "175635.223000", "175635.227000", "175635.230000", "175635.233000", "175635.237000", "175635.240000", "175635.243000", "175635.246000", "175635.250000", "175635.253000", "175635.256000", "175635.260000", "175635.263000", "175635.266000", "175635.269000", "175635.273000", "175635.276000", "175635.279000", "175635.283000", "175635.286000", "175715.198000", "175715.202000", "175715.205000", "175715.208000", "175715.212000", "175715.231000", "175715.234000", "175715.238000", "175715.241000", "175715.244000", "175715.247000", "175715.251000", "175715.254000", "175715.257000", "175715.261000", "175715.264000", "175715.267000", "175715.270000", "175715.274000", "175715.277000", "175715.280000", "175715.284000", "175715.287000", "175715.290000", "175715.293000", "175715.296000", "175715.300000", "175755.199000", "175755.203000", "175755.206000", "175755.209000", "175755.213000", "175755.216000", "175755.219000", "175755.223000", "175755.226000", "175755.229000", "175755.241000", "175755.245000", "175755.248000", "175755.251000", "175755.254000", "175755.258000", "175755.261000", "175755.264000", "175755.268000", "175755.271000", "175755.274000", "175755.277000", "175755.281000", "175755.284000", "175755.287000", "175755.291000", "175755.294000", "175815.199000", "175815.203000", "175815.206000", "175815.210000", "175815.213000", "175815.216000", "175815.219000", "175815.223000", "175815.226000", "175815.229000", "175815.232000", "175815.236000", "175815.239000", "175825.351000", "175825.355000", "175825.358000", "175825.362000", "175825.365000", "175825.368000", "175825.371000"],
