{
  "AcquisitionMatrixPE": 104,
  "AcquisitionNumber": 1,
  "AcquisitionTime": "17:34:39.332500",
  "BandwidthPerPixelPhaseEncode": 17.17,
  "BaseResolution": 104,
  "BodyPartExamined": "BRAIN",
  "CoilCombinationMethod": "Sum of Squares",
  "ConsistencyInfo": "N4_VE11C_LATEST_20160120",
  "ConversionSoftware": "dcm2niix",
  "ConversionSoftwareVersion": "v1.0.20211006",
  "DerivedVendorReportedEchoSpacing": 0.000560011,
  "DeviceSerialNumber": "167006",
  "DwellTime": 2.1e-06,
  "EchoTime": 0.037,
  "EchoTrainLength": 104,
  "EffectiveEchoSpacing": 0.000560011,
  "FlipAngle": 52,
  "HeudiconvVersion": "0.11.3.post9+gc939bf8",
  "ImageComments": "Unaliased MB4/PE3/LB",
  "ImageOrientationPatientDICOM": [0.995216, 0.0939963, 0.0266573, -0.0798983, 0.940008, -0.331663],
  "ImageOrientationText": "Tra>Cor(-19.2)>Sag(3.2)",
  "ImageType": [
    "ORIGINAL",
    "PRIMARY",
    "M",
    "MB",
    "ND",
    "MOSAIC"
],
  "ImagingFrequency": 123.259,
  "InPlanePhaseEncodingDirectionDICOM": "COL",
  "InstitutionAddress": "Chemin Queen-Mary 4565,Montreal,District,CA,H3W 1W5",
  "InstitutionName": "IUGM",
  "InstitutionalDepartmentName": "Department",
  "MRAcquisitionType": "2D",
  "MagneticFieldStrength": 3,
  "Manufacturer": "Siemens",
  "ManufacturersModelName": "Prisma_fit",
  "MatrixCoilMode": "SENSE",
  "Modality": "MR",
  "MultibandAccelerationFactor": 4,
  "PartialFourier": 1,
  "PatientPosition": "HFS",
  "PercentPhaseFOV": 100,
  "PercentSampling": 100,
  "PhaseEncodingDirection": "j",
  "PhaseEncodingSteps": 104,
  "PhaseResolution": 1,
  "PixelBandwidth": 2290,
  "ProcedureStepDescription": "games^mariostars",
  "ProtocolName": "func_task-mariostars_run-02",
  "PulseSequenceDetails": "%CustomerSeq%\\cmrr_mbep2d_bold",
  "ReceiveCoilActiveElements": "HC1-7;NC1,2",
  "ReceiveCoilName": "HeadNeck_64",
  "ReconMatrixPE": 104,
  "RepetitionTime": 1.49,
  "SAR": 0.051815,
  "ScanOptions": "FS",
  "ScanningSequence": "EP",
  "SequenceName": "epfid2d1_104",
  "SequenceVariant": "SK\\SS",
  "SeriesDescription": "func_task-mariostars_run-02",
  "SeriesNumber": 13,
  "ShimSetting": [641, -7185, -8816, 659, 142, 16, -24, 4],
  "SliceThickness": 2,
  "SliceTiming": [0, 0.7825, 0.0975, 0.88, 0.195, 0.9775, 0.2925, 1.0775, 0.39, 1.175, 0.49, 1.2725, 0.5875, 1.37, 0.685, 0, 0.7825, 0.0975, 0.88, 0.195, 0.9775, 0.2925, 1.0775, 0.39, 1.175, 0.49, 1.2725, 0.5875, 1.37, 0.685, 0, 0.7825, 0.0975, 0.88, 0.195, 0.9775, 0.2925, 1.0775, 0.39, 1.175, 0.49, 1.2725, 0.5875, 1.37, 0.685, 0, 0.7825, 0.0975, 0.88, 0.195, 0.9775, 0.2925, 1.0775, 0.39, 1.175, 0.49, 1.2725, 0.5875, 1.37, 0.685],
  "SoftwareVersions": "syngo MR E11",
  "SpacingBetweenSlices": 2,
  "StationName": "MRC35049",
  "TaskName": "mariostars",
  "TotalReadoutTime": 0.0576811,
  "TxRefAmp": 275.299,
  "WipMemBlock": "3ac725a9-9566-41a8-a92b-a9fbb825c39a||Sequence: R016 ve11c/master r/e634e98; Dec 19 2017 11:00:25 by eja",
  "dcmmeta_affine": [
    [-1.9904311895370483, -0.15979669988155365, 0.11246634274721146, 110.62923431396484],
    [-0.1879926174879074, 1.880016803741455, -0.655893087387085, -51.44361877441406],
    [0.05331452563405037, 0.6633264422416687, 1.8860423564910889, -61.21650695800781],
    [0.0, 0.0, 0.0, 1.0]
],
  "dcmmeta_reorient_transform": [
    [0.0, -1.0, 0.0, 103.0],
    [1.0, 0.0, 0.0, 0.0],
    [0.0, 0.0, 1.0, 0.0],
    [0.0, 0.0, 0.0, 1.0]
],
  "dcmmeta_shape": [104, 104, 60, 429],
  "dcmmeta_slice_dim": 2,
  "dcmmeta_version": 0.6,
  "global": {
    "const": {
      "AcquisitionMatrix": [104, 0, 0, 104],
      "AngioFlag": "N",
      "BitsAllocated": 16,
      "BitsStored": 16,
      "BodyPartExamined": "BRAIN",
      "Columns": 832,
      "EchoNumbers": 1,
      "EchoTime": 37.0,
      "EchoTrainLength": 104,
      "FlipAngle": 52.0,
      "HighBit": 15,
      "ImageOrientationPatient": [0.99521559687149, 0.09399630876335, 0.02665726322391, -0.0798983502289, 0.94000838265712, -0.3316632240166],
      "ImagePositionPatient": [-760.52113004524, -894.95352435558, 229.15045551901],
      "ImageType": [
        "ORIGINAL",
        "PRIMARY",
        "M",
        "MB",
        "ND",
        "MOSAIC"
],
      "ImagedNucleus": "1H",
      "ImagingFrequency": 123.258842,
      "InPlanePhaseEncodingDirection": "COL",
      "MRAcquisitionType": "2D",
      "MagneticFieldStrength": 3.0,
      "Manufacturer": "SIEMENS",
      "ManufacturerModelName": "Prisma_fit",
      "Modality": "MR",
      "NumberOfAverages": 1.0,
      "NumberOfPhaseEncodingSteps": 104,
      "PercentPhaseFieldOfView": 100.0,
      "PercentSampling": 100.0,
      "PerformedProcedureStepStartTime": "170113.910000",
      "PhotometricInterpretation": "MONOCHROME2",
      "PixelBandwidth": 2290.0,
      "PixelRepresentation": 0,
      "PixelSpacing": [2.0, 2.0],
      "ProtocolName": "func_task-mariostars_run-02",
      "RepetitionTime": 1490.0,
      "Rows": 832,
      "SAR": 0.05181498587509,
      "SamplesPerPixel": 1,
      "ScanOptions": "FS",
      "ScanningSequence": "EP",
      "SequenceName": "epfid2d1_104",
      "SequenceVariant": [
        "SK",
        "SS"
],
      "SeriesDescription": "func_task-mariostars_run-02",
      "SeriesNumber": 13,
      "SeriesTime": "173607.714000",
      "SliceLocation": -34.636672970634,
      "SliceThickness": 2.0,
      "SmallestImagePixelValue": 0,
      "SoftwareVersions": "syngo MR E11",
      "SpacingBetweenSlices": 2.0000000475625,
      "SpecificCharacterSet": "ISO_IR 100",
      "StudyID": "1",
      "StudyTime": "170113.838000",
      "TransmitCoilName": "Body",
      "VariableFlipAngleFlag": "N",
      "WindowCenterWidthExplanation": "Algo1",
      "dBdt": 0.0},
    "slices": {}
  },
  "time": {
    "samples": {
      "AcquisitionNumber": [1, 2, 3, 4, 5, 6, 7, 8, 9, 10, 11, 12, 13, 14, 15, 16, 17, 18, 19, 20, 21, 22, 23, 24, 25, 26, 27, 28, 29, 30, 31, 32, 33, 34, 35, 36, 37, 38, 39, 40, 41, 42, 43, 44, 45, 46, 47, 48, 49, 50, 51, 52, 53, 54, 55, 56, 57, 58, 59, 60, 61, 62, 63, 64, 65, 66, 67, 68, 69, 70, 71, 72, 73, 74, 75, 76, 77, 78, 79, 80, 81, 82, 83, 84, 85, 86, 87, 88, 89, 90, 91, 92, 93, 94, 95, 96, 97, 98, 99, 100, 101, 102, 103, 104, 105, 106, 107, 108, 109, 110, 111, 112, 113, 114, 115, 116, 117, 118, 119, 120, 121, 122, 123, 124, 125, 126, 127, 128, 129, 130, 131, 132, 133, 134, 135, 136, 137, 138, 139, 140, 141, 142, 143, 144, 145, 146, 147, 148, 149, 150, 151, 152, 153, 154, 155, 156, 157, 158, 159, 160, 161, 162, 163, 164, 165, 166, 167, 168, 169, 170, 171, 172, 173, 174, 175, 176, 177, 178, 179, 180, 181, 182, 183, 184, 185, 186, 187, 188, 189, 190, 191, 192, 193, 194, 195, 196, 197, 198, 199, 200, 201, 202, 203, 204, 205, 206, 207, 208, 209, 210, 211, 212, 213, 214, 215, 216, 217, 218, 219, 220, 221, 222, 223, 224, 225, 226, 227, 228, 229, 230, 231, 232, 233, 234, 235, 236, 237, 238, 239, 240, 241, 242, 243, 244, 245, 246, 247, 248, 249, 250, 251, 252, 253, 254, 255, 256, 257, 258, 259, 260, 261, 262, 263, 264, 265, 266, 267, 268, 269, 270, 271, 272, 273, 274, 275, 276, 277, 278, 279, 280, 281, 282, 283, 284, 285, 286, 287, 288, 289, 290, 291, 292, 293, 294, 295, 296, 297, 298, 299, 300, 301, 302, 303, 304, 305, 306, 307, 308, 309, 310, 311, 312, 313, 314, 315, 316, 317, 318, 319, 320, 321, 322, 323, 324, 325, 326, 327, 328, 329, 330, 331, 332, 333, 334, 335, 336, 337, 338, 339, 340, 341, 342, 343, 344, 345, 346, 347, 348, 349, 350, 351, 352, 353, 354, 355, 356, 357, 358, 359, 360, 361, 362, 363, 364, 365, 366, 367, 368, 369, 370, 371, 372, 373, 374, 375, 376, 377, 378, 379, 380, 381, 382, 383, 384, 385, 386, 387, 388, 389, 390, 391, 392, 393, 394, 395, 396, 397, 398, 399, 400, 401, 402, 403, 404, 405, 406, 407, 408, 409, 410, 411, 412, 413, 414, 415, 416, 417, 418, 419, 420, 421, 422, 423, 424, 425, 426, 427, 428, 429],
      "AcquisitionTime": ["173439.332500", "173440.822500", "173442.312500", "173443.802500", "173445.292500", "173446.782500", "173448.272500", "173449.762500", "173451.252500", "173452.742500", "173454.232500", "173455.722500", "173457.212500", "173458.702500", "173500.192500", "173501.682500", "173503.172500", "173504.662500", "173506.152500", "173507.642500", "173509.132500", "173510.622500", "173512.112500", "173513.602500", "173515.092500", "173516.582500", "173518.072500", "173519.562500", "173521.052500", "173522.542500", "173524.032500", "173525.522500", "173527.012500", "173528.502500", "173529.992500", "173531.482500", "173532.972500", "173534.462500", "173535.952500", "173537.442500", "173538.932500", "173540.422500", "173541.912500", "173543.402500", "173544.892500", "173546.382500", "173547.872500", "173549.362500", "173550.852500", "173552.342500", "173553.832500", "173555.322500", "173556.812500", "173558.302500", "173559.792500", "173601.282500", "173602.772500", "173604.262500", "173605.752500", "173607.242500", "173608.732500", "173610.222500", "173611.712500", "173613.202500", "173614.692500", "173616.182500", "173617.672500", "173619.162500", "173620.652500", "173622.142500", "173623.632500", "173625.122500", "173626.612500", "173628.102500", "173629.592500", "173631.082500", "173632.572500", "173634.062500", "173635.552500", "173637.042500", "173638.532500", "173640.022500", "173641.512500", "173643.002500", "173644.492500", "173645.982500", "173647.472500", "173648.962500", "173650.452500", "173651.942500", "173653.432500", "173654.922500", "173656.412500", "173657.902500", "173659.392500", "173700.882500", "173702.372500", "173703.862500", "173705.352500", "173706.842500", "173708.332500", "173709.822500", "173711.312500", "173712.802500", "173714.292500", "173715.782500", "173717.272500", "173718.762500", "173720.252500", "173721.742500", "173723.232500", "173724.722500", "173726.212500", "173727.702500", "173729.192500", "173730.682500", "173732.172500", "173733.662500", "173735.152500", "173736.642500", "173738.132500", "173739.622500", "173741.112500", "173742.602500", "173744.092500", "173745.582500", "173747.072500", "173748.562500", "173750.052500", "173751.542500", "173753.032500", "173754.522500", "173756.012500", "173757.502500", "173758.992500", "173800.482500", "173801.972500", "173803.462500", "173804.952500", "173806.442500", "173807.932500", "173809.422500", "173810.912500", "173812.402500", "173813.892500", "173815.382500", "173816.872500", "173818.362500", "173819.852500", "173821.342500", "173822.832500", "173824.322500", "173825.812500", "173827.302500", "173828.792500", "173830.282500", "173831.772500", "173833.262500", "173834.752500", "173836.242500", "173837.732500", "173839.222500", "173840.712500", "173842.202500", "173843.692500", "173845.182500", "173846.672500", "173848.162500", "173849.652500", "173851.142500", "173852.632500", "173854.122500", "173855.612500", "173857.102500", "173858.592500", "173900.082500", "173901.572500", "173903.062500", "173904.552500", "173906.042500", "173907.532500", "173909.022500", "173910.512500", "173912.002500", "173913.492500", "173914.982500", "173916.472500", "173917.962500", "173919.452500", "173920.942500", "173922.432500", "173923.922500", "173925.412500", "173926.902500", "173928.392500", "173929.882500", "173931.372500", "173932.862500", "173934.352500", "173935.842500", "173937.332500", "173938.822500", "173940.312500", "173941.802500", "173943.292500", "173944.782500", "173946.272500", "173947.762500", "173949.252500", "173950.742500", "173952.232500", "173953.722500", "173955.212500", "173956.702500", "173958.192500", "173959.682500", "174001.172500", "174002.662500", "174004.152500", "174005.642500", "174007.132500", "174008.622500", "174010.112500", "174011.602500", "174013.092500", "174014.582500", "174016.072500", "174017.562500", "174019.052500", "174020.542500", "174022.032500", "174023.522500", "174025.012500", "174026.502500", "174027.992500", "174029.482500", "174030.972500", "174032.462500", "174033.952500", "174035.442500", "174036.932500", "174038.422500", "174039.912500", "174041.402500", "174042.892500", "174044.382500", "174045.872500", "174047.362500", "174048.852500", "174050.342500", "174051.832500", "174053.322500", "174054.812500", "174056.302500", "174057.792500", "174059.282500", "174100.772500", "174102.262500", "174103.752500", "174105.242500", "174106.732500", "174108.222500", "174109.712500", "174111.202500", "174112.692500", "174114.182500", "174115.672500", "174117.162500", "174118.652500", "174120.142500", "174121.632500", "174123.122500", "174124.612500", "174126.102500", "174127.592500", "174129.082500", "174130.572500", "174132.062500", "174133.552500", "174135.042500", "174136.532500", "174138.022500", "174139.512500", "174141.002500", "174142.492500", "174143.982500", "174145.472500", "174146.962500", "174148.452500", "174149.942500", "174151.432500", "174152.922500", "174154.412500", "174155.902500", "174157.392500", "174158.882500", "174200.372500", "174201.862500", "174203.352500", "174204.842500", "174206.332500", "174207.822500", "174209.312500", "174210.802500", "174212.292500", "174213.782500", "174215.272500", "174216.762500", "174218.252500", "174219.742500", "174221.232500", "174222.722500", "174224.212500", "174225.702500", "174227.192500", "174228.682500", "174230.172500", "174231.662500", "174233.152500", "174234.642500", "174236.132500", "174237.622500", "174239.112500", "174240.602500", "174242.092500", "174243.582500", "174245.072500", "174246.562500", "174248.052500", "174249.542500", "174251.032500", "174252.522500", "174254.012500", "174255.502500", "174256.992500", "174258.482500", "174259.972500", "174301.462500", "174302.952500", "174304.442500", "174305.932500", "174307.422500", "174308.912500", "174310.402500", "174311.892500", "174313.382500", "174314.872500", "174316.362500", "174317.852500", "174319.342500", "174320.832500", "174322.322500", "174323.812500", "174325.302500", "174326.792500", "174328.282500", "174329.772500", "174331.262500", "174332.752500", "174334.242500", "174335.732500", "174337.222500", "174338.712500", "174340.202500", "174341.692500", "174343.182500", "174344.672500", "174346.162500", "174347.652500", "174349.142500", "174350.632500", "174352.122500", "174353.612500", "174355.102500", "174356.592500", "174358.082500", "174359.572500", "174401.062500", "174402.552500", "174404.042500", "174405.532500", "174407.022500", "174408.512500", "174410.002500", "174411.492500", "174412.982500", "174414.472500", "174415.962500", "174417.452500", "174418.942500", "174420.432500", "174421.922500", "174423.412500", "174424.902500", "174426.392500", "174427.882500", "174429.372500", "174430.862500", "174432.352500", "174433.842500", "174435.332500", "174436.822500", "174438.312500", "174439.802500", "174441.292500", "174442.782500", "174444.272500", "174445.762500", "174447.252500", "174448.742500", "174450.232500", "174451.722500", "174453.212500", "174454.702500", "174456.192500", "174457.682500", "174459.172500", "174500.662500", "174502.152500", "174503.642500", "174505.132500", "174506.622500", "174508.112500", "174509.602500", "174511.092500", "174512.582500", "174514.072500", "174515.562500", "174517.052500"],
      "ContentTime": ["173607.716000", "173607.720000", "173607.723000", "173607.727000", "173607.730000", "173607.733000", "173607.736000", "173607.740000", "173607.743000", "173607.746000", "173607.749000", "173607.753000", "173607.756000", "173607.759000", "173607.763000", "173607.766000", "173607.769000", "173607.792000", "173607.795000", "173607.800000", "173607.803000", "173607.830000", "173607.833000", "173607.837000", "173607.840000", "173607.843000", "173607.846000", "173607.850000", "173607.853000", "173607.856000", "173607.859000", "173607.863000", "173607.866000", "173607.869000", "173627.688000", "173627.692000", "173627.695000", "173627.698000", "173627.701000", "173627.705000", "173627.708000", "173627.711000", "173627.714000", "173627.718000", "173627.721000", "173627.724000", "173627.727000", "173627.731000", "173627.734000", "173627.737000", "173627.741000", "173627.744000", "173627.747000", "173627.750000", "173627.754000", "173647.688000", "173647.692000", "173647.695000", "173647.698000", "173647.701000", "173647.705000", "173647.708000", "173647.711000", "173647.714000", "173647.718000", "173647.721000", "173647.724000", "173647.727000", "173647.731000", "173647.734000", "173647.737000", "173647.740000", "173647.744000", "173647.747000", "173647.750000", "173707.688000", "173707.692000", "173707.695000", "173707.698000", "173707.702000", "173707.705000", "173707.708000", "173707.711000", "173707.715000", "173707.718000", "173707.721000", "173707.724000", "173707.733000", "173707.736000", "173707.740000", "173707.743000", "173707.746000", "173707.749000", "173707.753000", "173707.756000", "173747.689000", "173747.693000", "173747.696000", "173747.699000", "173747.703000", "173747.706000", "173747.709000", "173747.712000", "173747.716000", "173747.719000", "173747.722000", "173747.725000", "173747.729000", "173747.732000", "173747.735000", "173747.738000", "173747.742000", "173747.745000", "173747.748000", "173747.751000", "173747.755000", "173747.758000", "173747.761000", "173747.764000", "173747.768000", "173747.817000", "173747.821000", "173747.824000", "173747.827000", "173747.830000", "173807.688000", "173807.692000", "173807.695000", "173807.698000", "173807.702000", "173807.705000", "173807.708000", "173807.711000", "173807.715000", "173807.718000", "173807.721000", "173807.725000", "173807.728000", "173807.731000", "173847.688000", "173847.692000", "173847.695000", "173847.698000", "173847.702000", "173847.705000", "173847.708000", "173847.712000", "173847.715000", "173847.718000", "173847.721000", "173847.725000", "173847.728000", "173847.731000", "173847.735000", "173847.738000", "173847.741000", "173847.744000", "173847.748000", "173847.751000", "173847.754000", "173847.757000", "173847.761000", "173847.764000", "173847.767000", "173847.771000", "173847.774000", "173927.688000", "173927.692000", "173927.695000", "173927.698000", "173927.702000", "173927.705000", "173927.708000", "173927.712000", "173927.715000", "173927.718000", "173927.721000", "173927.725000", "173927.728000", "173927.731000", "173927.735000", "173927.738000", "173927.741000", "173927.744000", "173927.748000", "173927.751000", "173927.755000", "173927.758000", "173927.776000", "173927.779000", "173927.782000", "173927.786000", "174007.689000", "174007.693000", "174007.696000", "174007.699000", "174007.703000", "174007.706000", "174007.709000", "174007.712000", "174007.716000", "174007.719000", "174007.722000", "174007.726000", "174007.729000", "174007.732000", "174007.735000", "174007.739000", "174007.742000", "174007.745000", "174007.748000", "174007.752000", "174007.755000", "174007.758000", "174007.761000", "174007.765000", "174007.768000", "174007.772000", "174007.775000", "174047.688000", "174047.692000", "174047.695000", "174047.699000", "174047.702000", "174047.705000", "174047.708000", "174047.712000", "174047.715000", "174047.718000", "174047.722000", "174047.725000", "174047.728000", "174047.731000", "174047.735000", "174047.738000", "174047.741000", "174047.744000", "174047.748000", "174047.751000", "174047.754000", "174047.757000", "174047.761000", "174047.764000", "174047.767000", "174047.771000", "174047.774000", "174127.688000", "174127.692000", "174127.695000", "174127.698000", "174127.702000", "174127.705000", "174127.708000", "174127.712000", "174127.715000", "174127.718000", "174127.721000", "174127.725000", "174127.728000", "174127.731000", "174127.734000", "174127.738000", "174127.741000", "174127.744000", "174127.747000", "174127.751000", "174127.754000", "174127.757000", "174127.761000", "174127.764000", "174127.767000", "174127.771000", "174127.774000", "174207.688000", "174207.692000", "174207.695000", "174207.698000", "174207.702000", "174207.705000", "174207.708000", "174207.727000", "174207.730000", "174207.734000", "174207.737000", "174207.740000", "174207.743000", "174207.747000", "174207.750000", "174207.753000", "174207.758000", "174207.761000", "174207.764000", "174207.768000", "174207.817000", "174207.820000", "174207.823000", "174207.826000", "174207.830000", "174207.833000", "174207.836000", "174247.688000", "174247.692000", "174247.695000", "174247.699000", "174247.702000", "174247.705000", "174247.709000", "174247.712000", "174247.715000", "174247.718000", "174247.722000", "174247.725000", "174247.728000", "174247.731000", "174247.735000", "174247.738000", "174247.741000", "174247.745000", "174247.748000", "174247.751000", "174247.755000", "174247.758000", "174247.761000", "174247.764000", "174247.768000", "174247.771000", "174247.774000", "174327.688000", "174327.692000", "174327.695000", "174327.698000", "174327.702000", "174327.705000", "174327.708000", "174327.711000", "174327.715000", "174327.718000", "174327.721000", "174327.724000", "174327.728000", "174327.731000", "174327.734000", "174327.738000", "174327.741000", "174327.744000", "174327.747000", "174327.751000", "174327.754000", "174327.757000", "174327.760000", "174327.764000", "174327.767000", "174327.770000", "174327.774000", "174407.688000", "174407.692000", "174407.695000", "174407.698000", "174407.702000", "174407.705000", "174407.708000", "174407.711000", "174407.715000", "174407.718000", "174407.721000", "174407.725000", "174407.728000", "174407.752000", "174407.755000", "174407.758000", "174407.762000", "174407.765000", "174407.815000", "174407.819000", "174407.822000", "174407.825000", "174407.829000", "174407.832000", "174407.835000", "174407.839000", "174447.689000", "174447.693000", "174447.696000", "174447.699000", "174447.703000", "174447.706000", "174447.709000", "174447.712000", "174447.716000", "174447.719000", "174447.722000", "174447.726000", "174447.730000", "174447.733000", "174447.737000", "174447.740000", "174447.743000", "174447.746000", "174447.750000", "174447.753000", "174447.756000", "174447.759000", "174447.763000", "174447.766000", "174447.769000", "174447.773000", "174447.776000", "174520.203000", "174520.207000", "174520.211000", "174520.214000", "174520.217000", "174520.221000", "174520.224000", "174520.227000", "174520.230000", "174520.234000", "174520.237000", "174520.240000", "174520.243000", "174520.247000", "174520.250000", "174520.253000", "174520.256000", "174520.260000", "174520.263000", "174520.266000", "174520.270000", "174520.273000"],
      "InstanceCreationTime": ["173607.716000", "173607.720000", "173607.723000", "173607.727000", "173607.730000", "173607.733000", "173607.736000", "173607.740000", "173607.743000", "173607.746000", "173607.749000", "173607.753000", "173607.756000", "173607.759000", "173607.763000", "173607.766000", "173607.769000", "173607.792000", "173607.795000", "173607.800000", "173607.803000", "173607.830000", "173607.833000", "173607.837000", "173607.840000", "173607.843000", "173607.846000", "173607.850000", "173607.853000", "173607.856000", "173607.859000", "173607.863000", "173607.866000", "173607.869000", "173627.688000", "173627.692000", "173627.695000", "173627.698000", "173627.701000", "173627.705000", "173627.708000", "173627.711000", "173627.714000", "173627.718000", "173627.721000", "173627.724000", "173627.727000", "173627.731000", "173627.734000", "173627.737000", "173627.741000", "173627.744000", "173627.747000", "173627.750000", "173627.754000", "173647.688000", "173647.692000", "173647.695000", "173647.698000", "173647.701000", "173647.705000", "173647.708000", "173647.711000", "173647.714000", "173647.718000", "173647.721000", "173647.724000", "173647.727000", "173647.731000", "173647.734000", "173647.737000", "173647.740000", "173647.744000", "173647.747000", "173647.750000", "173707.688000", "173707.692000", "173707.695000", "173707.698000", "173707.702000", "173707.705000", "173707.708000", "173707.711000", "173707.715000", "173707.718000", "173707.721000", "173707.724000", "173707.733000", "173707.736000", "173707.740000", "173707.743000", "173707.746000", "173707.749000", "173707.753000", "173707.756000", "173747.689000", "173747.693000", "173747.696000", "173747.699000", "173747.703000", "173747.706000", "173747.709000", "173747.712000", "173747.716000", "173747.719000", "173747.722000", "173747.725000", "173747.729000", "173747.732000", "173747.735000", "173747.738000", "173747.742000", "173747.745000", "173747.748000", "173747.751000", "173747.755000", "173747.758000", "173747.761000", "173747.764000", "173747.768000", "173747.817000", "173747.821000", "173747.824000", "173747.827000", "173747.830000", "173807.688000", "173807.692000", "173807.695000", "173807.698000", "173807.702000", "173807.705000", "173807.708000", "173807.711000", "173807.715000", "173807.718000", "173807.721000", "173807.725000", "173807.728000", "173807.731000", "173847.688000", "173847.692000", "173847.695000", "173847.698000", "173847.702000", "173847.705000", "173847.708000", "173847.712000", "173847.715000", "173847.718000", "173847.721000", "173847.725000", "173847.728000", "173847.731000", "173847.735000", "173847.738000", "173847.741000", "173847.744000", "173847.748000", "173847.751000", "173847.754000", "173847.757000", "173847.761000", "173847.764000", "173847.767000", "173847.771000", "173847.774000", "173927.688000", "173927.692000", "173927.695000", "173927.698000", "173927.702000", "173927.705000", "173927.708000", "173927.712000", "173927.715000", "173927.718000", "173927.721000", "173927.725000", "173927.728000", "173927.731000", "173927.735000", "173927.738000", "173927.741000", "173927.744000", "173927.748000", "173927.751000", "173927.755000", "173927.758000", "173927.776000", "173927.779000", "173927.782000", "173927.786000", "174007.689000", "174007.693000", "174007.696000", "174007.699000", "174007.703000", "174007.706000", "174007.709000", "174007.712000", "174007.716000", "174007.719000", "174007.722000", "174007.726000", "174007.729000", "174007.732000", "174007.735000", "174007.739000", "174007.742000", "174007.745000", "174007.748000", "174007.752000", "174007.755000", "174007.758000", "174007.761000", "174007.765000", "174007.768000", "174007.772000", "174007.775000", "174047.688000", "174047.692000", "174047.695000", "174047.699000", "174047.702000", "174047.705000", "174047.708000", "174047.712000", "174047.715000", "174047.718000", "174047.722000", "174047.725000", "174047.728000", "174047.731000", "174047.735000", "174047.738000", "174047.741000", "174047.744000", "174047.748000", "174047.751000", "174047.754000", "174047.757000", "174047.761000", "174047.764000", "174047.767000", "174047.771000", "174047.774000", "174127.688000", "174127.692000", "174127.695000", "174127.698000", "174127.702000", "174127.705000", "174127.708000", "174127.712000", "174127.715000", "174127.718000", "174127.721000", "174127.725000", "174127.728000", "174127.731000", "174127.734000", "174127.738000", "174127.741000", "174127.744000", "174127.747000", "174127.751000", "174127.754000", "174127.757000", "174127.761000", "174127.764000", "174127.767000", "174127.771000", "174127.774000", "174207.688000", "174207.692000", "174207.695000", "174207.698000", "174207.702000", "174207.705000", "174207.708000", "174207.727000", "174207.730000", "174207.734000", "174207.737000", "174207.740000", "174207.743000", "174207.747000", "174207.750000", "174207.753000", "174207.758000", "174207.761000", "174207.764000", "174207.768000", "174207.817000", "174207.820000", "174207.823000", "174207.826000", "174207.830000", "174207.833000", "174207.836000", "174247.688000", "174247.692000", "174247.695000", "174247.699000", "174247.702000", "174247.705000", "174247.709000", "174247.712000", "174247.715000", "174247.718000", "174247.722000", "174247.725000", "174247.728000", "174247.731000", "174247.735000", "174247.738000", "174247.741000", "174247.745000", "174247.748000", "174247.751000", "174247.755000", "174247.758000", "174247.761000", "174247.764000", "174247.768000", "174247.771000", "174247.774000", "174327.688000", "174327.692000", "174327.695000", "174327.698000", "174327.702000", "174327.705000", "174327.708000", "174327.711000", "174327.715000", "174327.718000", "174327.721000", "174327.724000", "174327.728000", "174327.731000", "174327.734000", "174327.738000", "174327.741000", "174327.744000", "174327.747000", "174327.751000", "174327.754000", "174327.757000", "174327.760000", "174327.764000", "174327.767000", "174327.770000", "174327.774000", "174407.688000", "174407.692000", "174407.695000", "174407.698000", "174407.702000", "174407.705000", "174407.708000", "174407.711000", "174407.715000", "174407.718000", "174407.721000", "174407.725000", "174407.728000", "174407.752000", "174407.755000", "174407.758000", "174407.762000", "174407.765000", "174407.815000", "174407.819000", "174407.822000", "174407.825000", "174407.829000", "174407.832000", "174407.835000", "174407.839000", "174447.689000", "174447.693000", "174447.696000", "174447.699000", "174447.703000", "174447.706000", "174447.709000", "174447.712000", "174447.716000", "174447.719000", "174447.722000", "174447.726000", "174447.730000", "174447.733000", "174447.737000", "174447.740000", "174447.743000", "174447.746000", "174447.750000", "174447.753000", "174447.756000", "174447.759000", "174447.763000", "174447.766000", "174447.769000", "174447.773000", "174447.776000", "174520.203000", "174520.207000", "174520.211000", "174520.214000", "174520.217000", "174520.221000", "174520.224000", "174520.227000", "174520.230000", "174520.234000", "174520.237000", "174520.240000", "174520.243000", "174520.247000", "174520.250000", "174520.253000", "174520.256000", "174520.260000", "174520.263000", "174520.266000", "174520.270000", "174520.273000"],
