{
  "AcquisitionMatrixPE": 104,
  "AcquisitionNumber": 1,
  "AcquisitionTime": "17:28:58.387500",
  "BandwidthPerPixelPhaseEncode": 17.17,
  "BaseResolution": 104,
  "BodyPartExamined": "BRAIN",
  "CoilCombinationMethod": "Sum of Squares",
  "ConsistencyInfo": "N4_VE11C_LATEST_20160120",
  "ConversionSoftware": "dcm2niix",
  "ConversionSoftwareVersion": "v1.0.20211006",
  "DerivedVendorReportedEchoSpacing": 0.000560011,
  "DeviceSerialNumber": "167006",
  "DwellTime": 2.1e-06,
  "EchoTime": 0.037,
  "EchoTrainLength": 104,
  "EffectiveEchoSpacing": 0.000560011,
  "FlipAngle": 52,
  "HeudiconvVersion": "0.11.3.post9+gc939bf8",
  "ImageComments": "Unaliased MB4/PE3/LB",
  "ImageOrientationPatientDICOM": [0.997405, 0.0678443, 0.0240735, -0.0538429, 0.925016, -0.376093],
  "ImageOrientationText": "Tra>Cor(-22.0)>Sag(2.7)",
  "ImageType": [
    "ORIGINAL",
    "PRIMARY",
    "M",
    "MB",
    "ND",
    "MOSAIC"
],
  "ImagingFrequency": 123.259,
  "InPlanePhaseEncodingDirectionDICOM": "COL",
  "InstitutionAddress": "Chemin Queen-Mary 4565,Montreal,District,CA,H3W 1W5",
  "InstitutionName": "IUGM",
  "InstitutionalDepartmentName": "Department",
  "MRAcquisitionType": "2D",
  "MagneticFieldStrength": 3,
  "Manufacturer": "Siemens",
  "ManufacturersModelName": "Prisma_fit",
  "MatrixCoilMode": "SENSE",
  "Modality": "MR",
  "MultibandAccelerationFactor": 4,
  "PartialFourier": 1,
  "PatientPosition": "HFS",
  "PercentPhaseFOV": 100,
  "PercentSampling": 100,
  "PhaseEncodingDirection": "j",
  "PhaseEncodingSteps": 104,
  "PhaseResolution": 1,
  "PixelBandwidth": 2290,
  "ProcedureStepDescription": "games^mariostars",
  "ProtocolName": "func_task-mariostars_run-01",
  "PulseSequenceDetails": "%CustomerSeq%\\cmrr_mbep2d_bold",
  "ReceiveCoilActiveElements": "HC1-7;NC1,2",
  "ReceiveCoilName": "HeadNeck_64",
  "ReconMatrixPE": 104,
  "RepetitionTime": 1.49,
  "SAR": 0.0639459,
  "ScanOptions": "FS",
  "ScanningSequence": "EP",
  "SequenceName": "epfid2d1_104",
  "SequenceVariant": "SK\\SS",
  "SeriesDescription": "func_task-mariostars_run-01",
  "SeriesNumber": 10,
  "ShimSetting": [624, -7200, -8832, 654, 86, -11, -59, 0],
  "SliceThickness": 2,
  "SliceTiming": [0, 0.7825, 0.0975, 0.8825, 0.195, 0.98, 0.2925, 1.0775, 0.3925, 1.175, 0.49, 1.2725, 0.5875, 1.3725, 0.685, 0, 0.7825, 0.0975, 0.8825, 0.195, 0.98, 0.2925, 1.0775, 0.3925, 1.175, 0.49, 1.2725, 0.5875, 1.3725, 0.685, 0, 0.7825, 0.0975, 0.8825, 0.195, 0.98, 0.2925, 1.0775, 0.3925, 1.175, 0.49, 1.2725, 0.5875, 1.3725, 0.685, 0, 0.7825, 0.0975, 0.8825, 0.195, 0.98, 0.2925, 1.0775, 0.3925, 1.175, 0.49, 1.2725, 0.5875, 1.3725, 0.685],
  "SoftwareVersions": "syngo MR E11",
  "SpacingBetweenSlices": 2,
  "StationName": "MRC35049",
  "TaskName": "mariostars",
  "TotalReadoutTime": 0.0576811,
  "TxRefAmp": 293.478,
  "WipMemBlock": "721cd328-ba6c-4369-8d18-08078f28b6de||Sequence: R016 ve11c/master r/e634e98; Dec 19 2017 11:00:25 by eja",
  "dcmmeta_affine": [
    [-1.994810938835144, -0.10768584907054901, 0.09556826949119568, 109.44353485107422],
    [-0.1356886327266693, 1.8500325679779053, -0.7476417422294617, -52.06069564819336],
    [0.048146989196538925, 0.7521857023239136, 1.8525384664535522, -70.33871459960938],
    [0.0, 0.0, 0.0, 1.0]
],
  "dcmmeta_reorient_transform": [
    [0.0, -1.0, 0.0, 103.0],
    [1.0, 0.0, 0.0, 0.0],
    [0.0, 0.0, 1.0, 0.0],
    [0.0, 0.0, 0.0, 1.0]
],
  "dcmmeta_shape": [104, 104, 60, 464],
  "dcmmeta_slice_dim": 2,
  "dcmmeta_version": 0.6,
  "global": {
    "const": {
      "AcquisitionMatrix": [104, 0, 0, 104],
      "AngioFlag": "N",
      "BitsAllocated": 16,
      "BitsStored": 16,
      "BodyPartExamined": "BRAIN",
      "Columns": 832,
      "EchoNumbers": 1,
      "EchoTime": 37.0,
      "EchoTrainLength": 104,
      "FlipAngle": 52.0,
      "HighBit": 15,
      "ImageOrientationPatient": [0.99740544205884, 0.06784431474789, 0.02407349388449, -0.0538429254451, 0.92501627834637, -0.3760928398331],
      "ImagePositionPatient": [-785.26540162617, -861.29517046737, 263.40649353434],
      "ImageType": [
        "ORIGINAL",
        "PRIMARY",
        "M",
        "MB",
        "ND",
        "MOSAIC"
],
      "ImagedNucleus": "1H",
      "ImagingFrequency": 123.258834,
      "InPlanePhaseEncodingDirection": "COL",
      "MRAcquisitionType": "2D",
      "MagneticFieldStrength": 3.0,
      "Manufacturer": "SIEMENS",
      "ManufacturerModelName": "Prisma_fit",
      "Modality": "MR",
      "NumberOfAverages": 1.0,
      "NumberOfPhaseEncodingSteps": 104,
      "PercentPhaseFieldOfView": 100.0,
      "PercentSampling": 100.0,
      "PerformedProcedureStepStartTime": "170107.035000",
      "PhotometricInterpretation": "MONOCHROME2",
      "PixelBandwidth": 2290.0,
      "PixelRepresentation": 0,
      "PixelSpacing": [2.0, 2.0],
      "ProtocolName": "func_task-mariostars_run-01",
      "RepetitionTime": 1490.0,
      "Rows": 832,
      "SAR": 0.06394593162479,
      "SamplesPerPixel": 1,
      "ScanOptions": "FS",
      "ScanningSequence": "EP",
      "SequenceName": "epfid2d1_104",
      "SequenceVariant": [
        "SK",
        "SS"
],
      "SeriesDescription": "func_task-mariostars_run-01",
      "SeriesNumber": 10,
      "SeriesTime": "172957.890000",
      "SliceLocation": -40.461548003173,
      "SliceThickness": 2.0,
      "SmallestImagePixelValue": 0,
      "SoftwareVersions": "syngo MR E11",
      "SpacingBetweenSlices": 1.9999999947542,
      "SpecificCharacterSet": "ISO_IR 100",
      "StudyID": "1",
      "StudyTime": "170106.970000",
      "TransmitCoilName": "Body",
      "VariableFlipAngleFlag": "N",
      "WindowCenterWidthExplanation": "Algo1",
      "dBdt": 0.0},
    "slices": {}
  },
  "time": {
    "samples": {
      "AcquisitionNumber": [1, 2, 3, 4, 5, 6, 7, 8, 9, 10, 11, 12, 13, 14, 15, 16, 17, 18, 19, 20, 21, 22, 23, 24, 25, 26, 27, 28, 29, 30, 31, 32, 33, 34, 35, 36, 37, 38, 39, 40, 41, 42, 43, 44, 45, 46, 47, 48, 49, 50, 51, 52, 53, 54, 55, 56, 57, 58, 59, 60, 61, 62, 63, 64, 65, 66, 67, 68, 69, 70, 71, 72, 73, 74, 75, 76, 77, 78, 79, 80, 81, 82, 83, 84, 85, 86, 87, 88, 89, 90, 91, 92, 93, 94, 95, 96, 97, 98, 99, 100, 101, 102, 103, 104, 105, 106, 107, 108, 109, 110, 111, 112, 113, 114, 115, 116, 117, 118, 119, 120, 121, 122, 123, 124, 125, 126, 127, 128, 129, 130, 131, 132, 133, 134, 135, 136, 137, 138, 139, 140, 141, 142, 143, 144, 145, 146, 147, 148, 149, 150, 151, 152, 153, 154, 155, 156, 157, 158, 159, 160, 161, 162, 163, 164, 165, 166, 167, 168, 169, 170, 171, 172, 173, 174, 175, 176, 177, 178, 179, 180, 181, 182, 183, 184, 185, 186, 187, 188, 189, 190, 191, 192, 193, 194, 195, 196, 197, 198, 199, 200, 201, 202, 203, 204, 205, 206, 207, 208, 209, 210, 211, 212, 213, 214, 215, 216, 217, 218, 219, 220, 221, 222, 223, 224, 225, 226, 227, 228, 229, 230, 231, 232, 233, 234, 235, 236, 237, 238, 239, 240, 241, 242, 243, 244, 245, 246, 247, 248, 249, 250, 251, 252, 253, 254, 255, 256, 257, 258, 259, 260, 261, 262, 263, 264, 265, 266, 267, 268, 269, 270, 271, 272, 273, 274, 275, 276, 277, 278, 279, 280, 281, 282, 283, 284, 285, 286, 287, 288, 289, 290, 291, 292, 293, 294, 295, 296, 297, 298, 299, 300, 301, 302, 303, 304, 305, 306, 307, 308, 309, 310, 311, 312, 313, 314, 315, 316, 317, 318, 319, 320, 321, 322, 323, 324, 325, 326, 327, 328, 329, 330, 331, 332, 333, 334, 335, 336, 337, 338, 339, 340, 341, 342, 343, 344, 345, 346, 347, 348, 349, 350, 351, 352, 353, 354, 355, 356, 357, 358, 359, 360, 361, 362, 363, 364, 365, 366, 367, 368, 369, 370, 371, 372, 373, 374, 375, 376, 377, 378, 379, 380, 381, 382, 383, 384, 385, 386, 387, 388, 389, 390, 391, 392, 393, 394, 395, 396, 397, 398, 399, 400, 401, 402, 403, 404, 405, 406, 407, 408, 409, 410, 411, 412, 413, 414, 415, 416, 417, 418, 419, 420, 421, 422, 423, 424, 425, 426, 427, 428, 429, 430, 431, 432, 433, 434, 435, 436, 437, 438, 439, 440, 441, 442, 443, 444, 445, 446, 447, 448, 449, 450, 451, 452, 453, 454, 455, 456, 457, 458, 459, 460, 461, 462, 463, 464],
      "AcquisitionTime": ["172858.387500", "172859.877500", "172901.367500", "172902.857500", "172904.347500", "172905.837500", "172907.327500", "172908.817500", "172910.307500", "172911.797500", "172913.287500", "172914.777500", "172916.267500", "172917.757500", "172919.247500", "172920.737500", "172922.227500", "172923.717500", "172925.207500", "172926.697500", "172928.187500", "172929.677500", "172931.167500", "172932.657500", "172934.147500", "172935.637500", "172937.127500", "172938.617500", "172940.107500", "172941.597500", "172943.087500", "172944.577500", "172946.067500", "172947.557500", "172949.047500", "172950.537500", "172952.027500", "172953.517500", "172955.007500", "172956.497500", "172957.987500", "172959.477500", "173000.967500", "173002.457500", "173003.947500", "173005.437500", "173006.927500", "173008.417500", "173009.907500", "173011.397500", "173012.887500", "173014.377500", "173015.867500", "173017.357500", "173018.847500", "173020.337500", "173021.827500", "173023.317500", "173024.807500", "173026.297500", "173027.787500", "173029.277500", "173030.767500", "173032.257500", "173033.747500", "173035.237500", "173036.727500", "173038.217500", "173039.707500", "173041.197500", "173042.687500", "173044.177500", "173045.667500", "173047.157500", "173048.647500", "173050.137500", "173051.627500", "173053.117500", "173054.607500", "173056.097500", "173057.587500", "173059.077500", "173100.567500", "173102.057500", "173103.547500", "173105.037500", "173106.527500", "173108.017500", "173109.507500", "173110.997500", "173112.487500", "173113.977500", "173115.467500", "173116.957500", "173118.447500", "173119.937500", "173121.427500", "173122.917500", "173124.407500", "173125.897500", "173127.387500", "173128.877500", "173130.367500", "173131.857500", "173133.347500", "173134.837500", "173136.327500", "173137.817500", "173139.307500", "173140.797500", "173142.287500", "173143.777500", "173145.267500", "173146.757500", "173148.247500", "173149.737500", "173151.227500", "173152.717500", "173154.207500", "173155.697500", "173157.187500", "173158.677500", "173200.167500", "173201.657500", "173203.147500", "173204.637500", "173206.127500", "173207.617500", "173209.107500", "173210.597500", "173212.087500", "173213.577500", "173215.067500", "173216.557500", "173218.047500", "173219.537500", "173221.027500", "173222.517500", "173224.007500", "173225.497500", "173226.987500", "173228.477500", "173229.967500", "173231.457500", "173232.947500", "173234.437500", "173235.927500", "173237.417500", "173238.907500", "173240.397500", "173241.887500", "173243.377500", "173244.867500", "173246.357500", "173247.847500", "173249.337500", "173250.827500", "173252.317500", "173253.807500", "173255.297500", "173256.787500", "173258.277500", "173259.767500", "173301.257500", "173302.747500", "173304.237500", "173305.727500", "173307.217500", "173308.707500", "173310.197500", "173311.687500", "173313.177500", "173314.667500", "173316.157500", "173317.647500", "173319.137500", "173320.627500", "173322.117500", "173323.607500", "173325.097500", "173326.587500", "173328.077500", "173329.567500", "173331.057500", "173332.547500", "173334.037500", "173335.527500", "173337.017500", "173338.507500", "173339.997500", "173341.487500", "173342.977500", "173344.467500", "173345.957500", "173347.447500", "173348.937500", "173350.427500", "173351.917500", "173353.407500", "173354.897500", "173356.387500", "173357.877500", "173359.367500", "173400.857500", "173402.347500", "173403.837500", "173405.327500", "173406.817500", "173408.307500", "173409.797500", "173411.287500", "173412.777500", "173414.267500", "173415.757500", "173417.247500", "173418.737500", "173420.227500", "173421.717500", "173423.207500", "173424.697500", "173426.187500", "173427.677500", "173429.167500", "173430.657500", "173432.147500", "173433.637500", "173435.127500", "173436.617500", "173438.107500", "173439.597500", "173441.087500", "173442.577500", "173444.067500", "173445.557500", "173447.047500", "173448.537500", "173450.027500", "173451.517500", "173453.007500", "173454.497500", "173455.987500", "173457.477500", "173458.967500", "173500.457500", "173501.947500", "173503.437500", "173504.927500", "173506.417500", "173507.907500", "173509.397500", "173510.887500", "173512.377500", "173513.867500", "173515.357500", "173516.847500", "173518.337500", "173519.827500", "173521.317500", "173522.807500", "173524.297500", "173525.787500", "173527.277500", "173528.767500", "173530.257500", "173531.747500", "173533.237500", "173534.727500", "173536.217500", "173537.707500", "173539.197500", "173540.687500", "173542.177500", "173543.667500", "173545.157500", "173546.647500", "173548.137500", "173549.627500", "173551.117500", "173552.607500", "173554.097500", "173555.587500", "173557.077500", "173558.567500", "173600.057500", "173601.547500", "173603.037500", "173604.527500", "173606.017500", "173607.507500", "173608.997500", "173610.487500", "173611.977500", "173613.467500", "173614.957500", "173616.447500", "173617.937500", "173619.427500", "173620.917500", "173622.407500", "173623.897500", "173625.387500", "173626.877500", "173628.367500", "173629.857500", "173631.347500", "173632.837500", "173634.327500", "173635.817500", "173637.307500", "173638.797500", "173640.287500", "173641.777500", "173643.267500", "173644.757500", "173646.247500", "173647.737500", "173649.227500", "173650.717500", "173652.207500", "173653.697500", "173655.187500", "173656.677500", "173658.167500", "173659.657500", "173701.147500", "173702.637500", "173704.127500", "173705.617500", "173707.107500", "173708.597500", "173710.087500", "173711.577500", "173713.067500", "173714.557500", "173716.047500", "173717.537500", "173719.027500", "173720.517500", "173722.007500", "173723.497500", "173724.987500", "173726.477500", "173727.967500", "173729.457500", "173730.947500", "173732.437500", "173733.927500", "173735.417500", "173736.907500", "173738.397500", "173739.887500", "173741.377500", "173742.867500", "173744.357500", "173745.847500", "173747.337500", "173748.827500", "173750.317500", "173751.807500", "173753.297500", "173754.787500", "173756.277500", "173757.767500", "173759.257500", "173800.747500", "173802.237500", "173803.727500", "173805.217500", "173806.707500", "173808.197500", "173809.687500", "173811.177500", "173812.667500", "173814.157500", "173815.647500", "173817.137500", "173818.627500", "173820.117500", "173821.607500", "173823.097500", "173824.587500", "173826.077500", "173827.567500", "173829.057500", "173830.547500", "173832.037500", "173833.527500", "173835.017500", "173836.507500", "173837.997500", "173839.487500", "173840.977500", "173842.467500", "173843.957500", "173845.447500", "173846.937500", "173848.427500", "173849.917500", "173851.407500", "173852.897500", "173854.387500", "173855.877500", "173857.367500", "173858.857500", "173900.347500", "173901.837500", "173903.327500", "173904.817500", "173906.307500", "173907.797500", "173909.287500", "173910.777500", "173912.267500", "173913.757500", "173915.247500", "173916.737500", "173918.227500", "173919.717500", "173921.207500", "173922.697500", "173924.187500", "173925.677500", "173927.167500", "173928.657500", "173930.147500", "173931.637500", "173933.127500", "173934.617500", "173936.107500", "173937.597500", "173939.087500", "173940.577500", "173942.067500", "173943.557500", "173945.047500", "173946.537500", "173948.027500", "173949.517500", "173951.007500", "173952.497500", "173953.987500", "173955.477500", "173956.967500", "173958.457500", "173959.947500", "174001.437500", "174002.927500", "174004.417500", "174005.907500", "174007.397500", "174008.887500", "174010.377500", "174011.867500", "174013.357500", "174014.847500", "174016.337500", "174017.827500", "174019.317500", "174020.807500", "174022.297500", "174023.787500", "174025.277500", "174026.767500", "174028.257500"],
      "ContentTime": ["172957.893000", "172957.902000", "172957.906000", "172957.909000", "172957.912000", "173017.852000", "173017.856000", "173017.859000", "173017.862000", "173017.866000", "173017.869000", "173017.872000", "173017.876000", "173017.879000", "173017.882000", "173017.886000", "173017.889000", "173017.892000", "173017.896000", "173017.899000", "173017.902000", "173017.906000", "173017.909000", "173017.912000", "173017.915000", "173037.852000", "173037.856000", "173037.859000", "173037.862000", "173037.866000", "173037.869000", "173037.873000", "173037.876000", "173037.879000", "173037.882000", "173037.886000", "173037.889000", "173037.892000", "173037.896000", "173037.899000", "173037.902000", "173037.905000", "173037.909000", "173037.912000", "173037.915000", "173057.853000", "173057.857000", "173057.860000", "173057.863000", "173057.867000", "173057.870000", "173057.873000", "173057.876000", "173057.880000", "173057.883000", "173057.886000", "173057.890000", "173057.893000", "173057.896000", "173057.899000", "173057.903000", "173057.906000", "173057.909000", "173057.913000", "173057.916000", "173057.919000", "173117.852000", "173117.856000", "173117.859000", "173117.863000", "173117.866000", "173117.869000", "173117.873000", "173117.876000", "173117.879000", "173117.883000", "173117.886000", "173117.889000", "173117.893000", "173117.896000", "173117.916000", "173117.919000", "173117.922000", "173117.926000", "173117.929000", "173117.932000", "173137.852000", "173137.856000", "173137.859000", "173137.862000", "173137.866000", "173137.869000", "173137.872000", "173137.876000", "173137.879000", "173137.882000", "173137.886000", "173137.889000", "173137.892000", "173137.895000", "173137.899000", "173137.902000", "173137.906000", "173137.909000", "173137.912000", "173137.915000", "173217.852000", "173217.856000", "173217.859000", "173217.862000", "173217.866000", "173217.869000", "173217.872000", "173217.876000", "173217.879000", "173217.882000", "173217.886000", "173217.889000", "173217.892000", "173217.895000", "173217.899000", "173217.902000", "173217.905000", "173217.908000", "173217.912000", "173217.915000", "173217.918000", "173217.922000", "173217.925000", "173217.929000", "173217.932000", "173217.935000", "173217.938000", "173257.852000", "173257.856000", "173257.859000", "173257.862000", "173257.871000", "173257.874000", "173257.878000", "173257.881000", "173257.884000", "173257.888000", "173257.891000", "173257.894000", "173257.898000", "173257.901000", "173257.904000", "173257.907000", "173257.911000", "173257.914000", "173257.917000", "173257.921000", "173257.924000", "173257.927000", "173257.931000", "173257.934000", "173257.937000", "173257.941000", "173257.944000", "173337.852000", "173337.856000", "173337.859000", "173337.863000", "173337.866000", "173337.869000", "173337.873000", "173337.876000", "173337.881000", "173337.884000", "173337.888000", "173337.891000", "173337.894000", "173337.897000", "173337.901000", "173337.904000", "173337.907000", "173337.911000", "173337.914000", "173337.917000", "173337.921000", "173337.937000", "173337.941000", "173337.944000", "173337.947000", "173337.950000", "173417.852000", "173417.856000", "173417.859000", "173417.863000", "173417.866000", "173417.869000", "173417.873000", "173417.876000", "173417.879000", "173417.882000", "173417.886000", "173417.889000", "173417.893000", "173417.896000", "173417.899000", "173417.903000", "173417.906000", "173417.909000", "173417.913000", "173417.916000", "173417.919000", "173417.922000", "173417.926000", "173417.929000", "173417.932000", "173417.936000", "173417.939000", "173457.852000", "173457.856000", "173457.859000", "173457.862000", "173457.866000", "173457.869000", "173457.872000", "173457.876000", "173457.879000", "173457.883000", "173457.886000", "173457.889000", "173457.893000", "173457.896000", "173457.899000", "173457.903000", "173457.906000", "173457.909000", "173457.913000", "173457.916000", "173457.919000", "173457.923000", "173457.926000", "173457.929000", "173457.933000", "173457.936000", "173457.939000", "173537.853000", "173537.857000", "173537.860000", "173537.864000", "173537.867000", "173537.870000", "173537.874000", "173537.877000", "173537.880000", "173537.884000", "173537.887000", "173537.890000", "173537.894000", "173537.897000", "173537.900000", "173537.903000", "173537.907000", "173537.910000", "173537.913000", "173537.917000", "173537.920000", "173537.923000", "173537.927000", "173537.930000", "173537.933000", "173537.937000", "173537.940000", "173617.852000", "173617.856000", "173617.859000", "173617.862000", "173617.866000", "173617.869000", "173617.883000", "173617.886000", "173617.890000", "173617.893000", "173617.896000", "173617.899000", "173617.903000", "173617.906000", "173617.909000", "173617.913000", "173617.916000", "173617.920000", "173617.923000", "173617.926000", "173617.929000", "173617.933000", "173617.936000", "173617.939000", "173617.943000", "173617.946000", "173617.949000", "173657.852000", "173657.856000", "173657.860000", "173657.863000", "173657.866000", "173657.870000", "173657.873000", "173657.877000", "173657.880000", "173657.883000", "173657.887000", "173657.890000", "173657.894000", "173657.897000", "173657.901000", "173657.904000", "173657.907000", "173657.911000", "173657.914000", "173657.918000", "173657.921000", "173657.925000", "173657.928000", "173657.931000", "173657.935000", "173657.938000", "173657.942000", "173737.852000", "173737.856000", "173737.859000", "173737.862000", "173737.866000", "173737.869000", "173737.873000", "173737.876000", "173737.879000", "173737.883000", "173737.886000", "173737.890000", "173737.893000", "173737.897000", "173737.901000", "173737.904000", "173737.908000", "173737.911000", "173737.915000", "173737.918000", "173737.922000", "173737.925000", "173737.928000", "173737.932000", "173737.935000", "173737.938000", "173817.852000", "173817.856000", "173817.859000", "173817.863000", "173817.866000", "173817.869000", "173817.873000", "173817.876000", "173817.879000", "173817.883000", "173817.886000", "173817.889000", "173817.893000", "173817.896000", "173817.899000", "173817.903000", "173817.906000", "173817.909000", "173817.913000", "173817.916000", "173817.919000", "173817.941000", "173817.945000", "173817.948000", "173817.952000", "173817.955000", "173817.958000", "173857.852000", "173857.856000", "173857.859000", "173857.863000", "173857.866000", "173857.869000", "173857.873000", "173857.876000", "173857.879000", "173857.884000", "173857.887000", "173857.891000", "173857.894000", "173857.898000", "173857.901000", "173857.904000", "173857.908000", "173857.911000", "173857.914000", "173857.918000", "173857.921000", "173857.924000", "173857.928000", "173857.931000", "173857.934000", "173857.937000", "173857.941000", "173937.852000", "173937.856000", "173937.859000", "173937.863000", "173937.866000", "173937.869000", "173937.873000", "173937.876000", "173937.879000", "173937.883000", "173937.886000", "173937.889000", "173937.893000", "173937.896000", "173937.899000", "173937.902000", "173937.906000", "173937.909000", "173937.912000", "173937.916000", "173937.919000", "173937.922000", "173937.926000", "173937.929000", "173937.932000", "173937.936000", "173937.939000", "174017.853000", "174017.857000", "174017.860000", "174017.864000", "174017.867000", "174017.870000", "174017.874000", "174017.877000", "174017.880000", "174017.884000", "174017.887000", "174017.890000", "174017.894000", "174017.898000", "174017.901000", "174017.905000", "174017.908000", "174017.911000", "174017.915000", "174017.918000", "174017.921000", "174017.925000", "174017.928000", "174017.931000", "174017.934000", "174017.938000", "174017.941000", "174032.043000", "174032.047000", "174032.050000", "174032.054000", "174032.057000", "174032.061000", "174032.064000", "174032.068000", "174032.071000"],
