{
  "AcquisitionMatrixPE": 104,
  "AcquisitionNumber": 1,
  "AcquisitionTime": "17:55:39.500000",
  "BandwidthPerPixelPhaseEncode": 17.17,
  "BaseResolution": 104,
  "BodyPartExamined": "BRAIN",
  "CoilCombinationMethod": "Sum of Squares",
  "ConsistencyInfo": "N4_VE11C_LATEST_20160120",
  "ConversionSoftware": "dcm2niix",
  "ConversionSoftwareVersion": "v1.0.20211006",
  "DerivedVendorReportedEchoSpacing": 0.000560011,
  "DeviceSerialNumber": "167006",
  "DwellTime": 2.1e-06,
  "EchoTime": 0.037,
  "EchoTime1": 0.037,
  "EchoTime2": 0.001,
  "EchoTrainLength": 104,
  "EffectiveEchoSpacing": 0.000560011,
  "FlipAngle": 52,
  "HeudiconvVersion": "0.11.3.post9+gc939bf8",
  "ImageComments": "Unaliased MB4/PE3/LB",
  "ImageOrientationPatientDICOM": [0.997405, 0.0678443, 0.0240735, -0.0538429, 0.925016, -0.376093],
  "ImageOrientationText": "Tra>Cor(-22.0)>Sag(2.7)",
  "ImageType": [
    "ORIGINAL",
    "PRIMARY",
    "P",
    "MB",
    "ND",
    "MOSAIC",
    "PHASE"
],
  "ImagingFrequency": 123.259,
  "InPlanePhaseEncodingDirectionDICOM": "COL",
  "InstitutionAddress": "Chemin Queen-Mary 4565,Montreal,District,CA,H3W 1W5",
  "InstitutionName": "IUGM",
  "InstitutionalDepartmentName": "Department",
  "MRAcquisitionType": "2D",
  "MagneticFieldStrength": 3,
  "Manufacturer": "Siemens",
  "ManufacturersModelName": "Prisma_fit",
  "MatrixCoilMode": "SENSE",
  "Modality": "MR",
  "MultibandAccelerationFactor": 4,
  "PartialFourier": 1,
  "PatientPosition": "HFS",
  "PercentPhaseFOV": 100,
  "PercentSampling": 100,
  "PhaseEncodingDirection": "j",
  "PhaseEncodingSteps": 104,
  "PhaseResolution": 1,
  "PixelBandwidth": 2290,
  "ProcedureStepDescription": "games^mariostars",
  "ProtocolName": "func_task-mariostars_run-03",
  "PulseSequenceDetails": "%CustomerSeq%\\cmrr_mbep2d_bold",
  "ReceiveCoilActiveElements": "HC1-7;NC1,2",
  "ReceiveCoilName": "HeadNeck_64",
  "ReconMatrixPE": 104,
  "RepetitionTime": 1.49,
  "SAR": 0.0639459,
  "ScanOptions": "FS",
  "ScanningSequence": "EP",
  "SequenceName": "epfid2d1_104",
  "SequenceVariant": "SK\\SS",
  "SeriesDescription": "func_task-mariostars_run-03",
  "SeriesNumber": 17,
  "ShimSetting": [624, -7200, -8832, 654, 86, -11, -59, 0],
  "SliceThickness": 2,
  "SliceTiming": [0, 0.785, 0.0975, 0.8825, 0.195, 0.98, 0.295, 1.0775, 0.3925, 1.175, 0.49, 1.275, 0.5875, 1.3725, 0.685, 0, 0.785, 0.0975, 0.8825, 0.195, 0.98, 0.295, 1.0775, 0.3925, 1.175, 0.49, 1.275, 0.5875, 1.3725, 0.685, 0, 0.785, 0.0975, 0.8825, 0.195, 0.98, 0.295, 1.0775, 0.3925, 1.175, 0.49, 1.275, 0.5875, 1.3725, 0.685, 0, 0.785, 0.0975, 0.8825, 0.195, 0.98, 0.295, 1.0775, 0.3925, 1.175, 0.49, 1.275, 0.5875, 1.3725, 0.685],
  "SoftwareVersions": "syngo MR E11",
  "SpacingBetweenSlices": 2,
  "StationName": "MRC35049",
  "TaskName": "mariostars",
  "TotalReadoutTime": 0.0576811,
  "TxRefAmp": 293.478,
  "WipMemBlock": "a2c6c767-2348-4753-95d4-cb46410a75d3||Sequence: R016 ve11c/master r/e634e98; Dec 19 2017 11:00:25 by eja",
  "dcmmeta_affine": [
    [-1.994810938835144, -0.10768584907054901, 0.09556826949119568, 109.44353485107422],
    [-0.1356886327266693, 1.8500325679779053, -0.7476417422294617, -52.06069564819336],
    [0.048146989196538925, 0.7521857023239136, 1.8525384664535522, -70.33871459960938],
    [0.0, 0.0, 0.0, 1.0]
],
  "dcmmeta_reorient_transform": [
    [0.0, -1.0, 0.0, 103.0],
    [1.0, 0.0, 0.0, 0.0],
    [0.0, 0.0, 1.0, 0.0],
    [0.0, 0.0, 0.0, 1.0]
],
  "dcmmeta_shape": [104, 104, 60, 444],
  "dcmmeta_slice_dim": 2,
  "dcmmeta_version": 0.6,
  "global": {
    "const": {
      "AcquisitionMatrix": [104, 0, 0, 104],
      "AngioFlag": "N",
      "BitsAllocated": 16,
      "BitsStored": 16,
      "BodyPartExamined": "BRAIN",
      "Columns": 832,
      "EchoNumbers": 1,
      "EchoTime": 37.0,
      "EchoTrainLength": 104,
      "FlipAngle": 52.0,
      "HighBit": 15,
      "ImageOrientationPatient": [0.99740544205884, 0.06784431474789, 0.02407349388449, -0.0538429254451, 0.92501627834637, -0.3760928398331],
      "ImagePositionPatient": [-785.26540162617, -861.29517046737, 263.40649353434],
      "ImageType": [
        "ORIGINAL",
        "PRIMARY",
        "P",
        "MB",
        "ND",
        "MOSAIC"
],
      "ImagedNucleus": "1H",
      "ImagingFrequency": 123.258851,
      "InPlanePhaseEncodingDirection": "COL",
      "LargestImagePixelValue": 4095,
      "MRAcquisitionType": "2D",
      "MagneticFieldStrength": 3.0,
      "Manufacturer": "SIEMENS",
      "ManufacturerModelName": "Prisma_fit",
      "Modality": "MR",
      "NumberOfAverages": 1.0,
      "NumberOfPhaseEncodingSteps": 104,
      "PercentPhaseFieldOfView": 100.0,
      "PercentSampling": 100.0,
      "PerformedProcedureStepStartTime": "170107.035000",
      "PhotometricInterpretation": "MONOCHROME2",
      "PixelBandwidth": 2290.0,
      "PixelRepresentation": 0,
      "PixelSpacing": [2.0, 2.0],
      "ProtocolName": "func_task-mariostars_run-03",
      "RepetitionTime": 1490.0,
      "RescaleIntercept": -4096.0,
      "RescaleSlope": 2.0,
      "RescaleType": "US",
      "Rows": 832,
      "SAR": 0.06394593162479,
      "SamplesPerPixel": 1,
      "ScanOptions": "FS",
      "ScanningSequence": "EP",
      "SequenceName": "epfid2d1_104",
      "SequenceVariant": [
        "SK",
        "SS"
],
      "SeriesDescription": "func_task-mariostars_run-03",
      "SeriesNumber": 17,
      "SeriesTime": "175713.033000",
      "SliceLocation": -40.461548003173,
      "SliceThickness": 2.0,
      "SmallestImagePixelValue": 0,
      "SoftwareVersions": "syngo MR E11",
      "SpacingBetweenSlices": 1.9999999947542,
      "SpecificCharacterSet": "ISO_IR 100",
      "StudyID": "1",
      "StudyTime": "170106.970000",
      "TransmitCoilName": "Body",
      "VariableFlipAngleFlag": "N",
      "WindowCenterWidthExplanation": "Algo1",
      "dBdt": 0.0},
    "slices": {}
  },
  "time": {
    "samples": {
      "AcquisitionNumber": [1, 2, 3, 4, 5, 6, 7, 8, 9, 10, 11, 12, 13, 14, 15, 16, 17, 18, 19, 20, 21, 22, 23, 24, 25, 26, 27, 28, 29, 30, 31, 32, 33, 34, 35, 36, 37, 38, 39, 40, 41, 42, 43, 44, 45, 46, 47, 48, 49, 50, 51, 52, 53, 54, 55, 56, 57, 58, 59, 60, 61, 62, 63, 64, 65, 66, 67, 68, 69, 70, 71, 72, 73, 74, 75, 76, 77, 78, 79, 80, 81, 82, 83, 84, 85, 86, 87, 88, 89, 90, 91, 92, 93, 94, 95, 96, 97, 98, 99, 100, 101, 102, 103, 104, 105, 106, 107, 108, 109, 110, 111, 112, 113, 114, 115, 116, 117, 118, 119, 120, 121, 122, 123, 124, 125, 126, 127, 128, 129, 130, 131, 132, 133, 134, 135, 136, 137, 138, 139, 140, 141, 142, 143, 144, 145, 146, 147, 148, 149, 150, 151, 152, 153, 154, 155, 156, 157, 158, 159, 160, 161, 162, 163, 164, 165, 166, 167, 168, 169, 170, 171, 172, 173, 174, 175, 176, 177, 178, 179, 180, 181, 182, 183, 184, 185, 186, 187, 188, 189, 190, 191, 192, 193, 194, 195, 196, 197, 198, 199, 200, 201, 202, 203, 204, 205, 206, 207, 208, 209, 210, 211, 212, 213, 214, 215, 216, 217, 218, 219, 220, 221, 222, 223, 224, 225, 226, 227, 228, 229, 230, 231, 232, 233, 234, 235, 236, 237, 238, 239, 240, 241, 242, 243, 244, 245, 246, 247, 248, 249, 250, 251, 252, 253, 254, 255, 256, 257, 258, 259, 260, 261, 262, 263, 264, 265, 266, 267, 268, 269, 270, 271, 272, 273, 274, 275, 276, 277, 278, 279, 280, 281, 282, 283, 284, 285, 286, 287, 288, 289, 290, 291, 292, 293, 294, 295, 296, 297, 298, 299, 300, 301, 302, 303, 304, 305, 306, 307, 308, 309, 310, 311, 312, 313, 314, 315, 316, 317, 318, 319, 320, 321, 322, 323, 324, 325, 326, 327, 328, 329, 330, 331, 332, 333, 334, 335, 336, 337, 338, 339, 340, 341, 342, 343, 344, 345, 346, 347, 348, 349, 350, 351, 352, 353, 354, 355, 356, 357, 358, 359, 360, 361, 362, 363, 364, 365, 366, 367, 368, 369, 370, 371, 372, 373, 374, 375, 376, 377, 378, 379, 380, 381, 382, 383, 384, 385, 386, 387, 388, 389, 390, 391, 392, 393, 394, 395, 396, 397, 398, 399, 400, 401, 402, 403, 404, 405, 406, 407, 408, 409, 410, 411, 412, 413, 414, 415, 416, 417, 418, 419, 420, 421, 422, 423, 424, 425, 426, 427, 428, 429, 430, 431, 432, 433, 434, 435, 436, 437, 438, 439, 440, 441, 442, 443, 444],
      "AcquisitionTime": ["175539.500000", "175540.990000", "175542.480000", "175543.970000", "175545.460000", "175546.950000", "175548.440000", "175549.930000", "175551.420000", "175552.910000", "175554.400000", "175555.890000", "175557.380000", "175558.870000", "175600.360000", "175601.850000", "175603.340000", "175604.830000", "175606.320000", "175607.810000", "175609.300000", "175610.790000", "175612.280000", "175613.770000", "175615.260000", "175616.750000", "175618.240000", "175619.730000", "175621.220000", "175622.710000", "175624.200000", "175625.690000", "175627.180000", "175628.670000", "175630.160000", "175631.650000", "175633.140000", "175634.630000", "175636.120000", "175637.610000", "175639.100000", "175640.590000", "175642.080000", "175643.570000", "175645.060000", "175646.550000", "175648.040000", "175649.530000", "175651.020000", "175652.510000", "175654.000000", "175655.490000", "175656.980000", "175658.470000", "175659.960000", "175701.450000", "175702.940000", "175704.430000", "175705.920000", "175707.410000", "175708.900000", "175710.390000", "175711.880000", "175713.370000", "175714.860000", "175716.350000", "175717.840000", "175719.330000", "175720.820000", "175722.310000", "175723.800000", "175725.290000", "175726.780000", "175728.270000", "175729.760000", "175731.250000", "175732.740000", "175734.230000", "175735.720000", "175737.210000", "175738.700000", "175740.190000", "175741.680000", "175743.170000", "175744.660000", "175746.150000", "175747.640000", "175749.130000", "175750.620000", "175752.110000", "175753.600000", "175755.090000", "175756.580000", "175758.070000", "175759.560000", "175801.050000", "175802.540000", "175804.030000", "175805.520000", "175807.010000", "175808.500000", "175809.990000", "175811.480000", "175812.970000", "175814.460000", "175815.950000", "175817.440000", "175818.930000", "175820.420000", "175821.910000", "175823.400000", "175824.890000", "175826.380000", "175827.870000", "175829.360000", "175830.850000", "175832.340000", "175833.830000", "175835.320000", "175836.810000", "175838.300000", "175839.790000", "175841.280000", "175842.770000", "175844.260000", "175845.750000", "175847.240000", "175848.730000", "175850.220000", "175851.710000", "175853.200000", "175854.690000", "175856.180000", "175857.670000", "175859.160000", "175900.650000", "175902.140000", "175903.630000", "175905.120000", "175906.610000", "175908.100000", "175909.590000", "175911.080000", "175912.570000", "175914.060000", "175915.550000", "175917.040000", "175918.530000", "175920.020000", "175921.510000", "175923.000000", "175924.490000", "175925.980000", "175927.470000", "175928.960000", "175930.450000", "175931.940000", "175933.430000", "175934.920000", "175936.410000", "175937.900000", "175939.390000", "175940.880000", "175942.370000", "175943.860000", "175945.350000", "175946.840000", "175948.330000", "175949.820000", "175951.310000", "175952.800000", "175954.290000", "175955.780000", "175957.270000", "175958.760000", "180000.250000", "180001.740000", "180003.230000", "180004.720000", "180006.210000", "180007.700000", "180009.190000", "180010.680000", "180012.170000", "180013.660000", "180015.150000", "180016.640000", "180018.130000", "180019.620000", "180021.110000", "180022.600000", "180024.090000", "180025.580000", "180027.070000", "180028.560000", "180030.050000", "180031.540000", "180033.030000", "180034.520000", "180036.010000", "180037.500000", "180038.990000", "180040.480000", "180041.970000", "180043.460000", "180044.950000", "180046.440000", "180047.930000", "180049.420000", "180050.910000", "180052.400000", "180053.890000", "180055.380000", "180056.870000", "180058.360000", "180059.850000", "180101.340000", "180102.830000", "180104.320000", "180105.810000", "180107.300000", "180108.790000", "180110.280000", "180111.770000", "180113.260000", "180114.750000", "180116.240000", "180117.730000", "180119.220000", "180120.710000", "180122.200000", "180123.690000", "180125.180000", "180126.670000", "180128.160000", "180129.650000", "180131.140000", "180132.630000", "180134.120000", "180135.610000", "180137.100000", "180138.590000", "180140.080000", "180141.570000", "180143.060000", "180144.550000", "180146.040000", "180147.530000", "180149.020000", "180150.510000", "180152.000000", "180153.490000", "180154.980000", "180156.470000", "180157.960000", "180159.450000", "180200.940000", "180202.430000", "180203.920000", "180205.410000", "180206.900000", "180208.390000", "180209.880000", "180211.370000", "180212.860000", "180214.350000", "180215.840000", "180217.330000", "180218.820000", "180220.310000", "180221.800000", "180223.290000", "180224.780000", "180226.270000", "180227.760000", "180229.250000", "180230.740000", "180232.230000", "180233.720000", "180235.210000", "180236.700000", "180238.190000", "180239.680000", "180241.170000", "180242.660000", "180244.150000", "180245.640000", "180247.130000", "180248.620000", "180250.110000", "180251.600000", "180253.090000", "180254.580000", "180256.070000", "180257.560000", "180259.050000", "180300.540000", "180302.030000", "180303.520000", "180305.010000", "180306.500000", "180307.990000", "180309.480000", "180310.970000", "180312.460000", "180313.950000", "180315.440000", "180316.930000", "180318.420000", "180319.910000", "180321.400000", "180322.890000", "180324.380000", "180325.870000", "180327.360000", "180328.850000", "180330.340000", "180331.830000", "180333.320000", "180334.810000", "180336.300000", "180337.790000", "180339.280000", "180340.770000", "180342.260000", "180343.750000", "180345.240000", "180346.730000", "180348.220000", "180349.710000", "180351.200000", "180352.690000", "180354.180000", "180355.670000", "180357.160000", "180358.650000", "180400.140000", "180401.630000", "180403.120000", "180404.610000", "180406.100000", "180407.590000", "180409.080000", "180410.570000", "180412.060000", "180413.550000", "180415.040000", "180416.530000", "180418.020000", "180419.510000", "180421.000000", "180422.490000", "180423.980000", "180425.470000", "180426.960000", "180428.450000", "180429.940000", "180431.430000", "180432.920000", "180434.410000", "180435.900000", "180437.390000", "180438.880000", "180440.370000", "180441.860000", "180443.350000", "180444.840000", "180446.330000", "180447.820000", "180449.310000", "180450.800000", "180452.290000", "180453.780000", "180455.270000", "180456.760000", "180458.250000", "180459.740000", "180501.230000", "180502.720000", "180504.210000", "180505.700000", "180507.190000", "180508.680000", "180510.170000", "180511.660000", "180513.150000", "180514.640000", "180516.130000", "180517.620000", "180519.110000", "180520.600000", "180522.090000", "180523.580000", "180525.070000", "180526.560000", "180528.050000", "180529.540000", "180531.030000", "180532.520000", "180534.010000", "180535.500000", "180536.990000", "180538.480000", "180539.970000", "180541.460000", "180542.950000", "180544.440000", "180545.930000", "180547.420000", "180548.910000", "180550.400000", "180551.890000", "180553.380000", "180554.870000", "180556.360000", "180557.850000", "180559.340000", "180600.830000", "180602.320000", "180603.810000", "180605.300000", "180606.790000", "180608.280000", "180609.770000", "180611.260000", "180612.750000", "180614.240000", "180615.730000", "180617.220000", "180618.710000", "180620.200000", "180621.690000", "180623.180000", "180624.670000", "180626.160000", "180627.650000", "180629.140000", "180630.630000", "180632.120000", "180633.610000", "180635.100000", "180636.590000", "180638.080000", "180639.570000"],
      "ContentTime": ["175713.036000", "175713.038000", "175713.041000", "175713.043000", "175713.046000", "175713.048000", "175713.051000", "175713.053000", "175713.056000", "175713.058000", "175713.061000", "175713.063000", "175713.066000", "175713.068000", "175713.071000", "175713.073000", "175713.081000", "175713.084000", "175713.086000", "175713.089000", "175713.091000", "175713.094000", "175713.096000", "175713.099000", "175713.102000", "175713.104000", "175713.106000", "175713.109000", "175713.112000", "175713.114000", "175713.116000", "175713.119000", "175713.122000", "175713.124000", "175713.126000", "175713.129000", "175713.132000", "175713.134000", "175713.137000", "175732.929000", "175732.932000", "175732.934000", "175732.937000", "175732.940000", "175732.942000", "175732.944000", "175732.947000", "175732.950000", "175732.952000", "175732.955000", "175732.957000", "175732.960000", "175732.962000", "175732.965000", "175732.967000", "175732.970000", "175732.972000", "175732.975000", "175732.977000", "175752.951000", "175752.954000", "175752.956000", "175752.959000", "175752.961000", "175752.964000", "175752.966000", "175752.969000", "175752.971000", "175752.974000", "175752.976000", "175752.979000", "175752.981000", "175752.984000", "175752.986000", "175752.989000", "175752.991000", "175752.994000", "175752.996000", "175753.000000", "175812.933000", "175812.935000", "175812.938000", "175812.943000", "175812.946000", "175812.948000", "175812.951000", "175812.954000", "175812.956000", "175812.958000", "175812.961000", "175812.964000", "175812.966000", "175812.968000", "175812.971000", "175812.973000", "175812.976000", "175812.978000", "175812.981000", "175812.983000", "175812.986000", "175852.964000", "175852.966000", "175852.969000", "175852.971000", "175852.974000", "175852.976000", "175852.979000", "175852.981000", "175852.984000", "175852.987000", "175852.989000", "175852.991000", "175852.994000", "175852.997000", "175853.000000", "175853.010000", "175853.013000", "175853.015000", "175853.018000", "175853.020000", "175853.023000", "175853.025000", "175853.028000", "175853.030000", "175853.033000", "175853.035000", "175853.038000", "175853.040000", "175853.043000", "175932.955000", "175932.957000", "175932.960000", "175932.962000", "175932.965000", "175932.978000", "175932.980000", "175932.983000", "175932.985000", "175932.988000", "175932.990000", "175932.993000", "175932.995000", "175932.998000", "175933.002000", "175933.004000", "175933.007000", "175933.009000", "175933.012000", "175933.014000", "175933.017000", "175933.019000", "175933.022000", "175933.024000", "175933.027000", "175933.029000", "175933.032000", "180012.956000", "180012.959000", "180012.962000", "180012.964000", "180012.967000", "180012.969000", "180012.972000", "180012.974000", "180012.977000", "180012.979000", "180012.982000", "180012.984000", "180012.987000", "180012.989000", "180012.992000", "180012.994000", "180012.997000", "180013.000000", "180013.003000", "180013.007000", "180013.010000", "180013.012000", "180013.014000", "180013.017000", "180013.020000", "180013.022000", "180052.958000", "180052.961000", "180052.963000", "180052.966000", "180052.968000", "180052.971000", "180052.973000", "180052.976000", "180052.978000", "180052.981000", "180052.983000", "180052.986000", "180052.988000", "180052.991000", "180052.993000", "180052.996000", "180052.998000", "180053.002000", "180053.004000", "180053.007000", "180053.009000", "180053.012000", "180053.014000", "180053.017000", "180053.019000", "180053.022000", "180053.024000", "180132.950000", "180132.952000", "180132.955000", "180132.957000", "180132.960000", "180132.963000", "180132.965000", "180132.968000", "180132.970000", "180132.973000", "180132.975000", "180132.978000", "180132.980000", "180132.983000", "180132.985000", "180132.988000", "180132.990000", "180132.993000", "180132.995000", "180132.998000", "180133.001000", "180133.004000", "180133.006000", "180133.009000", "180133.011000", "180133.014000", "180133.017000", "180212.963000", "180212.966000", "180212.976000", "180212.979000", "180212.981000", "180212.984000", "180212.986000", "180212.989000", "180212.991000", "180212.994000", "180212.996000", "180213.000000", "180213.002000", "180213.005000", "180213.007000", "180213.010000", "180213.012000", "180213.015000", "180213.017000", "180213.020000", "180213.022000", "180213.025000", "180213.027000", "180213.030000", "180213.033000", "180213.035000", "180213.038000", "180252.965000", "180252.968000", "180252.970000", "180252.973000", "180252.975000", "180252.978000", "180252.980000", "180252.983000", "180252.985000", "180252.988000", "180252.990000", "180252.993000", "180252.995000", "180252.998000", "180253.001000", "180253.004000", "180253.006000", "180253.009000", "180253.011000", "180253.014000", "180253.017000", "180253.019000", "180253.022000", "180253.024000", "180253.027000", "180253.029000", "180253.032000", "180332.967000", "180332.970000", "180332.972000", "180332.975000", "180332.978000", "180332.980000", "180332.982000", "180332.985000", "180332.988000", "180332.990000", "180332.992000", "180332.995000", "180332.998000", "180333.001000", "180333.003000", "180333.006000", "180333.009000", "180333.011000", "180333.013000", "180333.016000", "180333.019000", "180333.021000", "180333.023000", "180333.026000", "180333.029000", "180333.031000", "180333.033000", "180412.982000", "180412.984000", "180412.995000", "180412.997000", "180413.001000", "180413.004000", "180413.006000", "180413.009000", "180413.011000", "180413.014000", "180413.016000", "180413.019000", "180413.021000", "180413.024000", "180413.026000", "180413.029000", "180413.031000", "180413.034000", "180413.036000", "180413.039000", "180413.041000", "180413.044000", "180413.046000", "180413.049000", "180413.051000", "180413.054000", "180452.967000", "180452.970000", "180452.972000", "180452.975000", "180452.977000", "180452.980000", "180452.982000", "180452.985000", "180452.987000", "180452.990000", "180452.992000", "180452.995000", "180452.997000", "180453.003000", "180453.005000", "180453.008000", "180453.010000", "180453.013000", "180453.015000", "180453.018000", "180453.020000", "180453.023000", "180453.025000", "180453.028000", "180453.030000", "180453.033000", "180453.035000", "180532.956000", "180532.959000", "180532.962000", "180532.964000", "180532.967000", "180532.969000", "180532.972000", "180532.974000", "180532.977000", "180532.979000", "180532.982000", "180532.984000", "180532.987000", "180532.989000", "180532.992000", "180532.994000", "180532.997000", "180533.000000", "180533.003000", "180533.006000", "180533.008000", "180533.011000", "180533.013000", "180533.016000", "180533.018000", "180533.021000", "180533.023000", "180612.960000", "180612.963000", "180612.965000", "180612.968000", "180612.970000", "180612.973000", "180612.975000", "180612.978000", "180612.980000", "180612.983000", "180612.985000", "180612.988000", "180612.990000", "180612.993000", "180612.996000", "180612.998000", "180613.002000", "180613.004000", "180613.007000", "180613.009000", "180613.012000", "180613.014000", "180613.017000", "180613.019000", "180613.022000", "180613.025000", "180613.027000", "180643.419000", "180643.422000", "180643.425000", "180643.427000", "180643.430000", "180643.432000", "180643.435000", "180643.437000", "180643.440000", "180643.442000", "180643.445000", "180643.447000", "180643.450000", "180643.452000", "180643.455000", "180643.458000", "180643.460000", "180643.462000", "180643.465000", "180643.468000"],
