{
  "AcquisitionMatrixPE": 104,
  "AcquisitionNumber": 1,
  "AcquisitionTime": "16:14:49.187500",
  "BandwidthPerPixelPhaseEncode": 17.17,
  "BaseResolution": 104,
  "BodyPartExamined": "BRAIN",
  "CoilCombinationMethod": "Sum of Squares",
  "ConsistencyInfo": "N4_VE11C_LATEST_20160120",
  "ConversionSoftware": "dcm2niix",
  "ConversionSoftwareVersion": "v1.0.20211006",
  "DerivedVendorReportedEchoSpacing": 0.000560011,
  "DeviceSerialNumber": "167006",
  "DwellTime": 2.1e-06,
  "EchoTime": 0.037,
  "EchoTrainLength": 104,
  "EffectiveEchoSpacing": 0.000560011,
  "FlipAngle": 52,
  "HeudiconvVersion": "0.11.3.post9+gc939bf8",
  "ImageComments": "Unaliased MB4/PE3/LB",
  "ImageOrientationPatientDICOM": [0.999141, 0.011202, 0.0398908, 0.012905, 0.830737, -0.556516],
  "ImageOrientationText": "Tra>Cor(-33.8)>Sag(2.3)",
  "ImageType": [
    "ORIGINAL",
    "PRIMARY",
    "M",
    "MB",
    "ND",
    "MOSAIC"
],
  "ImagingFrequency": 123.259,
  "InPlanePhaseEncodingDirectionDICOM": "COL",
  "InstitutionAddress": "Chemin Queen-Mary 4565,Montreal,District,CA,H3W 1W5",
  "InstitutionName": "IUGM",
  "InstitutionalDepartmentName": "Department",
  "MRAcquisitionType": "2D",
  "MagneticFieldStrength": 3,
  "Manufacturer": "Siemens",
  "ManufacturersModelName": "Prisma_fit",
  "MatrixCoilMode": "SENSE",
  "Modality": "MR",
  "MultibandAccelerationFactor": 4,
  "PartialFourier": 1,
  "PatientPosition": "HFS",
  "PercentPhaseFOV": 100,
  "PercentSampling": 100,
  "PhaseEncodingDirection": "j",
  "PhaseEncodingSteps": 104,
  "PhaseResolution": 1,
  "PixelBandwidth": 2290,
  "ProcedureStepDescription": "games^mariostars",
  "ProtocolName": "func_task-mariostars_run-01",
  "PulseSequenceDetails": "%CustomerSeq%\\cmrr_mbep2d_bold",
  "ReceiveCoilActiveElements": "HC1-7;NC1,2",
  "ReceiveCoilName": "HeadNeck_64",
  "ReconMatrixPE": 104,
  "RepetitionTime": 1.49,
  "SAR": 0.0449489,
  "ScanOptions": "FS",
  "ScanningSequence": "EP",
  "SequenceName": "epfid2d1_104",
  "SequenceVariant": "SK\\SS",
  "SeriesDescription": "func_task-mariostars_run-01",
  "SeriesNumber": 10,
  "ShimSetting": [626, -7173, -8873, 231, 37, -208, 11, 32],
  "SliceThickness": 2,
  "SliceTiming": [0, 0.785, 0.0975, 0.8825, 0.1975, 0.98, 0.295, 1.0775, 0.3925, 1.1775, 0.49, 1.275, 0.5875, 1.3725, 0.6875, 0, 0.785, 0.0975, 0.8825, 0.1975, 0.98, 0.295, 1.0775, 0.3925, 1.1775, 0.49, 1.275, 0.5875, 1.3725, 0.6875, 0, 0.785, 0.0975, 0.8825, 0.1975, 0.98, 0.295, 1.0775, 0.3925, 1.1775, 0.49, 1.275, 0.5875, 1.3725, 0.6875, 0, 0.785, 0.0975, 0.8825, 0.1975, 0.98, 0.295, 1.0775, 0.3925, 1.1775, 0.49, 1.275, 0.5875, 1.3725, 0.6875],
  "SoftwareVersions": "syngo MR E11",
  "SpacingBetweenSlices": 2,
  "StationName": "MRC35049",
  "TaskName": "mariostars",
  "TotalReadoutTime": 0.0576811,
  "TxRefAmp": 257.929,
  "WipMemBlock": "966676ad-1a1b-4838-8f47-9f3ec3a1c2a4||Sequence: R016 ve11c/master r/e634e98; Dec 19 2017 11:00:25 by eja",
  "dcmmeta_affine": [
    [-1.998282551765442, 0.025810090824961662, 0.07874573767185211, 104.29269409179688],
    [-0.022404000163078308, 1.6614736318588257, -1.113105297088623, -44.74911880493164],
    [0.0797816589474678, 1.1130316257476807, 1.6597576141357422, -104.9471206665039],
    [0.0, 0.0, 0.0, 1.0]
],
  "dcmmeta_reorient_transform": [
    [0.0, -1.0, 0.0, 103.0],
    [1.0, 0.0, 0.0, 0.0],
    [0.0, 0.0, 1.0, 0.0],
    [0.0, 0.0, 0.0, 1.0]
],
  "dcmmeta_shape": [104, 104, 60, 468],
  "dcmmeta_slice_dim": 2,
  "dcmmeta_version": 0.6,
  "global": {
    "const": {
      "AcquisitionMatrix": [104, 0, 0, 104],
      "AngioFlag": "N",
      "BitsAllocated": 16,
      "BitsStored": 16,
      "BodyPartExamined": "BRAIN",
      "Columns": 832,
      "EchoNumbers": 1,
      "EchoTime": 37.0,
      "EchoTrainLength": 104,
      "FlipAngle": 52.0,
      "HighBit": 15,
      "ImageOrientationPatient": [0.99914124968978, 0.01120200022907, 0.03989083051556, 0.01290504580058, 0.8307367972212, -0.5565157981006],
      "ImagePositionPatient": [-843.72083787915, -739.31410532701, 385.79811377783],
      "ImageType": [
        "ORIGINAL",
        "PRIMARY",
        "M",
        "MB",
        "ND",
        "MOSAIC"
],
      "ImagedNucleus": "1H",
      "ImagingFrequency": 123.258794,
      "InPlanePhaseEncodingDirection": "COL",
      "MRAcquisitionType": "2D",
      "MagneticFieldStrength": 3.0,
      "Manufacturer": "SIEMENS",
      "ManufacturerModelName": "Prisma_fit",
      "Modality": "MR",
      "NumberOfAverages": 1.0,
      "NumberOfPhaseEncodingSteps": 104,
      "PercentPhaseFieldOfView": 100.0,
      "PercentSampling": 100.0,
      "PerformedProcedureStepStartTime": "150814.065000",
      "PhotometricInterpretation": "MONOCHROME2",
      "PixelBandwidth": 2290.0,
      "PixelRepresentation": 0,
      "PixelSpacing": [2.0, 2.0],
      "ProtocolName": "func_task-mariostars_run-01",
      "RepetitionTime": 1490.0,
      "Rows": 832,
      "SAR": 0.04494885504475,
      "SamplesPerPixel": 1,
      "ScanOptions": "FS",
      "ScanningSequence": "EP",
      "SequenceName": "epfid2d1_104",
      "SequenceVariant": [
        "SK",
        "SS"
],
      "SeriesDescription": "func_task-mariostars_run-01",
      "SeriesNumber": 10,
      "SeriesTime": "161554.830000",
      "SliceLocation": -58.081846368394,
      "SliceThickness": 2.0,
      "SmallestImagePixelValue": 0,
      "SoftwareVersions": "syngo MR E11",
      "SpacingBetweenSlices": 1.9999999657095,
      "SpecificCharacterSet": "ISO_IR 100",
      "StudyID": "1",
      "StudyTime": "150814.002000",
      "TransmitCoilName": "Body",
      "VariableFlipAngleFlag": "N",
      "WindowCenterWidthExplanation": "Algo1",
      "dBdt": 0.0},
    "slices": {}
  },
  "time": {
    "samples": {
      "AcquisitionNumber": [1, 2, 3, 4, 5, 6, 7, 8, 9, 10, 11, 12, 13, 14, 15, 16, 17, 18, 19, 20, 21, 22, 23, 24, 25, 26, 27, 28, 29, 30, 31, 32, 33, 34, 35, 36, 37, 38, 39, 40, 41, 42, 43, 44, 45, 46, 47, 48, 49, 50, 51, 52, 53, 54, 55, 56, 57, 58, 59, 60, 61, 62, 63, 64, 65, 66, 67, 68, 69, 70, 71, 72, 73, 74, 75, 76, 77, 78, 79, 80, 81, 82, 83, 84, 85, 86, 87, 88, 89, 90, 91, 92, 93, 94, 95, 96, 97, 98, 99, 100, 101, 102, 103, 104, 105, 106, 107, 108, 109, 110, 111, 112, 113, 114, 115, 116, 117, 118, 119, 120, 121, 122, 123, 124, 125, 126, 127, 128, 129, 130, 131, 132, 133, 134, 135, 136, 137, 138, 139, 140, 141, 142, 143, 144, 145, 146, 147, 148, 149, 150, 151, 152, 153, 154, 155, 156, 157, 158, 159, 160, 161, 162, 163, 164, 165, 166, 167, 168, 169, 170, 171, 172, 173, 174, 175, 176, 177, 178, 179, 180, 181, 182, 183, 184, 185, 186, 187, 188, 189, 190, 191, 192, 193, 194, 195, 196, 197, 198, 199, 200, 201, 202, 203, 204, 205, 206, 207, 208, 209, 210, 211, 212, 213, 214, 215, 216, 217, 218, 219, 220, 221, 222, 223, 224, 225, 226, 227, 228, 229, 230, 231, 232, 233, 234, 235, 236, 237, 238, 239, 240, 241, 242, 243, 244, 245, 246, 247, 248, 249, 250, 251, 252, 253, 254, 255, 256, 257, 258, 259, 260, 261, 262, 263, 264, 265, 266, 267, 268, 269, 270, 271, 272, 273, 274, 275, 276, 277, 278, 279, 280, 281, 282, 283, 284, 285, 286, 287, 288, 289, 290, 291, 292, 293, 294, 295, 296, 297, 298, 299, 300, 301, 302, 303, 304, 305, 306, 307, 308, 309, 310, 311, 312, 313, 314, 315, 316, 317, 318, 319, 320, 321, 322, 323, 324, 325, 326, 327, 328, 329, 330, 331, 332, 333, 334, 335, 336, 337, 338, 339, 340, 341, 342, 343, 344, 345, 346, 347, 348, 349, 350, 351, 352, 353, 354, 355, 356, 357, 358, 359, 360, 361, 362, 363, 364, 365, 366, 367, 368, 369, 370, 371, 372, 373, 374, 375, 376, 377, 378, 379, 380, 381, 382, 383, 384, 385, 386, 387, 388, 389, 390, 391, 392, 393, 394, 395, 396, 397, 398, 399, 400, 401, 402, 403, 404, 405, 406, 407, 408, 409, 410, 411, 412, 413, 414, 415, 416, 417, 418, 419, 420, 421, 422, 423, 424, 425, 426, 427, 428, 429, 430, 431, 432, 433, 434, 435, 436, 437, 438, 439, 440, 441, 442, 443, 444, 445, 446, 447, 448, 449, 450, 451, 452, 453, 454, 455, 456, 457, 458, 459, 460, 461, 462, 463, 464, 465, 466, 467, 468],
      "AcquisitionTime": ["161449.187500", "161450.677500", "161452.167500", "161453.657500", "161455.147500", "161456.637500", "161458.127500", "161459.617500", "161501.107500", "161502.597500", "161504.087500", "161505.577500", "161507.067500", "161508.557500", "161510.047500", "161511.537500", "161513.027500", "161514.517500", "161516.007500", "161517.497500", "161518.987500", "161520.477500", "161521.967500", "161523.457500", "161524.947500", "161526.437500", "161527.927500", "161529.417500", "161530.907500", "161532.397500", "161533.887500", "161535.377500", "161536.867500", "161538.357500", "161539.847500", "161541.337500", "161542.827500", "161544.317500", "161545.807500", "161547.297500", "161548.787500", "161550.277500", "161551.767500", "161553.257500", "161554.747500", "161556.237500", "161557.727500", "161559.217500", "161600.707500", "161602.197500", "161603.687500", "161605.177500", "161606.667500", "161608.157500", "161609.647500", "161611.137500", "161612.627500", "161614.117500", "161615.607500", "161617.097500", "161618.587500", "161620.077500", "161621.567500", "161623.057500", "161624.547500", "161626.037500", "161627.527500", "161629.017500", "161630.507500", "161631.997500", "161633.487500", "161634.977500", "161636.467500", "161637.957500", "161639.447500", "161640.937500", "161642.427500", "161643.917500", "161645.407500", "161646.897500", "161648.387500", "161649.877500", "161651.367500", "161652.857500", "161654.347500", "161655.837500", "161657.327500", "161658.817500", "161700.307500", "161701.797500", "161703.287500", "161704.777500", "161706.267500", "161707.757500", "161709.247500", "161710.737500", "161712.227500", "161713.717500", "161715.207500", "161716.697500", "161718.187500", "161719.677500", "161721.167500", "161722.657500", "161724.147500", "161725.637500", "161727.127500", "161728.617500", "161730.107500", "161731.597500", "161733.087500", "161734.577500", "161736.067500", "161737.557500", "161739.047500", "161740.537500", "161742.027500", "161743.517500", "161745.007500", "161746.497500", "161747.987500", "161749.477500", "161750.967500", "161752.457500", "161753.947500", "161755.437500", "161756.927500", "161758.417500", "161759.907500", "161801.397500", "161802.887500", "161804.377500", "161805.867500", "161807.357500", "161808.847500", "161810.337500", "161811.827500", "161813.317500", "161814.807500", "161816.297500", "161817.787500", "161819.277500", "161820.767500", "161822.257500", "161823.747500", "161825.237500", "161826.727500", "161828.217500", "161829.707500", "161831.197500", "161832.687500", "161834.177500", "161835.667500", "161837.157500", "161838.647500", "161840.137500", "161841.627500", "161843.117500", "161844.607500", "161846.097500", "161847.587500", "161849.077500", "161850.567500", "161852.057500", "161853.547500", "161855.037500", "161856.527500", "161858.017500", "161859.507500", "161900.997500", "161902.487500", "161903.977500", "161905.467500", "161906.957500", "161908.447500", "161909.937500", "161911.427500", "161912.917500", "161914.407500", "161915.897500", "161917.387500", "161918.877500", "161920.367500", "161921.857500", "161923.347500", "161924.837500", "161926.327500", "161927.817500", "161929.307500", "161930.797500", "161932.287500", "161933.777500", "161935.267500", "161936.757500", "161938.247500", "161939.737500", "161941.227500", "161942.717500", "161944.207500", "161945.697500", "161947.187500", "161948.677500", "161950.167500", "161951.657500", "161953.147500", "161954.637500", "161956.127500", "161957.617500", "161959.107500", "162000.597500", "162002.087500", "162003.577500", "162005.067500", "162006.557500", "162008.047500", "162009.537500", "162011.027500", "162012.517500", "162014.007500", "162015.497500", "162016.987500", "162018.477500", "162019.967500", "162021.457500", "162022.947500", "162024.437500", "162025.927500", "162027.417500", "162028.907500", "162030.397500", "162031.887500", "162033.377500", "162034.867500", "162036.357500", "162037.847500", "162039.337500", "162040.827500", "162042.317500", "162043.807500", "162045.297500", "162046.787500", "162048.277500", "162049.767500", "162051.257500", "162052.747500", "162054.237500", "162055.727500", "162057.217500", "162058.707500", "162100.197500", "162101.687500", "162103.177500", "162104.667500", "162106.157500", "162107.647500", "162109.137500", "162110.627500", "162112.117500", "162113.607500", "162115.097500", "162116.587500", "162118.077500", "162119.567500", "162121.057500", "162122.547500", "162124.037500", "162125.527500", "162127.017500", "162128.507500", "162129.997500", "162131.487500", "162132.977500", "162134.467500", "162135.957500", "162137.447500", "162138.937500", "162140.427500", "162141.917500", "162143.407500", "162144.897500", "162146.387500", "162147.877500", "162149.367500", "162150.857500", "162152.347500", "162153.837500", "162155.327500", "162156.817500", "162158.307500", "162159.797500", "162201.287500", "162202.777500", "162204.267500", "162205.757500", "162207.247500", "162208.737500", "162210.227500", "162211.717500", "162213.207500", "162214.697500", "162216.187500", "162217.677500", "162219.167500", "162220.657500", "162222.147500", "162223.637500", "162225.127500", "162226.617500", "162228.107500", "162229.597500", "162231.087500", "162232.577500", "162234.067500", "162235.557500", "162237.047500", "162238.537500", "162240.027500", "162241.517500", "162243.007500", "162244.497500", "162245.987500", "162247.477500", "162248.967500", "162250.457500", "162251.947500", "162253.437500", "162254.927500", "162256.417500", "162257.907500", "162259.397500", "162300.887500", "162302.377500", "162303.867500", "162305.357500", "162306.847500", "162308.337500", "162309.827500", "162311.317500", "162312.807500", "162314.297500", "162315.787500", "162317.277500", "162318.767500", "162320.257500", "162321.747500", "162323.237500", "162324.727500", "162326.217500", "162327.707500", "162329.197500", "162330.687500", "162332.177500", "162333.667500", "162335.157500", "162336.647500", "162338.137500", "162339.627500", "162341.117500", "162342.607500", "162344.097500", "162345.587500", "162347.077500", "162348.567500", "162350.057500", "162351.547500", "162353.037500", "162354.527500", "162356.017500", "162357.507500", "162358.997500", "162400.487500", "162401.977500", "162403.467500", "162404.957500", "162406.447500", "162407.937500", "162409.427500", "162410.917500", "162412.407500", "162413.897500", "162415.387500", "162416.877500", "162418.367500", "162419.857500", "162421.347500", "162422.837500", "162424.327500", "162425.817500", "162427.307500", "162428.797500", "162430.287500", "162431.777500", "162433.267500", "162434.757500", "162436.247500", "162437.737500", "162439.227500", "162440.717500", "162442.207500", "162443.697500", "162445.187500", "162446.677500", "162448.167500", "162449.657500", "162451.147500", "162452.637500", "162454.127500", "162455.617500", "162457.107500", "162458.597500", "162500.087500", "162501.577500", "162503.067500", "162504.557500", "162506.047500", "162507.537500", "162509.027500", "162510.517500", "162512.007500", "162513.497500", "162514.987500", "162516.477500", "162517.967500", "162519.457500", "162520.947500", "162522.437500", "162523.927500", "162525.417500", "162526.907500", "162528.397500", "162529.887500", "162531.377500", "162532.867500", "162534.357500", "162535.847500", "162537.337500", "162538.827500", "162540.317500", "162541.807500", "162543.297500", "162544.787500", "162546.277500", "162547.767500", "162549.257500", "162550.747500", "162552.237500", "162553.727500", "162555.217500", "162556.707500", "162558.197500", "162559.687500", "162601.177500", "162602.667500", "162604.157500", "162605.647500", "162607.137500", "162608.627500", "162610.117500", "162611.607500", "162613.097500", "162614.587500", "162616.077500", "162617.567500", "162619.057500", "162620.547500", "162622.037500", "162623.527500", "162625.017500"],
      "ContentTime": ["161554.833000", "161554.845000", "161554.857000", "161554.860000", "161554.864000", "161554.867000", "161554.870000", "161554.874000", "161554.877000", "161554.881000", "161554.884000", "161554.888000", "161554.892000", "161614.783000", "161614.787000", "161614.790000", "161614.794000", "161614.797000", "161614.801000", "161614.804000", "161614.814000", "161614.818000", "161614.821000", "161614.825000", "161614.828000", "161614.832000", "161614.835000", "161614.838000", "161614.842000", "161614.845000", "161614.849000", "161614.852000", "161614.856000", "161634.783000", "161634.787000", "161634.790000", "161634.794000", "161634.797000", "161634.801000", "161634.804000", "161634.807000", "161634.811000", "161634.814000", "161634.818000", "161634.821000", "161634.825000", "161634.828000", "161634.831000", "161634.835000", "161634.838000", "161634.842000", "161634.845000", "161634.848000", "161654.782000", "161654.786000", "161654.789000", "161654.793000", "161654.796000", "161654.800000", "161654.803000", "161654.806000", "161654.810000", "161654.813000", "161654.817000", "161654.820000", "161654.824000", "161654.827000", "161654.831000", "161654.834000", "161654.838000", "161654.841000", "161654.844000", "161654.848000", "161714.782000", "161714.786000", "161714.789000", "161714.793000", "161714.804000", "161714.807000", "161714.811000", "161714.814000", "161714.818000", "161714.821000", "161714.824000", "161714.828000", "161714.831000", "161714.835000", "161714.838000", "161714.841000", "161714.845000", "161714.848000", "161714.852000", "161714.855000", "161714.859000", "161754.782000", "161754.786000", "161754.789000", "161754.793000", "161754.796000", "161754.800000", "161754.803000", "161754.807000", "161754.810000", "161754.813000", "161754.828000", "161754.832000", "161754.835000", "161754.839000", "161754.847000", "161754.851000", "161754.854000", "161754.857000", "161754.861000", "161754.864000", "161754.868000", "161754.871000", "161754.875000", "161754.878000", "161754.882000", "161754.885000", "161754.893000", "161754.897000", "161754.900000", "161754.903000", "161834.783000", "161834.787000", "161834.791000", "161834.794000", "161834.797000", "161834.801000", "161834.805000", "161834.808000", "161834.811000", "161834.815000", "161834.818000", "161834.822000", "161834.825000", "161834.829000", "161834.832000", "161834.836000", "161834.839000", "161834.842000", "161834.846000", "161834.849000", "161834.853000", "161834.856000", "161834.860000", "161834.863000", "161834.866000", "161834.870000", "161834.873000", "161914.782000", "161914.786000", "161914.790000", "161914.793000", "161914.797000", "161914.800000", "161914.803000", "161914.807000", "161914.811000", "161914.814000", "161914.817000", "161914.821000", "161914.824000", "161914.828000", "161914.831000", "161914.835000", "161914.838000", "161914.842000", "161914.845000", "161914.848000", "161914.852000", "161914.855000", "161914.859000", "161914.862000", "161914.865000", "161914.869000", "161914.872000", "161954.782000", "161954.786000", "161954.790000", "161954.793000", "161954.796000", "161954.800000", "161954.803000", "161954.807000", "161954.810000", "161954.814000", "161954.817000", "161954.829000", "161954.832000", "161954.835000", "161954.839000", "161954.842000", "161954.846000", "161954.849000", "161954.853000", "161954.856000", "161954.859000", "161954.863000", "161954.867000", "161954.870000", "161954.873000", "161954.890000", "162034.783000", "162034.787000", "162034.790000", "162034.794000", "162034.797000", "162034.801000", "162034.804000", "162034.808000", "162034.811000", "162034.814000", "162034.818000", "162034.822000", "162034.825000", "162034.828000", "162034.832000", "162034.835000", "162034.839000", "162034.842000", "162034.846000", "162034.849000", "162034.852000", "162034.856000", "162034.859000", "162034.863000", "162034.866000", "162034.869000", "162034.873000", "162114.783000", "162114.787000", "162114.790000", "162114.794000", "162114.798000", "162114.801000", "162114.805000", "162114.808000", "162114.812000", "162114.815000", "162114.818000", "162114.822000", "162114.825000", "162114.829000", "162114.832000", "162114.836000", "162114.839000", "162114.843000", "162114.846000", "162114.849000", "162114.853000", "162114.856000", "162114.860000", "162114.863000", "162114.867000", "162114.870000", "162114.874000", "162154.782000", "162154.786000", "162154.790000", "162154.793000", "162154.796000", "162154.800000", "162154.803000", "162154.807000", "162154.810000", "162154.814000", "162154.818000", "162154.821000", "162154.824000", "162154.828000", "162154.831000", "162154.835000", "162154.838000", "162154.842000", "162154.845000", "162154.849000", "162154.852000", "162154.855000", "162154.859000", "162154.862000", "162154.866000", "162154.869000", "162154.873000", "162234.782000", "162234.786000", "162234.790000", "162234.793000", "162234.797000", "162234.800000", "162234.803000", "162234.820000", "162234.823000", "162234.826000", "162234.830000", "162234.833000", "162234.837000", "162234.840000", "162234.844000", "162234.847000", "162234.851000", "162234.854000", "162234.857000", "162234.861000", "162234.864000", "162234.868000", "162234.871000", "162234.875000", "162234.878000", "162234.882000", "162234.885000", "162314.783000", "162314.787000", "162314.791000", "162314.794000", "162314.797000", "162314.801000", "162314.804000", "162314.808000", "162314.811000", "162314.815000", "162314.818000", "162314.822000", "162314.825000", "162314.828000", "162314.832000", "162314.835000", "162314.839000", "162314.842000", "162314.846000", "162314.849000", "162314.853000", "162314.856000", "162314.860000", "162314.863000", "162314.866000", "162314.870000", "162314.873000", "162354.782000", "162354.786000", "162354.790000", "162354.793000", "162354.797000", "162354.801000", "162354.805000", "162354.809000", "162354.812000", "162354.817000", "162354.820000", "162354.824000", "162354.828000", "162354.831000", "162354.835000", "162354.838000", "162354.842000", "162354.845000", "162354.848000", "162354.852000", "162354.856000", "162354.859000", "162354.862000", "162354.866000", "162354.869000", "162354.873000", "162414.782000", "162414.786000", "162414.790000", "162414.793000", "162414.797000", "162414.800000", "162414.803000", "162414.807000", "162414.810000", "162414.814000", "162414.819000", "162414.822000", "162414.826000", "162414.829000", "162454.782000", "162454.786000", "162454.790000", "162454.793000", "162454.814000", "162454.818000", "162454.821000", "162454.825000", "162454.828000", "162454.832000", "162454.835000", "162454.838000", "162454.842000", "162454.846000", "162454.849000", "162454.852000", "162454.856000", "162454.859000", "162454.863000", "162454.866000", "162454.870000", "162454.873000", "162454.877000", "162454.880000", "162454.884000", "162454.887000", "162454.891000", "162534.783000", "162534.787000", "162534.791000", "162534.794000", "162534.798000", "162534.801000", "162534.805000", "162534.808000", "162534.811000", "162534.815000", "162534.818000", "162534.822000", "162534.825000", "162534.829000", "162534.832000", "162534.836000", "162534.839000", "162534.843000", "162534.846000", "162534.850000", "162534.853000", "162534.856000", "162534.860000", "162534.863000", "162534.867000", "162534.870000", "162534.874000", "162614.782000", "162614.786000", "162614.790000", "162614.793000", "162614.797000", "162614.800000", "162614.804000", "162614.807000", "162614.811000", "162614.814000", "162614.818000", "162614.821000", "162614.825000", "162614.828000", "162614.832000", "162614.836000", "162614.839000", "162614.843000", "162614.847000", "162614.851000", "162614.855000", "162614.859000", "162614.862000", "162614.866000", "162614.870000", "162614.874000", "162627.878000", "162627.882000", "162627.885000", "162627.889000", "162627.892000", "162627.896000", "162627.899000", "162627.903000", "162627.906000"],
