{
  "AcquisitionMatrixPE": 104,
  "AcquisitionNumber": 1,
  "AcquisitionTime": "16:14:49.187500",
  "BandwidthPerPixelPhaseEncode": 17.17,
  "BaseResolution": 104,
  "BodyPartExamined": "BRAIN",
  "CoilCombinationMethod": "Sum of Squares",
  "ConsistencyInfo": "N4_VE11C_LATEST_20160120",
  "ConversionSoftware": "dcm2niix",
  "ConversionSoftwareVersion": "v1.0.20211006",
  "DerivedVendorReportedEchoSpacing": 0.000560011,
  "DeviceSerialNumber": "167006",
  "DwellTime": 2.1e-06,
  "EchoTime": 0.037,
  "EchoTime1": 0.037,
  "EchoTime2": 0.001,
  "EchoTrainLength": 104,
  "EffectiveEchoSpacing": 0.000560011,
  "FlipAngle": 52,
  "HeudiconvVersion": "0.11.3.post9+gc939bf8",
  "ImageComments": "Unaliased MB4/PE3/LB",
  "ImageOrientationPatientDICOM": [0.999141, 0.011202, 0.0398908, 0.012905, 0.830737, -0.556516],
  "ImageOrientationText": "Tra>Cor(-33.8)>Sag(2.3)",
  "ImageType": [
    "ORIGINAL",
    "PRIMARY",
    "P",
    "MB",
    "ND",
    "MOSAIC",
    "PHASE"
],
  "ImagingFrequency": 123.259,
  "InPlanePhaseEncodingDirectionDICOM": "COL",
  "InstitutionAddress": "Chemin Queen-Mary 4565,Montreal,District,CA,H3W 1W5",
  "InstitutionName": "IUGM",
  "InstitutionalDepartmentName": "Department",
  "MRAcquisitionType": "2D",
  "MagneticFieldStrength": 3,
  "Manufacturer": "Siemens",
  "ManufacturersModelName": "Prisma_fit",
  "MatrixCoilMode": "SENSE",
  "Modality": "MR",
  "MultibandAccelerationFactor": 4,
  "PartialFourier": 1,
  "PatientPosition": "HFS",
  "PercentPhaseFOV": 100,
  "PercentSampling": 100,
  "PhaseEncodingDirection": "j",
  "PhaseEncodingSteps": 104,
  "PhaseResolution": 1,
  "PixelBandwidth": 2290,
  "ProcedureStepDescription": "games^mariostars",
  "ProtocolName": "func_task-mariostars_run-01",
  "PulseSequenceDetails": "%CustomerSeq%\\cmrr_mbep2d_bold",
  "ReceiveCoilActiveElements": "HC1-7;NC1,2",
  "ReceiveCoilName": "HeadNeck_64",
  "ReconMatrixPE": 104,
  "RepetitionTime": 1.49,
  "SAR": 0.0449489,
  "ScanOptions": "FS",
  "ScanningSequence": "EP",
  "SequenceName": "epfid2d1_104",
  "SequenceVariant": "SK\\SS",
  "SeriesDescription": "func_task-mariostars_run-01",
  "SeriesNumber": 11,
  "ShimSetting": [626, -7173, -8873, 231, 37, -208, 11, 32],
  "SliceThickness": 2,
  "SliceTiming": [0, 0.785, 0.0975, 0.8825, 0.1975, 0.98, 0.295, 1.0775, 0.3925, 1.1775, 0.49, 1.275, 0.5875, 1.3725, 0.6875, 0, 0.785, 0.0975, 0.8825, 0.1975, 0.98, 0.295, 1.0775, 0.3925, 1.1775, 0.49, 1.275, 0.5875, 1.3725, 0.6875, 0, 0.785, 0.0975, 0.8825, 0.1975, 0.98, 0.295, 1.0775, 0.3925, 1.1775, 0.49, 1.275, 0.5875, 1.3725, 0.6875, 0, 0.785, 0.0975, 0.8825, 0.1975, 0.98, 0.295, 1.0775, 0.3925, 1.1775, 0.49, 1.275, 0.5875, 1.3725, 0.6875],
  "SoftwareVersions": "syngo MR E11",
  "SpacingBetweenSlices": 2,
  "StationName": "MRC35049",
  "TaskName": "mariostars",
  "TotalReadoutTime": 0.0576811,
  "TxRefAmp": 257.929,
  "WipMemBlock": "966676ad-1a1b-4838-8f47-9f3ec3a1c2a4||Sequence: R016 ve11c/master r/e634e98; Dec 19 2017 11:00:25 by eja",
  "dcmmeta_affine": [
    [-1.998282551765442, 0.025810090824961662, 0.07874573767185211, 104.29269409179688],
    [-0.022404000163078308, 1.6614736318588257, -1.113105297088623, -44.74911880493164],
    [0.0797816589474678, 1.1130316257476807, 1.6597576141357422, -104.9471206665039],
    [0.0, 0.0, 0.0, 1.0]
],
  "dcmmeta_reorient_transform": [
    [0.0, -1.0, 0.0, 103.0],
    [1.0, 0.0, 0.0, 0.0],
    [0.0, 0.0, 1.0, 0.0],
    [0.0, 0.0, 0.0, 1.0]
],
  "dcmmeta_shape": [104, 104, 60, 468],
  "dcmmeta_slice_dim": 2,
  "dcmmeta_version": 0.6,
  "global": {
    "const": {
      "AcquisitionMatrix": [104, 0, 0, 104],
      "AngioFlag": "N",
      "BitsAllocated": 16,
      "BitsStored": 16,
      "BodyPartExamined": "BRAIN",
      "Columns": 832,
      "EchoNumbers": 1,
      "EchoTime": 37.0,
      "EchoTrainLength": 104,
      "FlipAngle": 52.0,
      "HighBit": 15,
      "ImageOrientationPatient": [0.99914124968978, 0.01120200022907, 0.03989083051556, 0.01290504580058, 0.8307367972212, -0.5565157981006],
      "ImagePositionPatient": [-843.72083787915, -739.31410532701, 385.79811377783],
      "ImageType": [
        "ORIGINAL",
        "PRIMARY",
        "P",
        "MB",
        "ND",
        "MOSAIC"
],
      "ImagedNucleus": "1H",
      "ImagingFrequency": 123.258794,
      "InPlanePhaseEncodingDirection": "COL",
      "LargestImagePixelValue": 4095,
      "MRAcquisitionType": "2D",
      "MagneticFieldStrength": 3.0,
      "Manufacturer": "SIEMENS",
      "ManufacturerModelName": "Prisma_fit",
      "Modality": "MR",
      "NumberOfAverages": 1.0,
      "NumberOfPhaseEncodingSteps": 104,
      "PercentPhaseFieldOfView": 100.0,
      "PercentSampling": 100.0,
      "PerformedProcedureStepStartTime": "150814.065000",
      "PhotometricInterpretation": "MONOCHROME2",
      "PixelBandwidth": 2290.0,
      "PixelRepresentation": 0,
      "PixelSpacing": [2.0, 2.0],
      "ProtocolName": "func_task-mariostars_run-01",
      "RepetitionTime": 1490.0,
      "RescaleIntercept": -4096.0,
      "RescaleSlope": 2.0,
      "RescaleType": "US",
      "Rows": 832,
      "SAR": 0.04494885504475,
      "SamplesPerPixel": 1,
      "ScanOptions": "FS",
      "ScanningSequence": "EP",
      "SequenceName": "epfid2d1_104",
      "SequenceVariant": [
        "SK",
        "SS"
],
      "SeriesDescription": "func_task-mariostars_run-01",
      "SeriesNumber": 11,
      "SeriesTime": "161554.922000",
      "SliceLocation": -58.081846368394,
      "SliceThickness": 2.0,
      "SmallestImagePixelValue": 0,
      "SoftwareVersions": "syngo MR E11",
      "SpacingBetweenSlices": 1.9999999657095,
      "SpecificCharacterSet": "ISO_IR 100",
      "StudyID": "1",
      "StudyTime": "150814.002000",
      "TransmitCoilName": "Body",
      "VariableFlipAngleFlag": "N",
      "WindowCenterWidthExplanation": "Algo1",
      "dBdt": 0.0},
    "slices": {}
  },
  "time": {
    "samples": {
      "AcquisitionNumber": [1, 2, 3, 4, 5, 6, 7, 8, 9, 10, 11, 12, 13, 14, 15, 16, 17, 18, 19, 20, 21, 22, 23, 24, 25, 26, 27, 28, 29, 30, 31, 32, 33, 34, 35, 36, 37, 38, 39, 40, 41, 42, 43, 44, 45, 46, 47, 48, 49, 50, 51, 52, 53, 54, 55, 56, 57, 58, 59, 60, 61, 62, 63, 64, 65, 66, 67, 68, 69, 70, 71, 72, 73, 74, 75, 76, 77, 78, 79, 80, 81, 82, 83, 84, 85, 86, 87, 88, 89, 90, 91, 92, 93, 94, 95, 96, 97, 98, 99, 100, 101, 102, 103, 104, 105, 106, 107, 108, 109, 110, 111, 112, 113, 114, 115, 116, 117, 118, 119, 120, 121, 122, 123, 124, 125, 126, 127, 128, 129, 130, 131, 132, 133, 134, 135, 136, 137, 138, 139, 140, 141, 142, 143, 144, 145, 146, 147, 148, 149, 150, 151, 152, 153, 154, 155, 156, 157, 158, 159, 160, 161, 162, 163, 164, 165, 166, 167, 168, 169, 170, 171, 172, 173, 174, 175, 176, 177, 178, 179, 180, 181, 182, 183, 184, 185, 186, 187, 188, 189, 190, 191, 192, 193, 194, 195, 196, 197, 198, 199, 200, 201, 202, 203, 204, 205, 206, 207, 208, 209, 210, 211, 212, 213, 214, 215, 216, 217, 218, 219, 220, 221, 222, 223, 224, 225, 226, 227, 228, 229, 230, 231, 232, 233, 234, 235, 236, 237, 238, 239, 240, 241, 242, 243, 244, 245, 246, 247, 248, 249, 250, 251, 252, 253, 254, 255, 256, 257, 258, 259, 260, 261, 262, 263, 264, 265, 266, 267, 268, 269, 270, 271, 272, 273, 274, 275, 276, 277, 278, 279, 280, 281, 282, 283, 284, 285, 286, 287, 288, 289, 290, 291, 292, 293, 294, 295, 296, 297, 298, 299, 300, 301, 302, 303, 304, 305, 306, 307, 308, 309, 310, 311, 312, 313, 314, 315, 316, 317, 318, 319, 320, 321, 322, 323, 324, 325, 326, 327, 328, 329, 330, 331, 332, 333, 334, 335, 336, 337, 338, 339, 340, 341, 342, 343, 344, 345, 346, 347, 348, 349, 350, 351, 352, 353, 354, 355, 356, 357, 358, 359, 360, 361, 362, 363, 364, 365, 366, 367, 368, 369, 370, 371, 372, 373, 374, 375, 376, 377, 378, 379, 380, 381, 382, 383, 384, 385, 386, 387, 388, 389, 390, 391, 392, 393, 394, 395, 396, 397, 398, 399, 400, 401, 402, 403, 404, 405, 406, 407, 408, 409, 410, 411, 412, 413, 414, 415, 416, 417, 418, 419, 420, 421, 422, 423, 424, 425, 426, 427, 428, 429, 430, 431, 432, 433, 434, 435, 436, 437, 438, 439, 440, 441, 442, 443, 444, 445, 446, 447, 448, 449, 450, 451, 452, 453, 454, 455, 456, 457, 458, 459, 460, 461, 462, 463, 464, 465, 466, 467, 468],
      "AcquisitionTime": ["161449.187500", "161450.677500", "161452.167500", "161453.657500", "161455.147500", "161456.637500", "161458.127500", "161459.617500", "161501.107500", "161502.597500", "161504.087500", "161505.577500", "161507.067500", "161508.557500", "161510.047500", "161511.537500", "161513.027500", "161514.517500", "161516.007500", "161517.497500", "161518.987500", "161520.477500", "161521.967500", "161523.457500", "161524.947500", "161526.437500", "161527.927500", "161529.417500", "161530.907500", "161532.397500", "161533.887500", "161535.377500", "161536.867500", "161538.357500", "161539.847500", "161541.337500", "161542.827500", "161544.317500", "161545.807500", "161547.297500", "161548.787500", "161550.277500", "161551.767500", "161553.257500", "161554.747500", "161556.237500", "161557.727500", "161559.217500", "161600.707500", "161602.197500", "161603.687500", "161605.177500", "161606.667500", "161608.157500", "161609.647500", "161611.137500", "161612.627500", "161614.117500", "161615.607500", "161617.097500", "161618.587500", "161620.077500", "161621.567500", "161623.057500", "161624.547500", "161626.037500", "161627.527500", "161629.017500", "161630.507500", "161631.997500", "161633.487500", "161634.977500", "161636.467500", "161637.957500", "161639.447500", "161640.937500", "161642.427500", "161643.917500", "161645.407500", "161646.897500", "161648.387500", "161649.877500", "161651.367500", "161652.857500", "161654.347500", "161655.837500", "161657.327500", "161658.817500", "161700.307500", "161701.797500", "161703.287500", "161704.777500", "161706.267500", "161707.757500", "161709.247500", "161710.737500", "161712.227500", "161713.717500", "161715.207500", "161716.697500", "161718.187500", "161719.677500", "161721.167500", "161722.657500", "161724.147500", "161725.637500", "161727.127500", "161728.617500", "161730.107500", "161731.597500", "161733.087500", "161734.577500", "161736.067500", "161737.557500", "161739.047500", "161740.537500", "161742.027500", "161743.517500", "161745.007500", "161746.497500", "161747.987500", "161749.477500", "161750.967500", "161752.457500", "161753.947500", "161755.437500", "161756.927500", "161758.417500", "161759.907500", "161801.397500", "161802.887500", "161804.377500", "161805.867500", "161807.357500", "161808.847500", "161810.337500", "161811.827500", "161813.317500", "161814.807500", "161816.297500", "161817.787500", "161819.277500", "161820.767500", "161822.257500", "161823.747500", "161825.237500", "161826.727500", "161828.217500", "161829.707500", "161831.197500", "161832.687500", "161834.177500", "161835.667500", "161837.157500", "161838.647500", "161840.137500", "161841.627500", "161843.117500", "161844.607500", "161846.097500", "161847.587500", "161849.077500", "161850.567500", "161852.057500", "161853.547500", "161855.037500", "161856.527500", "161858.017500", "161859.507500", "161900.997500", "161902.487500", "161903.977500", "161905.467500", "161906.957500", "161908.447500", "161909.937500", "161911.427500", "161912.917500", "161914.407500", "161915.897500", "161917.387500", "161918.877500", "161920.367500", "161921.857500", "161923.347500", "161924.837500", "161926.327500", "161927.817500", "161929.307500", "161930.797500", "161932.287500", "161933.777500", "161935.267500", "161936.757500", "161938.247500", "161939.737500", "161941.227500", "161942.717500", "161944.207500", "161945.697500", "161947.187500", "161948.677500", "161950.167500", "161951.657500", "161953.147500", "161954.637500", "161956.127500", "161957.617500", "161959.107500", "162000.597500", "162002.087500", "162003.577500", "162005.067500", "162006.557500", "162008.047500", "162009.537500", "162011.027500", "162012.517500", "162014.007500", "162015.497500", "162016.987500", "162018.477500", "162019.967500", "162021.457500", "162022.947500", "162024.437500", "162025.927500", "162027.417500", "162028.907500", "162030.397500", "162031.887500", "162033.377500", "162034.867500", "162036.357500", "162037.847500", "162039.337500", "162040.827500", "162042.317500", "162043.807500", "162045.297500", "162046.787500", "162048.277500", "162049.767500", "162051.257500", "162052.747500", "162054.237500", "162055.727500", "162057.217500", "162058.707500", "162100.197500", "162101.687500", "162103.177500", "162104.667500", "162106.157500", "162107.647500", "162109.137500", "162110.627500", "162112.117500", "162113.607500", "162115.097500", "162116.587500", "162118.077500", "162119.567500", "162121.057500", "162122.547500", "162124.037500", "162125.527500", "162127.017500", "162128.507500", "162129.997500", "162131.487500", "162132.977500", "162134.467500", "162135.957500", "162137.447500", "162138.937500", "162140.427500", "162141.917500", "162143.407500", "162144.897500", "162146.387500", "162147.877500", "162149.367500", "162150.857500", "162152.347500", "162153.837500", "162155.327500", "162156.817500", "162158.307500", "162159.797500", "162201.287500", "162202.777500", "162204.267500", "162205.757500", "162207.247500", "162208.737500", "162210.227500", "162211.717500", "162213.207500", "162214.697500", "162216.187500", "162217.677500", "162219.167500", "162220.657500", "162222.147500", "162223.637500", "162225.127500", "162226.617500", "162228.107500", "162229.597500", "162231.087500", "162232.577500", "162234.067500", "162235.557500", "162237.047500", "162238.537500", "162240.027500", "162241.517500", "162243.007500", "162244.497500", "162245.987500", "162247.477500", "162248.967500", "162250.457500", "162251.947500", "162253.437500", "162254.927500", "162256.417500", "162257.907500", "162259.397500", "162300.887500", "162302.377500", "162303.867500", "162305.357500", "162306.847500", "162308.337500", "162309.827500", "162311.317500", "162312.807500", "162314.297500", "162315.787500", "162317.277500", "162318.767500", "162320.257500", "162321.747500", "162323.237500", "162324.727500", "162326.217500", "162327.707500", "162329.197500", "162330.687500", "162332.177500", "162333.667500", "162335.157500", "162336.647500", "162338.137500", "162339.627500", "162341.117500", "162342.607500", "162344.097500", "162345.587500", "162347.077500", "162348.567500", "162350.057500", "162351.547500", "162353.037500", "162354.527500", "162356.017500", "162357.507500", "162358.997500", "162400.487500", "162401.977500", "162403.467500", "162404.957500", "162406.447500", "162407.937500", "162409.427500", "162410.917500", "162412.407500", "162413.897500", "162415.387500", "162416.877500", "162418.367500", "162419.857500", "162421.347500", "162422.837500", "162424.327500", "162425.817500", "162427.307500", "162428.797500", "162430.287500", "162431.777500", "162433.267500", "162434.757500", "162436.247500", "162437.737500", "162439.227500", "162440.717500", "162442.207500", "162443.697500", "162445.187500", "162446.677500", "162448.167500", "162449.657500", "162451.147500", "162452.637500", "162454.127500", "162455.617500", "162457.107500", "162458.597500", "162500.087500", "162501.577500", "162503.067500", "162504.557500", "162506.047500", "162507.537500", "162509.027500", "162510.517500", "162512.007500", "162513.497500", "162514.987500", "162516.477500", "162517.967500", "162519.457500", "162520.947500", "162522.437500", "162523.927500", "162525.417500", "162526.907500", "162528.397500", "162529.887500", "162531.377500", "162532.867500", "162534.357500", "162535.847500", "162537.337500", "162538.827500", "162540.317500", "162541.807500", "162543.297500", "162544.787500", "162546.277500", "162547.767500", "162549.257500", "162550.747500", "162552.237500", "162553.727500", "162555.217500", "162556.707500", "162558.197500", "162559.687500", "162601.177500", "162602.667500", "162604.157500", "162605.647500", "162607.137500", "162608.627500", "162610.117500", "162611.607500", "162613.097500", "162614.587500", "162616.077500", "162617.567500", "162619.057500", "162620.547500", "162622.037500", "162623.527500", "162625.017500"],
      "ContentTime": ["161554.925000", "161554.927000", "161554.930000", "161554.933000", "161554.935000", "161554.938000", "161554.940000", "161554.943000", "161554.946000", "161554.948000", "161554.951000", "161554.954000", "161554.956000", "161614.905000", "161614.908000", "161614.910000", "161614.923000", "161614.926000", "161614.928000", "161614.931000", "161614.933000", "161614.940000", "161614.942000", "161614.945000", "161614.947000", "161614.950000", "161614.953000", "161614.955000", "161614.958000", "161614.960000", "161614.963000", "161614.966000", "161614.968000", "161634.904000", "161634.907000", "161634.909000", "161634.912000", "161634.915000", "161634.917000", "161634.920000", "161634.922000", "161634.925000", "161634.927000", "161634.930000", "161634.933000", "161634.935000", "161634.938000", "161634.940000", "161634.943000", "161634.946000", "161634.948000", "161634.956000", "161634.958000", "161654.897000", "161654.900000", "161654.903000", "161654.905000", "161654.908000", "161654.910000", "161654.913000", "161654.915000", "161654.918000", "161654.921000", "161654.923000", "161654.926000", "161654.928000", "161654.931000", "161654.934000", "161654.936000", "161654.939000", "161654.941000", "161654.944000", "161654.947000", "161714.902000", "161714.905000", "161714.907000", "161714.916000", "161714.919000", "161714.922000", "161714.924000", "161714.927000", "161714.929000", "161714.932000", "161714.935000", "161714.937000", "161714.940000", "161714.942000", "161714.945000", "161714.948000", "161714.950000", "161714.953000", "161714.955000", "161714.958000", "161714.960000", "161754.956000", "161754.959000", "161754.961000", "161754.964000", "161754.966000", "161754.969000", "161754.971000", "161754.974000", "161754.984000", "161754.986000", "161754.989000", "161754.991000", "161754.994000", "161754.997000", "161755.000000", "161755.003000", "161755.006000", "161755.008000", "161755.011000", "161755.013000", "161755.016000", "161755.019000", "161755.021000", "161755.024000", "161755.026000", "161755.029000", "161755.031000", "161755.034000", "161755.037000", "161755.039000", "161834.936000", "161834.938000", "161834.941000", "161834.944000", "161834.946000", "161834.949000", "161834.951000", "161834.954000", "161834.957000", "161834.959000", "161834.962000", "161834.965000", "161834.967000", "161834.970000", "161834.972000", "161834.975000", "161834.977000", "161834.980000", "161834.983000", "161834.985000", "161834.988000", "161834.991000", "161834.993000", "161834.996000", "161834.998000", "161835.002000", "161835.004000", "161914.925000", "161914.928000", "161914.930000", "161914.933000", "161914.935000", "161914.938000", "161914.941000", "161914.944000", "161914.946000", "161914.949000", "161914.951000", "161914.954000", "161914.956000", "161914.959000", "161914.962000", "161914.964000", "161914.967000", "161914.970000", "161914.972000", "161914.975000", "161914.977000", "161914.980000", "161914.983000", "161914.985000", "161914.988000", "161914.990000", "161914.993000", "161955.343000", "161955.346000", "161955.348000", "161955.351000", "161955.354000", "161955.356000", "161955.359000", "161955.361000", "161955.364000", "161955.366000", "161955.369000", "161955.372000", "161955.374000", "161955.377000", "161955.379000", "161955.382000", "161955.385000", "161955.387000", "161955.390000", "161955.392000", "161955.395000", "161955.397000", "161955.400000", "161955.403000", "161955.405000", "161955.408000", "162034.935000", "162034.938000", "162034.941000", "162034.943000", "162034.946000", "162034.948000", "162034.951000", "162034.959000", "162034.961000", "162034.964000", "162034.966000", "162034.969000", "162034.972000", "162034.974000", "162034.977000", "162034.979000", "162034.982000", "162034.985000", "162034.987000", "162034.990000", "162034.993000", "162034.995000", "162034.998000", "162035.001000", "162035.004000", "162035.007000", "162035.009000", "162114.914000", "162114.917000", "162114.919000", "162114.922000", "162114.925000", "162114.927000", "162114.930000", "162114.932000", "162114.935000", "162114.938000", "162114.940000", "162114.943000", "162114.945000", "162114.948000", "162114.951000", "162114.953000", "162114.956000", "162114.958000", "162114.961000", "162114.964000", "162114.966000", "162114.969000", "162114.971000", "162114.974000", "162114.977000", "162114.979000", "162114.982000", "162154.934000", "162154.936000", "162154.939000", "162154.942000", "162154.944000", "162154.947000", "162154.949000", "162154.952000", "162154.955000", "162154.957000", "162154.960000", "162154.962000", "162154.965000", "162154.967000", "162154.970000", "162154.973000", "162154.975000", "162154.978000", "162154.980000", "162154.983000", "162154.986000", "162154.988000", "162154.991000", "162154.994000", "162154.996000", "162155.000000", "162155.002000", "162234.930000", "162234.933000", "162234.935000", "162234.938000", "162234.941000", "162234.943000", "162234.946000", "162234.948000", "162234.951000", "162234.954000", "162234.956000", "162234.959000", "162234.962000", "162234.964000", "162234.967000", "162234.969000", "162234.972000", "162234.975000", "162234.977000", "162234.980000", "162234.982000", "162234.985000", "162234.987000", "162234.990000", "162234.993000", "162234.995000", "162234.998000", "162314.922000", "162314.925000", "162314.927000", "162314.930000", "162314.933000", "162314.935000", "162314.938000", "162314.941000", "162314.943000", "162314.946000", "162314.948000", "162314.951000", "162314.953000", "162314.956000", "162314.959000", "162314.961000", "162314.964000", "162314.966000", "162314.969000", "162314.972000", "162314.974000", "162314.977000", "162314.979000", "162314.982000", "162314.985000", "162314.987000", "162314.990000", "162354.924000", "162354.927000", "162354.932000", "162354.934000", "162354.937000", "162354.940000", "162354.942000", "162354.945000", "162354.947000", "162354.950000", "162354.953000", "162354.955000", "162354.958000", "162354.960000", "162354.963000", "162354.966000", "162354.968000", "162354.971000", "162354.974000", "162354.976000", "162354.979000", "162354.981000", "162354.984000", "162354.987000", "162354.989000", "162354.992000", "162414.865000", "162414.868000", "162414.870000", "162414.873000", "162414.876000", "162414.878000", "162414.881000", "162414.883000", "162414.886000", "162414.888000", "162414.891000", "162414.894000", "162414.896000", "162414.899000", "162454.948000", "162454.950000", "162454.953000", "162454.955000", "162454.958000", "162454.961000", "162454.963000", "162454.966000", "162454.969000", "162454.971000", "162454.974000", "162454.977000", "162454.979000", "162454.982000", "162454.985000", "162454.987000", "162454.990000", "162454.992000", "162454.995000", "162454.998000", "162455.001000", "162455.004000", "162455.006000", "162455.009000", "162455.012000", "162455.014000", "162455.017000", "162534.928000", "162534.931000", "162534.934000", "162534.936000", "162534.939000", "162534.941000", "162534.944000", "162534.947000", "162534.949000", "162534.952000", "162534.954000", "162534.957000", "162534.960000", "162534.962000", "162534.965000", "162534.968000", "162534.970000", "162534.973000", "162534.975000", "162534.978000", "162534.981000", "162534.983000", "162534.986000", "162534.988000", "162534.991000", "162534.994000", "162534.996000", "162614.942000", "162614.945000", "162614.952000", "162614.955000", "162614.957000", "162614.960000", "162614.963000", "162614.965000", "162614.968000", "162614.970000", "162614.973000", "162614.976000", "162614.978000", "162614.981000", "162614.983000", "162614.986000", "162614.989000", "162614.991000", "162614.994000", "162614.997000", "162615.000000", "162615.003000", "162615.006000", "162615.008000", "162615.011000", "162615.013000", "162627.936000", "162627.939000", "162627.941000", "162627.944000", "162627.947000", "162627.949000", "162627.952000", "162627.955000", "162627.957000"],
