{
  "AcquisitionMatrixPE": 104,
  "AcquisitionNumber": 1,
  "AcquisitionTime": "11:30:30.450000",
  "BandwidthPerPixelPhaseEncode": 17.17,
  "BaseResolution": 104,
  "BodyPartExamined": "BRAIN",
  "CoilCombinationMethod": "Sum of Squares",
  "ConsistencyInfo": "N4_VE11C_LATEST_20160120",
  "ConversionSoftware": "dcm2niix",
  "ConversionSoftwareVersion": "v1.0.20211006",
  "DerivedVendorReportedEchoSpacing": 0.000560011,
  "DeviceSerialNumber": "167006",
  "DwellTime": 2.1e-06,
  "EchoTime": 0.037,
  "EchoTime1": 0.037,
  "EchoTime2": 0.001,
  "EchoTrainLength": 104,
  "EffectiveEchoSpacing": 0.000560011,
  "FlipAngle": 52,
  "HeudiconvVersion": "0.11.3.post9+gc939bf8",
  "ImageComments": "Unaliased MB4/PE3/LB",
  "ImageOrientationPatientDICOM": [0.999352, -0.0030118, 0.0358818, 0.0221549, 0.836978, -0.546788],
  "ImageOrientationText": "Tra>Cor(-33.2)>Sag(1.6)",
  "ImageType": [
    "ORIGINAL",
    "PRIMARY",
    "P",
    "MB",
    "ND",
    "MOSAIC",
    "PHASE"
],
  "ImagingFrequency": 123.259,
  "InPlanePhaseEncodingDirectionDICOM": "COL",
  "InstitutionAddress": "Chemin Queen-Mary 4565,Montreal,District,CA,H3W 1W5",
  "InstitutionName": "IUGM",
  "InstitutionalDepartmentName": "Department",
  "MRAcquisitionType": "2D",
  "MagneticFieldStrength": 3,
  "Manufacturer": "Siemens",
  "ManufacturersModelName": "Prisma_fit",
  "MatrixCoilMode": "SENSE",
  "Modality": "MR",
  "MultibandAccelerationFactor": 4,
  "PartialFourier": 1,
  "PatientPosition": "HFS",
  "PercentPhaseFOV": 100,
  "PercentSampling": 100,
  "PhaseEncodingDirection": "j",
  "PhaseEncodingSteps": 104,
  "PhaseResolution": 1,
  "PixelBandwidth": 2290,
  "ProcedureStepDescription": "games^mariostars",
  "ProtocolName": "func_task-mariostars_run-02",
  "PulseSequenceDetails": "%CustomerSeq%\\cmrr_mbep2d_bold",
  "ReceiveCoilActiveElements": "HC1-7;NC1,2",
  "ReceiveCoilName": "HeadNeck_64",
  "ReconMatrixPE": 104,
  "RepetitionTime": 1.49,
  "SAR": 0.0738877,
  "ScanOptions": "FS",
  "ScanningSequence": "EP",
  "SequenceName": "epfid2d1_104",
  "SequenceVariant": "SK\\SS",
  "SeriesDescription": "func_task-mariostars_run-02",
  "SeriesNumber": 15,
  "ShimSetting": [621, -7190, -8871, 226, 20, -252, -21, 6],
  "SliceThickness": 2,
  "SliceTiming": [0, 0.785, 0.1, 0.8825, 0.1975, 0.98, 0.295, 1.08, 0.3925, 1.1775, 0.49, 1.275, 0.59, 1.3725, 0.6875, 0, 0.785, 0.1, 0.8825, 0.1975, 0.98, 0.295, 1.08, 0.3925, 1.1775, 0.49, 1.275, 0.59, 1.3725, 0.6875, 0, 0.785, 0.1, 0.8825, 0.1975, 0.98, 0.295, 1.08, 0.3925, 1.1775, 0.49, 1.275, 0.59, 1.3725, 0.6875, 0, 0.785, 0.1, 0.8825, 0.1975, 0.98, 0.295, 1.08, 0.3925, 1.1775, 0.49, 1.275, 0.59, 1.3725, 0.6875],
  "SoftwareVersions": "syngo MR E11",
  "SpacingBetweenSlices": 2,
  "StationName": "MRC35049",
  "TaskName": "mariostars",
  "TotalReadoutTime": 0.0576811,
  "TxRefAmp": 303.165,
  "WipMemBlock": "c4552eda-432a-433e-b0bc-d969a83f3a7d||Sequence: R017 ve11c/master r/75a17815+; Jun 28 2022 16:32:11 by eja",
  "dcmmeta_affine": [
    [-1.9987030029296875, 0.04430985823273659, 0.056770917028188705, 103.39282989501953],
    [0.006023601163178682, 1.6739554405212402, -1.0944572687149048, -47.52943801879883],
    [0.07176361978054047, 1.0935765504837036, 1.6730034351348877, -91.90687561035156],
    [0.0, 0.0, 0.0, 1.0]
],
  "dcmmeta_reorient_transform": [
    [0.0, -1.0, 0.0, 103.0],
    [1.0, 0.0, 0.0, 0.0],
    [0.0, 0.0, 1.0, 0.0],
    [0.0, 0.0, 0.0, 1.0]
],
  "dcmmeta_shape": [104, 104, 60, 453],
  "dcmmeta_slice_dim": 2,
  "dcmmeta_version": 0.6,
  "global": {
    "const": {
      "AcquisitionMatrix": [104, 0, 0, 104],
      "AngioFlag": "N",
      "BitsAllocated": 16,
      "BitsStored": 16,
      "BodyPartExamined": "BRAIN",
      "Columns": 832,
      "EchoNumbers": 1,
      "EchoTime": 37.0,
      "EchoTrainLength": 104,
      "FlipAngle": 52.0,
      "HighBit": 15,
      "ImageOrientationPatient": [0.9993515021758, -0.0030118005468, 0.03588180815447, 0.02215492911707, 0.83697774853657, -0.5467882657579],
      "ImagePositionPatient": [-851.61342990004, -732.01519012031, 392.67140554462],
      "ImageType": [
        "ORIGINAL",
        "PRIMARY",
        "P",
        "MB",
        "ND",
        "MOSAIC"
],
      "ImagedNucleus": "1H",
      "ImagingFrequency": 123.258789,
      "InPlanePhaseEncodingDirection": "COL",
      "LargestImagePixelValue": 4095,
      "MRAcquisitionType": "2D",
      "MagneticFieldStrength": 3.0,
      "Manufacturer": "SIEMENS",
      "ManufacturerModelName": "Prisma_fit",
      "Modality": "MR",
      "NumberOfAverages": 1.0,
      "NumberOfPhaseEncodingSteps": 104,
      "PercentPhaseFieldOfView": 100.0,
      "PercentSampling": 100.0,
      "PerformedProcedureStepStartTime": "111356.149000",
      "PhotometricInterpretation": "MONOCHROME2",
      "PixelBandwidth": 2290.0,
      "PixelRepresentation": 0,
      "PixelSpacing": [2.0, 2.0],
      "ProtocolName": "func_task-mariostars_run-02",
      "RepetitionTime": 1490.0,
      "RescaleIntercept": -4096.0,
      "RescaleSlope": 2.0,
      "RescaleType": "US",
      "Rows": 832,
      "SAR": 0.07388767209021,
      "SamplesPerPixel": 1,
      "ScanOptions": "FS",
      "ScanningSequence": "EP",
      "SequenceName": "epfid2d1_104",
      "SequenceVariant": [
        "SK",
        "SS"
],
      "SeriesDescription": "func_task-mariostars_run-02",
      "SeriesNumber": 15,
      "SeriesTime": "113141.903000",
      "SliceLocation": -47.935938326221,
      "SliceThickness": 2.0,
      "SmallestImagePixelValue": 0,
      "SoftwareVersions": "syngo MR E11",
      "SpacingBetweenSlices": 2.0000000410596,
      "SpecificCharacterSet": "ISO_IR 100",
      "StudyID": "1",
      "StudyTime": "111356.071000",
      "TransmitCoilName": "Body",
      "VariableFlipAngleFlag": "N",
      "WindowCenterWidthExplanation": "Algo1",
      "dBdt": 0.0},
    "slices": {}
  },
  "time": {
    "samples": {
      "AcquisitionNumber": [1, 2, 3, 4, 5, 6, 7, 8, 9, 10, 11, 12, 13, 14, 15, 16, 17, 18, 19, 20, 21, 22, 23, 24, 25, 26, 27, 28, 29, 30, 31, 32, 33, 34, 35, 36, 37, 38, 39, 40, 41, 42, 43, 44, 45, 46, 47, 48, 49, 50, 51, 52, 53, 54, 55, 56, 57, 58, 59, 60, 61, 62, 63, 64, 65, 66, 67, 68, 69, 70, 71, 72, 73, 74, 75, 76, 77, 78, 79, 80, 81, 82, 83, 84, 85, 86, 87, 88, 89, 90, 91, 92, 93, 94, 95, 96, 97, 98, 99, 100, 101, 102, 103, 104, 105, 106, 107, 108, 109, 110, 111, 112, 113, 114, 115, 116, 117, 118, 119, 120, 121, 122, 123, 124, 125, 126, 127, 128, 129, 130, 131, 132, 133, 134, 135, 136, 137, 138, 139, 140, 141, 142, 143, 144, 145, 146, 147, 148, 149, 150, 151, 152, 153, 154, 155, 156, 157, 158, 159, 160, 161, 162, 163, 164, 165, 166, 167, 168, 169, 170, 171, 172, 173, 174, 175, 176, 177, 178, 179, 180, 181, 182, 183, 184, 185, 186, 187, 188, 189, 190, 191, 192, 193, 194, 195, 196, 197, 198, 199, 200, 201, 202, 203, 204, 205, 206, 207, 208, 209, 210, 211, 212, 213, 214, 215, 216, 217, 218, 219, 220, 221, 222, 223, 224, 225, 226, 227, 228, 229, 230, 231, 232, 233, 234, 235, 236, 237, 238, 239, 240, 241, 242, 243, 244, 245, 246, 247, 248, 249, 250, 251, 252, 253, 254, 255, 256, 257, 258, 259, 260, 261, 262, 263, 264, 265, 266, 267, 268, 269, 270, 271, 272, 273, 274, 275, 276, 277, 278, 279, 280, 281, 282, 283, 284, 285, 286, 287, 288, 289, 290, 291, 292, 293, 294, 295, 296, 297, 298, 299, 300, 301, 302, 303, 304, 305, 306, 307, 308, 309, 310, 311, 312, 313, 314, 315, 316, 317, 318, 319, 320, 321, 322, 323, 324, 325, 326, 327, 328, 329, 330, 331, 332, 333, 334, 335, 336, 337, 338, 339, 340, 341, 342, 343, 344, 345, 346, 347, 348, 349, 350, 351, 352, 353, 354, 355, 356, 357, 358, 359, 360, 361, 362, 363, 364, 365, 366, 367, 368, 369, 370, 371, 372, 373, 374, 375, 376, 377, 378, 379, 380, 381, 382, 383, 384, 385, 386, 387, 388, 389, 390, 391, 392, 393, 394, 395, 396, 397, 398, 399, 400, 401, 402, 403, 404, 405, 406, 407, 408, 409, 410, 411, 412, 413, 414, 415, 416, 417, 418, 419, 420, 421, 422, 423, 424, 425, 426, 427, 428, 429, 430, 431, 432, 433, 434, 435, 436, 437, 438, 439, 440, 441, 442, 443, 444, 445, 446, 447, 448, 449, 450, 451, 452, 453],
      "AcquisitionTime": ["113030.450000", "113031.940000", "113033.430000", "113034.920000", "113036.410000", "113037.900000", "113039.390000", "113040.880000", "113042.370000", "113043.860000", "113045.350000", "113046.840000", "113048.330000", "113049.820000", "113051.310000", "113052.800000", "113054.290000", "113055.780000", "113057.270000", "113058.760000", "113100.250000", "113101.740000", "113103.230000", "113104.720000", "113106.210000", "113107.700000", "113109.190000", "113110.680000", "113112.170000", "113113.660000", "113115.150000", "113116.640000", "113118.130000", "113119.620000", "113121.110000", "113122.600000", "113124.090000", "113125.580000", "113127.070000", "113128.560000", "113130.050000", "113131.540000", "113133.030000", "113134.520000", "113136.010000", "113137.500000", "113138.990000", "113140.480000", "113141.970000", "113143.460000", "113144.950000", "113146.440000", "113147.930000", "113149.420000", "113150.910000", "113152.400000", "113153.890000", "113155.380000", "113156.870000", "113158.360000", "113159.850000", "113201.340000", "113202.830000", "113204.320000", "113205.810000", "113207.300000", "113208.790000", "113210.280000", "113211.770000", "113213.260000", "113214.750000", "113216.240000", "113217.730000", "113219.220000", "113220.710000", "113222.200000", "113223.690000", "113225.180000", "113226.670000", "113228.160000", "113229.650000", "113231.140000", "113232.630000", "113234.120000", "113235.610000", "113237.100000", "113238.590000", "113240.080000", "113241.570000", "113243.060000", "113244.550000", "113246.040000", "113247.530000", "113249.020000", "113250.510000", "113252.000000", "113253.490000", "113254.980000", "113256.470000", "113257.960000", "113259.450000", "113300.940000", "113302.430000", "113303.920000", "113305.410000", "113306.900000", "113308.390000", "113309.880000", "113311.370000", "113312.860000", "113314.350000", "113315.840000", "113317.330000", "113318.820000", "113320.310000", "113321.800000", "113323.290000", "113324.780000", "113326.270000", "113327.760000", "113329.250000", "113330.740000", "113332.230000", "113333.720000", "113335.210000", "113336.700000", "113338.190000", "113339.680000", "113341.170000", "113342.660000", "113344.150000", "113345.640000", "113347.130000", "113348.620000", "113350.110000", "113351.600000", "113353.090000", "113354.580000", "113356.070000", "113357.560000", "113359.050000", "113400.540000", "113402.030000", "113403.520000", "113405.010000", "113406.500000", "113407.990000", "113409.480000", "113410.970000", "113412.460000", "113413.950000", "113415.440000", "113416.930000", "113418.420000", "113419.910000", "113421.400000", "113422.890000", "113424.380000", "113425.870000", "113427.360000", "113428.850000", "113430.340000", "113431.830000", "113433.320000", "113434.810000", "113436.300000", "113437.790000", "113439.280000", "113440.770000", "113442.260000", "113443.750000", "113445.240000", "113446.730000", "113448.220000", "113449.710000", "113451.200000", "113452.690000", "113454.180000", "113455.670000", "113457.160000", "113458.650000", "113500.140000", "113501.630000", "113503.120000", "113504.610000", "113506.100000", "113507.590000", "113509.080000", "113510.570000", "113512.060000", "113513.550000", "113515.040000", "113516.530000", "113518.020000", "113519.510000", "113521.000000", "113522.490000", "113523.980000", "113525.470000", "113526.960000", "113528.450000", "113529.940000", "113531.430000", "113532.920000", "113534.410000", "113535.900000", "113537.390000", "113538.880000", "113540.370000", "113541.860000", "113543.350000", "113544.840000", "113546.330000", "113547.820000", "113549.310000", "113550.800000", "113552.290000", "113553.780000", "113555.270000", "113556.760000", "113558.250000", "113559.740000", "113601.230000", "113602.720000", "113604.210000", "113605.700000", "113607.190000", "113608.680000", "113610.170000", "113611.660000", "113613.150000", "113614.640000", "113616.130000", "113617.620000", "113619.110000", "113620.600000", "113622.090000", "113623.580000", "113625.070000", "113626.560000", "113628.050000", "113629.540000", "113631.030000", "113632.520000", "113634.010000", "113635.500000", "113636.990000", "113638.480000", "113639.970000", "113641.460000", "113642.950000", "113644.440000", "113645.930000", "113647.420000", "113648.910000", "113650.400000", "113651.890000", "113653.380000", "113654.870000", "113656.360000", "113657.850000", "113659.340000", "113700.830000", "113702.320000", "113703.810000", "113705.300000", "113706.790000", "113708.280000", "113709.770000", "113711.260000", "113712.750000", "113714.240000", "113715.730000", "113717.220000", "113718.710000", "113720.200000", "113721.690000", "113723.180000", "113724.670000", "113726.160000", "113727.650000", "113729.140000", "113730.630000", "113732.120000", "113733.610000", "113735.100000", "113736.590000", "113738.080000", "113739.570000", "113741.060000", "113742.550000", "113744.040000", "113745.530000", "113747.020000", "113748.510000", "113750.000000", "113751.490000", "113752.980000", "113754.470000", "113755.960000", "113757.450000", "113758.940000", "113800.430000", "113801.920000", "113803.410000", "113804.900000", "113806.390000", "113807.880000", "113809.370000", "113810.860000", "113812.350000", "113813.840000", "113815.330000", "113816.820000", "113818.310000", "113819.800000", "113821.290000", "113822.780000", "113824.270000", "113825.760000", "113827.250000", "113828.740000", "113830.230000", "113831.720000", "113833.210000", "113834.700000", "113836.190000", "113837.680000", "113839.170000", "113840.660000", "113842.150000", "113843.640000", "113845.130000", "113846.620000", "113848.110000", "113849.600000", "113851.090000", "113852.580000", "113854.070000", "113855.560000", "113857.050000", "113858.540000", "113900.030000", "113901.520000", "113903.010000", "113904.500000", "113905.990000", "113907.480000", "113908.970000", "113910.460000", "113911.950000", "113913.440000", "113914.930000", "113916.420000", "113917.910000", "113919.400000", "113920.890000", "113922.380000", "113923.870000", "113925.360000", "113926.850000", "113928.340000", "113929.830000", "113931.320000", "113932.810000", "113934.300000", "113935.790000", "113937.280000", "113938.770000", "113940.260000", "113941.750000", "113943.240000", "113944.730000", "113946.220000", "113947.710000", "113949.200000", "113950.690000", "113952.180000", "113953.670000", "113955.160000", "113956.650000", "113958.140000", "113959.630000", "114001.120000", "114002.610000", "114004.100000", "114005.590000", "114007.080000", "114008.570000", "114010.060000", "114011.550000", "114013.040000", "114014.530000", "114016.020000", "114017.510000", "114019.000000", "114020.490000", "114021.980000", "114023.470000", "114024.960000", "114026.450000", "114027.940000", "114029.430000", "114030.920000", "114032.410000", "114033.900000", "114035.390000", "114036.880000", "114038.370000", "114039.860000", "114041.350000", "114042.840000", "114044.330000", "114045.820000", "114047.310000", "114048.800000", "114050.290000", "114051.780000", "114053.270000", "114054.760000", "114056.250000", "114057.740000", "114059.230000", "114100.720000", "114102.210000", "114103.700000", "114105.190000", "114106.680000", "114108.170000", "114109.660000", "114111.150000", "114112.640000", "114114.130000", "114115.620000", "114117.110000", "114118.600000", "114120.090000", "114121.580000", "114123.070000", "114124.560000", "114126.050000", "114127.540000", "114129.030000", "114130.520000", "114132.010000", "114133.500000", "114134.990000", "114136.480000", "114137.970000", "114139.460000", "114140.950000", "114142.440000", "114143.930000"],
      "ContentTime": ["113141.905000", "113141.908000", "113141.911000", "113141.913000", "113141.916000", "113141.918000", "113141.921000", "113141.923000", "113141.926000", "113141.928000", "113141.931000", "113141.933000", "113141.936000", "113141.938000", "113141.941000", "113141.943000", "113141.946000", "113141.948000", "113141.951000", "113141.953000", "113201.914000", "113201.917000", "113201.920000", "113201.922000", "113201.925000", "113201.927000", "113201.930000", "113201.932000", "113201.935000", "113201.937000", "113201.940000", "113201.942000", "113201.945000", "113201.947000", "113201.950000", "113201.952000", "113201.955000", "113201.957000", "113201.960000", "113201.962000", "113221.886000", "113221.888000", "113221.891000", "113221.893000", "113221.896000", "113221.898000", "113221.901000", "113221.904000", "113221.906000", "113221.909000", "113221.911000", "113221.914000", "113221.916000", "113221.919000", "113221.921000", "113221.924000", "113221.926000", "113221.929000", "113221.931000", "113221.934000", "113221.936000", "113241.873000", "113241.876000", "113241.879000", "113241.881000", "113241.884000", "113241.886000", "113241.889000", "113241.891000", "113241.894000", "113241.896000", "113241.899000", "113241.901000", "113241.904000", "113241.906000", "113241.909000", "113241.911000", "113241.914000", "113241.916000", "113241.919000", "113241.921000", "113301.895000", "113301.898000", "113301.901000", "113301.903000", "113301.906000", "113301.908000", "113301.911000", "113301.913000", "113301.916000", "113301.918000", "113301.921000", "113301.923000", "113301.926000", "113301.928000", "113301.931000", "113301.933000", "113301.936000", "113301.938000", "113301.941000", "113301.943000", "113341.920000", "113341.923000", "113341.925000", "113341.928000", "113341.930000", "113341.933000", "113341.935000", "113341.938000", "113341.940000", "113341.943000", "113341.945000", "113341.948000", "113341.950000", "113341.953000", "113341.955000", "113341.958000", "113341.960000", "113341.973000", "113341.976000", "113341.978000", "113341.981000", "113341.983000", "113341.986000", "113341.988000", "113341.991000", "113341.993000", "113341.996000", "113422.361000", "113422.364000", "113422.367000", "113422.369000", "113422.372000", "113422.374000", "113422.377000", "113422.379000", "113422.382000", "113422.384000", "113422.387000", "113422.389000", "113422.392000", "113422.394000", "113422.397000", "113422.399000", "113422.402000", "113422.404000", "113422.407000", "113422.409000", "113422.412000", "113422.414000", "113422.417000", "113422.419000", "113422.422000", "113422.424000", "113422.427000", "113501.913000", "113501.916000", "113501.918000", "113501.921000", "113501.923000", "113501.933000", "113501.936000", "113501.938000", "113501.941000", "113501.943000", "113501.946000", "113501.948000", "113501.951000", "113501.953000", "113501.956000", "113501.958000", "113501.961000", "113501.963000", "113501.966000", "113501.968000", "113501.971000", "113501.973000", "113501.976000", "113501.978000", "113501.981000", "113501.983000", "113541.932000", "113541.935000", "113541.937000", "113541.940000", "113541.942000", "113541.945000", "113541.947000", "113541.950000", "113541.952000", "113541.955000", "113541.957000", "113541.971000", "113541.973000", "113541.976000", "113541.978000", "113541.981000", "113541.983000", "113541.986000", "113541.988000", "113541.991000", "113541.993000", "113541.996000", "113541.998000", "113542.002000", "113542.005000", "113542.007000", "113542.010000", "113622.190000", "113622.193000", "113622.195000", "113622.198000", "113622.200000", "113622.203000", "113622.205000", "113622.208000", "113622.210000", "113622.213000", "113622.215000", "113622.218000", "113622.220000", "113622.223000", "113622.225000", "113622.228000", "113622.231000", "113622.233000", "113622.236000", "113622.238000", "113622.241000", "113622.243000", "113622.246000", "113622.249000", "113622.251000", "113622.254000", "113622.256000", "113701.919000", "113701.922000", "113701.925000", "113701.927000", "113701.930000", "113701.932000", "113701.935000", "113701.937000", "113701.940000", "113701.942000", "113701.945000", "113701.947000", "113701.950000", "113701.952000", "113701.955000", "113701.957000", "113701.960000", "113701.962000", "113701.965000", "113701.968000", "113701.970000", "113701.973000", "113701.975000", "113701.978000", "113701.980000", "113701.983000", "113701.985000", "113741.932000", "113741.935000", "113741.937000", "113741.940000", "113741.942000", "113741.945000", "113741.947000", "113741.950000", "113741.952000", "113741.955000", "113741.957000", "113741.960000", "113741.963000", "113741.965000", "113741.968000", "113741.970000", "113741.973000", "113741.975000", "113741.978000", "113741.980000", "113741.983000", "113741.985000", "113741.988000", "113741.990000", "113741.993000", "113741.995000", "113741.998000", "113821.923000", "113821.926000", "113821.929000", "113821.931000", "113821.934000", "113821.936000", "113821.939000", "113821.941000", "113821.944000", "113821.946000", "113821.949000", "113821.951000", "113821.954000", "113821.956000", "113821.959000", "113821.961000", "113821.964000", "113821.966000", "113821.969000", "113821.971000", "113821.974000", "113821.976000", "113821.979000", "113821.981000", "113821.984000", "113821.986000", "113821.989000", "113901.914000", "113901.917000", "113901.919000", "113901.922000", "113901.925000", "113901.927000", "113901.930000", "113901.932000", "113901.935000", "113901.937000", "113901.940000", "113901.942000", "113901.945000", "113901.947000", "113901.950000", "113901.952000", "113901.955000", "113901.957000", "113901.960000", "113901.962000", "113901.965000", "113901.967000", "113901.970000", "113901.972000", "113901.975000", "113901.977000", "113901.980000", "113941.913000", "113941.916000", "113941.920000", "113941.924000", "113941.927000", "113941.930000", "113941.932000", "113941.936000", "113941.938000", "113941.941000", "113941.944000", "113941.946000", "113941.949000", "113941.951000", "113941.954000", "113941.958000", "113941.960000", "113941.963000", "113941.965000", "113941.968000", "113941.970000", "113941.973000", "113941.975000", "113941.978000", "113941.980000", "113941.983000", "114021.920000", "114021.922000", "114021.925000", "114021.928000", "114021.930000", "114021.933000", "114021.935000", "114021.938000", "114021.940000", "114021.943000", "114021.945000", "114021.948000", "114021.950000", "114021.953000", "114021.955000", "114021.958000", "114021.960000", "114021.963000", "114021.965000", "114021.968000", "114021.970000", "114021.973000", "114021.975000", "114021.978000", "114021.980000", "114021.983000", "114021.985000", "114101.916000", "114101.919000", "114101.922000", "114101.924000", "114101.927000", "114101.929000", "114101.932000", "114101.934000", "114101.937000", "114101.939000", "114101.942000", "114101.944000", "114101.947000", "114101.949000", "114101.952000", "114101.954000", "114101.957000", "114101.959000", "114101.962000", "114101.965000", "114101.967000", "114101.969000", "114101.972000", "114101.975000", "114101.977000", "114101.980000", "114101.982000", "114141.931000", "114141.934000", "114141.937000", "114141.939000", "114141.942000", "114141.944000", "114141.947000", "114141.949000", "114141.952000", "114141.954000", "114141.957000", "114141.959000", "114141.962000", "114141.964000", "114141.967000", "114141.969000", "114141.972000", "114141.974000", "114141.977000", "114141.979000", "114141.982000", "114141.985000", "114141.987000", "114141.990000", "114141.992000", "114141.995000", "114141.997000", "114146.842000", "114146.845000", "114146.847000"],
