{
  "AcquisitionMatrixPE": 104,
  "AcquisitionNumber": 1,
  "AcquisitionTime": "15:59:54.080000",
  "BandwidthPerPixelPhaseEncode": 17.17,
  "BaseResolution": 104,
  "BodyPartExamined": "BRAIN",
  "CoilCombinationMethod": "Sum of Squares",
  "ConsistencyInfo": "N4_VE11C_LATEST_20160120",
  "ConversionSoftware": "dcm2niix",
  "ConversionSoftwareVersion": "v1.0.20211006",
  "DerivedVendorReportedEchoSpacing": 0.000560011,
  "DeviceSerialNumber": "167006",
  "DwellTime": 2.1e-06,
  "EchoTime": 0.037,
  "EchoTime1": 0.037,
  "EchoTime2": 0.001,
  "EchoTrainLength": 104,
  "EffectiveEchoSpacing": 0.000560011,
  "FlipAngle": 52,
  "HeudiconvVersion": "0.11.3.post9+gc939bf8",
  "ImageComments": "Unaliased MB4/PE3/LB",
  "ImageOrientationPatientDICOM": [0.999545, -0.0293842, -0.00675938, 0.0253011, 0.939338, -0.34206],
  "ImageOrientationText": "Tra>Cor(-20.0)>Sag(-0.9)",
  "ImageType": [
    "ORIGINAL",
    "PRIMARY",
    "P",
    "MB",
    "ND",
    "MOSAIC",
    "PHASE"
],
  "ImagingFrequency": 123.259,
  "InPlanePhaseEncodingDirectionDICOM": "COL",
  "InstitutionAddress": "Chemin Queen-Mary 4565,Montreal,District,CA,H3W 1W5",
  "InstitutionName": "IUGM",
  "InstitutionalDepartmentName": "Department",
  "MRAcquisitionType": "2D",
  "MagneticFieldStrength": 3,
  "Manufacturer": "Siemens",
  "ManufacturersModelName": "Prisma_fit",
  "MatrixCoilMode": "SENSE",
  "Modality": "MR",
  "MultibandAccelerationFactor": 4,
  "PartialFourier": 1,
  "PatientPosition": "HFS",
  "PercentPhaseFOV": 100,
  "PercentSampling": 100,
  "PhaseEncodingDirection": "j",
  "PhaseEncodingSteps": 104,
  "PhaseResolution": 1,
  "PixelBandwidth": 2290,
  "ProcedureStepDescription": "games^mariostars",
  "ProtocolName": "func_task-mariostars_run-03",
  "PulseSequenceDetails": "%CustomerSeq%\\cmrr_mbep2d_bold",
  "ReceiveCoilActiveElements": "HC1-7;NC1,2",
  "ReceiveCoilName": "HeadNeck_64",
  "ReconMatrixPE": 104,
  "RepetitionTime": 1.49,
  "SAR": 0.0635038,
  "ScanOptions": "FS",
  "ScanningSequence": "EP",
  "SequenceName": "epfid2d1_104",
  "SequenceVariant": "SK\\SS",
  "SeriesDescription": "func_task-mariostars_run-03",
  "SeriesNumber": 18,
  "ShimSetting": [617, -7249, -8822, 524, -4, -214, -108, -13],
  "SliceThickness": 2,
  "SliceTiming": [0, 0.785, 0.1, 0.8825, 0.1975, 0.98, 0.295, 1.08, 0.3925, 1.1775, 0.49, 1.275, 0.59, 1.3725, 0.6875, 0, 0.785, 0.1, 0.8825, 0.1975, 0.98, 0.295, 1.08, 0.3925, 1.1775, 0.49, 1.275, 0.59, 1.3725, 0.6875, 0, 0.785, 0.1, 0.8825, 0.1975, 0.98, 0.295, 1.08, 0.3925, 1.1775, 0.49, 1.275, 0.59, 1.3725, 0.6875, 0, 0.785, 0.1, 0.8825, 0.1975, 0.98, 0.295, 1.08, 0.3925, 1.1775, 0.49, 1.275, 0.59, 1.3725, 0.6875],
  "SoftwareVersions": "syngo MR E11",
  "SpacingBetweenSlices": 2,
  "StationName": "MRC35049",
  "TaskName": "mariostars",
  "TotalReadoutTime": 0.0576811,
  "TxRefAmp": 258.391,
  "WipMemBlock": "ba50cbdc-9c2f-49c6-a9bb-0b3f6ebda885||Sequence: R017 ve11c/master r/75a17815+; Jun 28 2022 16:32:11 by eja",
  "dcmmeta_affine": [
    [-1.9990906715393066, 0.05060223862528801, -0.03280100226402283, 104.32746887207031],
    [0.058768488466739655, 1.8786752223968506, -0.6834659576416016, -66.94488525390625],
    [-0.013518761843442917, 0.6841190457344055, 1.8793079853057861, -65.62821960449219],
    [0.0, 0.0, 0.0, 1.0]
],
  "dcmmeta_reorient_transform": [
    [0.0, -1.0, 0.0, 103.0],
    [1.0, 0.0, 0.0, 0.0],
    [0.0, 0.0, 1.0, 0.0],
    [0.0, 0.0, 0.0, 1.0]
],
  "dcmmeta_shape": [104, 104, 60, 435],
  "dcmmeta_slice_dim": 2,
  "dcmmeta_version": 0.6,
  "global": {
    "const": {
      "AcquisitionMatrix": [104, 0, 0, 104],
      "AngioFlag": "N",
      "BitsAllocated": 16,
      "BitsStored": 16,
      "BodyPartExamined": "BRAIN",
      "Columns": 832,
      "EchoNumbers": 1,
      "EchoTime": 37.0,
      "EchoTrainLength": 104,
      "FlipAngle": 52.0,
      "HighBit": 15,
      "ImageOrientationPatient": [0.99954533509353, -0.0293842451375, -0.0067593809232, 0.02530111959732, 0.9393376097414, -0.3420595098407],
      "ImagePositionPatient": [-855.62771919584, -789.00471467024, 258.77619315311],
      "ImageType": [
        "ORIGINAL",
        "PRIMARY",
        "P",
        "MB",
        "ND",
        "MOSAIC"
],
      "ImagedNucleus": "1H",
      "ImagingFrequency": 123.258784,
      "InPlanePhaseEncodingDirection": "COL",
      "LargestImagePixelValue": 4095,
      "MRAcquisitionType": "2D",
      "MagneticFieldStrength": 3.0,
      "Manufacturer": "SIEMENS",
      "ManufacturerModelName": "Prisma_fit",
      "Modality": "MR",
      "NumberOfAverages": 1.0,
      "NumberOfPhaseEncodingSteps": 104,
      "PercentPhaseFieldOfView": 100.0,
      "PercentSampling": 100.0,
      "PerformedProcedureStepStartTime": "144706.079000",
      "PhotometricInterpretation": "MONOCHROME2",
      "PixelBandwidth": 2290.0,
      "PixelRepresentation": 0,
      "PixelSpacing": [2.0, 2.0],
      "ProtocolName": "func_task-mariostars_run-03",
      "RepetitionTime": 1490.0,
      "RescaleIntercept": -4096.0,
      "RescaleSlope": 2.0,
      "RescaleType": "US",
      "Rows": 832,
      "SAR": 0.06350380781003,
      "SamplesPerPixel": 1,
      "ScanOptions": "FS",
      "ScanningSequence": "EP",
      "SequenceName": "epfid2d1_104",
      "SequenceVariant": [
        "SK",
        "SS"
],
      "SeriesDescription": "func_task-mariostars_run-03",
      "SeriesNumber": 18,
      "SeriesTime": "160113.485000",
      "SliceLocation": -40.501566066893,
      "SliceThickness": 2.0,
      "SmallestImagePixelValue": 0,
      "SoftwareVersions": "syngo MR E11",
      "SpacingBetweenSlices": 2.0000000598681,
      "SpecificCharacterSet": "ISO_IR 100",
      "StudyID": "1",
      "StudyTime": "144705.998000",
      "TransmitCoilName": "Body",
      "VariableFlipAngleFlag": "N",
      "WindowCenterWidthExplanation": "Algo1",
      "dBdt": 0.0},
    "slices": {}
  },
  "time": {
    "samples": {
      "AcquisitionNumber": [1, 2, 3, 4, 5, 6, 7, 8, 9, 10, 11, 12, 13, 14, 15, 16, 17, 18, 19, 20, 21, 22, 23, 24, 25, 26, 27, 28, 29, 30, 31, 32, 33, 34, 35, 36, 37, 38, 39, 40, 41, 42, 43, 44, 45, 46, 47, 48, 49, 50, 51, 52, 53, 54, 55, 56, 57, 58, 59, 60, 61, 62, 63, 64, 65, 66, 67, 68, 69, 70, 71, 72, 73, 74, 75, 76, 77, 78, 79, 80, 81, 82, 83, 84, 85, 86, 87, 88, 89, 90, 91, 92, 93, 94, 95, 96, 97, 98, 99, 100, 101, 102, 103, 104, 105, 106, 107, 108, 109, 110, 111, 112, 113, 114, 115, 116, 117, 118, 119, 120, 121, 122, 123, 124, 125, 126, 127, 128, 129, 130, 131, 132, 133, 134, 135, 136, 137, 138, 139, 140, 141, 142, 143, 144, 145, 146, 147, 148, 149, 150, 151, 152, 153, 154, 155, 156, 157, 158, 159, 160, 161, 162, 163, 164, 165, 166, 167, 168, 169, 170, 171, 172, 173, 174, 175, 176, 177, 178, 179, 180, 181, 182, 183, 184, 185, 186, 187, 188, 189, 190, 191, 192, 193, 194, 195, 196, 197, 198, 199, 200, 201, 202, 203, 204, 205, 206, 207, 208, 209, 210, 211, 212, 213, 214, 215, 216, 217, 218, 219, 220, 221, 222, 223, 224, 225, 226, 227, 228, 229, 230, 231, 232, 233, 234, 235, 236, 237, 238, 239, 240, 241, 242, 243, 244, 245, 246, 247, 248, 249, 250, 251, 252, 253, 254, 255, 256, 257, 258, 259, 260, 261, 262, 263, 264, 265, 266, 267, 268, 269, 270, 271, 272, 273, 274, 275, 276, 277, 278, 279, 280, 281, 282, 283, 284, 285, 286, 287, 288, 289, 290, 291, 292, 293, 294, 295, 296, 297, 298, 299, 300, 301, 302, 303, 304, 305, 306, 307, 308, 309, 310, 311, 312, 313, 314, 315, 316, 317, 318, 319, 320, 321, 322, 323, 324, 325, 326, 327, 328, 329, 330, 331, 332, 333, 334, 335, 336, 337, 338, 339, 340, 341, 342, 343, 344, 345, 346, 347, 348, 349, 350, 351, 352, 353, 354, 355, 356, 357, 358, 359, 360, 361, 362, 363, 364, 365, 366, 367, 368, 369, 370, 371, 372, 373, 374, 375, 376, 377, 378, 379, 380, 381, 382, 383, 384, 385, 386, 387, 388, 389, 390, 391, 392, 393, 394, 395, 396, 397, 398, 399, 400, 401, 402, 403, 404, 405, 406, 407, 408, 409, 410, 411, 412, 413, 414, 415, 416, 417, 418, 419, 420, 421, 422, 423, 424, 425, 426, 427, 428, 429, 430, 431, 432, 433, 434, 435],
      "AcquisitionTime": ["155954.080000", "155955.570000", "155957.060000", "155958.550000", "160000.040000", "160001.530000", "160003.020000", "160004.510000", "160006.000000", "160007.490000", "160008.980000", "160010.470000", "160011.960000", "160013.450000", "160014.940000", "160016.430000", "160017.920000", "160019.410000", "160020.900000", "160022.390000", "160023.880000", "160025.370000", "160026.860000", "160028.350000", "160029.840000", "160031.330000", "160032.820000", "160034.310000", "160035.800000", "160037.290000", "160038.780000", "160040.270000", "160041.760000", "160043.250000", "160044.740000", "160046.230000", "160047.720000", "160049.210000", "160050.700000", "160052.190000", "160053.680000", "160055.170000", "160056.660000", "160058.150000", "160059.640000", "160101.130000", "160102.620000", "160104.110000", "160105.600000", "160107.090000", "160108.580000", "160110.070000", "160111.560000", "160113.050000", "160114.540000", "160116.030000", "160117.520000", "160119.010000", "160120.500000", "160121.990000", "160123.480000", "160124.970000", "160126.460000", "160127.950000", "160129.440000", "160130.930000", "160132.420000", "160133.910000", "160135.400000", "160136.890000", "160138.380000", "160139.870000", "160141.360000", "160142.850000", "160144.340000", "160145.830000", "160147.320000", "160148.810000", "160150.300000", "160151.790000", "160153.280000", "160154.770000", "160156.260000", "160157.750000", "160159.240000", "160200.730000", "160202.220000", "160203.710000", "160205.200000", "160206.690000", "160208.180000", "160209.670000", "160211.160000", "160212.650000", "160214.140000", "160215.630000", "160217.120000", "160218.610000", "160220.100000", "160221.590000", "160223.080000", "160224.570000", "160226.060000", "160227.550000", "160229.040000", "160230.530000", "160232.020000", "160233.510000", "160235.000000", "160236.490000", "160237.980000", "160239.470000", "160240.960000", "160242.450000", "160243.940000", "160245.430000", "160246.920000", "160248.410000", "160249.900000", "160251.390000", "160252.880000", "160254.370000", "160255.860000", "160257.350000", "160258.840000", "160300.330000", "160301.820000", "160303.310000", "160304.800000", "160306.290000", "160307.780000", "160309.270000", "160310.760000", "160312.250000", "160313.740000", "160315.230000", "160316.720000", "160318.210000", "160319.700000", "160321.190000", "160322.680000", "160324.170000", "160325.660000", "160327.150000", "160328.640000", "160330.130000", "160331.620000", "160333.110000", "160334.600000", "160336.090000", "160337.580000", "160339.070000", "160340.560000", "160342.050000", "160343.540000", "160345.030000", "160346.520000", "160348.010000", "160349.500000", "160350.990000", "160352.480000", "160353.970000", "160355.460000", "160356.950000", "160358.440000", "160359.930000", "160401.420000", "160402.910000", "160404.400000", "160405.890000", "160407.380000", "160408.870000", "160410.360000", "160411.850000", "160413.340000", "160414.830000", "160416.320000", "160417.810000", "160419.300000", "160420.790000", "160422.280000", "160423.770000", "160425.260000", "160426.750000", "160428.240000", "160429.730000", "160431.220000", "160432.710000", "160434.200000", "160435.690000", "160437.180000", "160438.670000", "160440.160000", "160441.650000", "160443.140000", "160444.630000", "160446.120000", "160447.610000", "160449.100000", "160450.590000", "160452.080000", "160453.570000", "160455.060000", "160456.550000", "160458.040000", "160459.530000", "160501.020000", "160502.510000", "160504.000000", "160505.490000", "160506.980000", "160508.470000", "160509.960000", "160511.450000", "160512.940000", "160514.430000", "160515.920000", "160517.410000", "160518.900000", "160520.390000", "160521.880000", "160523.370000", "160524.860000", "160526.350000", "160527.840000", "160529.330000", "160530.820000", "160532.310000", "160533.800000", "160535.290000", "160536.780000", "160538.270000", "160539.760000", "160541.250000", "160542.740000", "160544.230000", "160545.720000", "160547.210000", "160548.700000", "160550.190000", "160551.680000", "160553.170000", "160554.660000", "160556.150000", "160557.640000", "160559.130000", "160600.620000", "160602.110000", "160603.600000", "160605.090000", "160606.580000", "160608.070000", "160609.560000", "160611.050000", "160612.540000", "160614.030000", "160615.520000", "160617.010000", "160618.500000", "160619.990000", "160621.480000", "160622.970000", "160624.460000", "160625.950000", "160627.440000", "160628.930000", "160630.420000", "160631.910000", "160633.400000", "160634.890000", "160636.380000", "160637.870000", "160639.360000", "160640.850000", "160642.340000", "160643.830000", "160645.320000", "160646.810000", "160648.300000", "160649.790000", "160651.280000", "160652.770000", "160654.260000", "160655.750000", "160657.240000", "160658.730000", "160700.220000", "160701.710000", "160703.200000", "160704.690000", "160706.180000", "160707.670000", "160709.160000", "160710.650000", "160712.140000", "160713.630000", "160715.120000", "160716.610000", "160718.100000", "160719.590000", "160721.080000", "160722.570000", "160724.060000", "160725.550000", "160727.040000", "160728.530000", "160730.020000", "160731.510000", "160733.000000", "160734.490000", "160735.980000", "160737.470000", "160738.960000", "160740.450000", "160741.940000", "160743.430000", "160744.920000", "160746.410000", "160747.900000", "160749.390000", "160750.880000", "160752.370000", "160753.860000", "160755.350000", "160756.840000", "160758.330000", "160759.820000", "160801.310000", "160802.800000", "160804.290000", "160805.780000", "160807.270000", "160808.760000", "160810.250000", "160811.740000", "160813.230000", "160814.720000", "160816.210000", "160817.700000", "160819.190000", "160820.680000", "160822.170000", "160823.660000", "160825.150000", "160826.640000", "160828.130000", "160829.620000", "160831.110000", "160832.600000", "160834.090000", "160835.580000", "160837.070000", "160838.560000", "160840.050000", "160841.540000", "160843.030000", "160844.520000", "160846.010000", "160847.500000", "160848.990000", "160850.480000", "160851.970000", "160853.460000", "160854.950000", "160856.440000", "160857.930000", "160859.420000", "160900.910000", "160902.400000", "160903.890000", "160905.380000", "160906.870000", "160908.360000", "160909.850000", "160911.340000", "160912.830000", "160914.320000", "160915.810000", "160917.300000", "160918.790000", "160920.280000", "160921.770000", "160923.260000", "160924.750000", "160926.240000", "160927.730000", "160929.220000", "160930.710000", "160932.200000", "160933.690000", "160935.180000", "160936.670000", "160938.160000", "160939.650000", "160941.140000", "160942.630000", "160944.120000", "160945.610000", "160947.100000", "160948.590000", "160950.080000", "160951.570000", "160953.060000", "160954.550000", "160956.040000", "160957.530000", "160959.020000", "161000.510000", "161002.000000", "161003.490000", "161004.980000", "161006.470000", "161007.960000", "161009.450000", "161010.940000", "161012.430000", "161013.920000", "161015.410000", "161016.900000", "161018.390000", "161019.880000", "161021.370000", "161022.860000", "161024.350000", "161025.840000", "161027.330000", "161028.820000", "161030.310000", "161031.800000", "161033.290000", "161034.780000", "161036.270000", "161037.760000", "161039.250000", "161040.740000"],
      "ContentTime": ["160113.487000", "160113.490000", "160113.493000", "160113.495000", "160113.498000", "160113.500000", "160113.503000", "160113.506000", "160113.508000", "160113.511000", "160113.513000", "160113.516000", "160113.518000", "160113.521000", "160113.533000", "160113.536000", "160113.539000", "160113.541000", "160113.544000", "160113.546000", "160113.550000", "160113.553000", "160113.556000", "160113.559000", "160113.562000", "160113.565000", "160113.567000", "160113.570000", "160113.573000", "160113.576000", "160113.579000", "160133.433000", "160133.436000", "160133.438000", "160133.441000", "160133.444000", "160133.446000", "160133.449000", "160133.452000", "160133.454000", "160133.457000", "160133.459000", "160133.462000", "160133.464000", "160133.467000", "160133.470000", "160133.472000", "160133.475000", "160133.482000", "160133.486000", "160133.488000", "160153.741000", "160153.744000", "160153.746000", "160153.749000", "160153.751000", "160153.754000", "160153.757000", "160153.759000", "160153.762000", "160153.764000", "160153.767000", "160153.770000", "160153.772000", "160153.775000", "160153.777000", "160153.780000", "160153.782000", "160153.785000", "160153.788000", "160153.790000", "160153.793000", "160213.415000", "160213.418000", "160213.420000", "160213.423000", "160213.425000", "160213.428000", "160213.431000", "160213.433000", "160213.436000", "160213.438000", "160213.441000", "160213.443000", "160213.450000", "160213.452000", "160213.455000", "160213.458000", "160213.460000", "160213.463000", "160213.465000", "160213.468000", "160253.445000", "160253.448000", "160253.451000", "160253.453000", "160253.456000", "160253.458000", "160253.461000", "160253.464000", "160253.466000", "160253.469000", "160253.471000", "160253.474000", "160253.476000", "160253.479000", "160253.482000", "160253.484000", "160253.487000", "160253.489000", "160253.492000", "160253.494000", "160253.497000", "160253.499000", "160253.502000", "160253.505000", "160253.507000", "160253.510000", "160253.512000", "160253.515000", "160333.447000", "160333.450000", "160333.453000", "160333.455000", "160333.458000", "160333.460000", "160333.463000", "160333.465000", "160333.468000", "160333.471000", "160333.473000", "160333.476000", "160333.479000", "160333.481000", "160333.484000", "160333.486000", "160333.489000", "160333.492000", "160333.494000", "160333.497000", "160333.499000", "160333.502000", "160333.504000", "160333.507000", "160333.510000", "160333.512000", "160413.455000", "160413.458000", "160413.461000", "160413.464000", "160413.466000", "160413.469000", "160413.471000", "160413.474000", "160413.476000", "160413.479000", "160413.482000", "160413.484000", "160413.487000", "160413.489000", "160413.492000", "160413.495000", "160413.497000", "160413.501000", "160413.503000", "160413.506000", "160413.509000", "160413.511000", "160413.514000", "160413.516000", "160413.519000", "160413.522000", "160413.524000", "160453.446000", "160453.448000", "160453.451000", "160453.454000", "160453.456000", "160453.459000", "160453.461000", "160453.464000", "160453.466000", "160453.469000", "160453.472000", "160453.474000", "160453.477000", "160453.479000", "160453.482000", "160453.485000", "160453.487000", "160453.490000", "160453.492000", "160453.495000", "160453.497000", "160453.500000", "160453.503000", "160453.505000", "160453.508000", "160453.510000", "160453.513000", "160533.436000", "160533.439000", "160533.442000", "160533.444000", "160533.447000", "160533.449000", "160533.452000", "160533.455000", "160533.457000", "160533.460000", "160533.462000", "160533.465000", "160533.467000", "160533.470000", "160533.473000", "160533.475000", "160533.478000", "160533.480000", "160533.483000", "160533.486000", "160533.488000", "160533.491000", "160533.493000", "160533.496000", "160533.506000", "160533.509000", "160533.511000", "160613.431000", "160613.434000", "160613.437000", "160613.439000", "160613.442000", "160613.445000", "160613.447000", "160613.450000", "160613.452000", "160613.455000", "160613.457000", "160613.460000", "160613.463000", "160613.465000", "160613.468000", "160613.470000", "160613.473000", "160613.476000", "160613.478000", "160613.481000", "160613.483000", "160613.486000", "160613.489000", "160613.491000", "160613.494000", "160613.496000", "160613.499000", "160653.435000", "160653.437000", "160653.440000", "160653.443000", "160653.445000", "160653.448000", "160653.450000", "160653.461000", "160653.463000", "160653.466000", "160653.468000", "160653.471000", "160653.473000", "160653.476000", "160653.479000", "160653.481000", "160653.484000", "160653.486000", "160653.489000", "160653.492000", "160653.494000", "160653.497000", "160653.499000", "160653.502000", "160653.504000", "160653.507000", "160653.509000", "160733.431000", "160733.434000", "160733.440000", "160733.443000", "160733.445000", "160733.448000", "160733.451000", "160733.453000", "160733.456000", "160733.458000", "160733.461000", "160733.464000", "160733.466000", "160733.469000", "160733.471000", "160733.474000", "160733.476000", "160733.479000", "160733.482000", "160733.484000", "160733.487000", "160733.489000", "160733.492000", "160733.494000", "160733.497000", "160733.499000", "160813.451000", "160813.453000", "160813.456000", "160813.459000", "160813.461000", "160813.464000", "160813.466000", "160813.469000", "160813.472000", "160813.474000", "160813.477000", "160813.479000", "160813.482000", "160813.485000", "160813.487000", "160813.490000", "160813.492000", "160813.495000", "160813.498000", "160813.500000", "160813.503000", "160813.505000", "160813.508000", "160813.511000", "160813.514000", "160813.518000", "160813.520000", "160853.425000", "160853.428000", "160853.430000", "160853.433000", "160853.436000", "160853.438000", "160853.441000", "160853.444000", "160853.446000", "160853.449000", "160853.451000", "160853.454000", "160853.457000", "160853.459000", "160853.462000", "160853.464000", "160853.467000", "160853.469000", "160853.472000", "160853.475000", "160853.477000", "160853.480000", "160853.482000", "160853.485000", "160853.487000", "160853.490000", "160853.492000", "160933.450000", "160933.453000", "160933.456000", "160933.458000", "160933.461000", "160933.464000", "160933.466000", "160933.469000", "160933.471000", "160933.474000", "160933.476000", "160933.479000", "160933.481000", "160933.484000", "160933.487000", "160933.489000", "160933.492000", "160933.501000", "160933.504000", "160933.506000", "160933.509000", "160933.511000", "160933.514000", "160933.516000", "160933.519000", "160933.522000", "160933.524000", "161013.441000", "161013.444000", "161013.447000", "161013.450000", "161013.452000", "161013.455000", "161013.457000", "161013.460000", "161013.463000", "161013.465000", "161013.468000", "161013.470000", "161013.473000", "161013.476000", "161013.478000", "161013.481000", "161013.483000", "161013.486000", "161013.488000", "161013.491000", "161013.494000", "161013.496000", "161013.499000", "161013.502000", "161013.504000", "161013.507000", "161013.509000", "161043.152000", "161043.162000", "161043.165000", "161043.167000", "161043.170000", "161043.173000", "161043.176000", "161043.178000", "161043.181000", "161043.184000", "161043.187000", "161043.189000", "161043.192000", "161043.195000", "161043.198000", "161043.200000", "161043.203000", "161043.206000", "161043.208000", "161043.211000"],
