{
  "AcquisitionMatrixPE": 104,
  "AcquisitionNumber": 1,
  "AcquisitionTime": "15:45:24.420000",
  "BandwidthPerPixelPhaseEncode": 17.17,
  "BaseResolution": 104,
  "BodyPartExamined": "BRAIN",
  "CoilCombinationMethod": "Sum of Squares",
  "ConsistencyInfo": "N4_VE11C_LATEST_20160120",
  "ConversionSoftware": "dcm2niix",
  "ConversionSoftwareVersion": "v1.0.20211006",
  "DerivedVendorReportedEchoSpacing": 0.000560011,
  "DeviceSerialNumber": "167006",
  "DwellTime": 2.1e-06,
  "EchoTime": 0.037,
  "EchoTrainLength": 104,
  "EffectiveEchoSpacing": 0.000560011,
  "FlipAngle": 52,
  "HeudiconvVersion": "0.11.3.post9+gc939bf8",
  "ImageComments": "Unaliased MB4/PE3/LB",
  "ImageOrientationPatientDICOM": [0.999545, -0.0293842, -0.00675938, 0.0253011, 0.939338, -0.34206],
  "ImageOrientationText": "Tra>Cor(-20.0)>Sag(-0.9)",
  "ImageType": [
    "ORIGINAL",
    "PRIMARY",
    "M",
    "MB",
    "ND",
    "MOSAIC"
],
  "ImagingFrequency": 123.259,
  "InPlanePhaseEncodingDirectionDICOM": "COL",
  "InstitutionAddress": "Chemin Queen-Mary 4565,Montreal,District,CA,H3W 1W5",
  "InstitutionName": "IUGM",
  "InstitutionalDepartmentName": "Department",
  "MRAcquisitionType": "2D",
  "MagneticFieldStrength": 3,
  "Manufacturer": "Siemens",
  "ManufacturersModelName": "Prisma_fit",
  "MatrixCoilMode": "SENSE",
  "Modality": "MR",
  "MultibandAccelerationFactor": 4,
  "PartialFourier": 1,
  "PatientPosition": "HFS",
  "PercentPhaseFOV": 100,
  "PercentSampling": 100,
  "PhaseEncodingDirection": "j",
  "PhaseEncodingSteps": 104,
  "PhaseResolution": 1,
  "PixelBandwidth": 2290,
  "ProcedureStepDescription": "games^mariostars",
  "ProtocolName": "func_task-mariostars_run-02",
  "PulseSequenceDetails": "%CustomerSeq%\\cmrr_mbep2d_bold",
  "ReceiveCoilActiveElements": "HC1-7;NC1,2",
  "ReceiveCoilName": "HeadNeck_64",
  "ReconMatrixPE": 104,
  "RepetitionTime": 1.49,
  "SAR": 0.0635038,
  "ScanOptions": "FS",
  "ScanningSequence": "EP",
  "SequenceName": "epfid2d1_104",
  "SequenceVariant": "SK\\SS",
  "SeriesDescription": "func_task-mariostars_run-02",
  "SeriesNumber": 14,
  "ShimSetting": [617, -7249, -8822, 524, -4, -214, -108, -13],
  "SliceThickness": 2,
  "SliceTiming": [0, 0.785, 0.0975, 0.8825, 0.195, 0.98, 0.295, 1.0775, 0.3925, 1.175, 0.49, 1.275, 0.5875, 1.3725, 0.685, 0, 0.785, 0.0975, 0.8825, 0.195, 0.98, 0.295, 1.0775, 0.3925, 1.175, 0.49, 1.275, 0.5875, 1.3725, 0.685, 0, 0.785, 0.0975, 0.8825, 0.195, 0.98, 0.295, 1.0775, 0.3925, 1.175, 0.49, 1.275, 0.5875, 1.3725, 0.685, 0, 0.785, 0.0975, 0.8825, 0.195, 0.98, 0.295, 1.0775, 0.3925, 1.175, 0.49, 1.275, 0.5875, 1.3725, 0.685],
  "SoftwareVersions": "syngo MR E11",
  "SpacingBetweenSlices": 2,
  "StationName": "MRC35049",
  "TaskName": "mariostars",
  "TotalReadoutTime": 0.0576811,
  "TxRefAmp": 258.391,
  "WipMemBlock": "3d4d7791-854b-4543-83fc-8c9bebccff34||Sequence: R017 ve11c/master r/75a17815+; Jun 28 2022 16:32:11 by eja",
  "dcmmeta_affine": [
    [-1.9990906715393066, 0.05060223862528801, -0.03280100226402283, 104.32746887207031],
    [0.058768488466739655, 1.8786752223968506, -0.6834659576416016, -66.94488525390625],
    [-0.013518761843442917, 0.6841190457344055, 1.8793079853057861, -65.62821960449219],
    [0.0, 0.0, 0.0, 1.0]
],
  "dcmmeta_reorient_transform": [
    [0.0, -1.0, 0.0, 103.0],
    [1.0, 0.0, 0.0, 0.0],
    [0.0, 0.0, 1.0, 0.0],
    [0.0, 0.0, 0.0, 1.0]
],
  "dcmmeta_shape": [104, 104, 60, 422],
  "dcmmeta_slice_dim": 2,
  "dcmmeta_version": 0.6,
  "global": {
    "const": {
      "AcquisitionMatrix": [104, 0, 0, 104],
      "AngioFlag": "N",
      "BitsAllocated": 16,
      "BitsStored": 16,
      "BodyPartExamined": "BRAIN",
      "Columns": 832,
      "EchoNumbers": 1,
      "EchoTime": 37.0,
      "EchoTrainLength": 104,
      "FlipAngle": 52.0,
      "HighBit": 15,
      "ImageOrientationPatient": [0.99954533509353, -0.0293842451375, -0.0067593809232, 0.02530111959732, 0.9393376097414, -0.3420595098407],
      "ImagePositionPatient": [-855.62771919584, -789.00471467024, 258.77619315311],
      "ImageType": [
        "ORIGINAL",
        "PRIMARY",
        "M",
        "MB",
        "ND",
        "MOSAIC"
],
      "ImagedNucleus": "1H",
      "ImagingFrequency": 123.258777,
      "InPlanePhaseEncodingDirection": "COL",
      "MRAcquisitionType": "2D",
      "MagneticFieldStrength": 3.0,
      "Manufacturer": "SIEMENS",
      "ManufacturerModelName": "Prisma_fit",
      "Modality": "MR",
      "NumberOfAverages": 1.0,
      "NumberOfPhaseEncodingSteps": 104,
      "PercentPhaseFieldOfView": 100.0,
      "PercentSampling": 100.0,
      "PerformedProcedureStepStartTime": "144706.079000",
      "PhotometricInterpretation": "MONOCHROME2",
      "PixelBandwidth": 2290.0,
      "PixelRepresentation": 0,
      "PixelSpacing": [2.0, 2.0],
      "ProtocolName": "func_task-mariostars_run-02",
      "RepetitionTime": 1490.0,
      "Rows": 832,
      "SAR": 0.06350380781003,
      "SamplesPerPixel": 1,
      "ScanOptions": "FS",
      "ScanningSequence": "EP",
      "SequenceName": "epfid2d1_104",
      "SequenceVariant": [
        "SK",
        "SS"
],
      "SeriesDescription": "func_task-mariostars_run-02",
      "SeriesNumber": 14,
      "SeriesTime": "154634.024000",
      "SliceLocation": -40.501566066893,
      "SliceThickness": 2.0,
      "SmallestImagePixelValue": 0,
      "SoftwareVersions": "syngo MR E11",
      "SpacingBetweenSlices": 2.0000000598681,
      "SpecificCharacterSet": "ISO_IR 100",
      "StudyID": "1",
      "StudyTime": "144705.998000",
      "TransmitCoilName": "Body",
      "VariableFlipAngleFlag": "N",
      "WindowCenterWidthExplanation": "Algo1",
      "dBdt": 0.0},
    "slices": {}
  },
  "time": {
    "samples": {
      "AcquisitionNumber": [1, 2, 3, 4, 5, 6, 7, 8, 9, 10, 11, 12, 13, 14, 15, 16, 17, 18, 19, 20, 21, 22, 23, 24, 25, 26, 27, 28, 29, 30, 31, 32, 33, 34, 35, 36, 37, 38, 39, 40, 41, 42, 43, 44, 45, 46, 47, 48, 49, 50, 51, 52, 53, 54, 55, 56, 57, 58, 59, 60, 61, 62, 63, 64, 65, 66, 67, 68, 69, 70, 71, 72, 73, 74, 75, 76, 77, 78, 79, 80, 81, 82, 83, 84, 85, 86, 87, 88, 89, 90, 91, 92, 93, 94, 95, 96, 97, 98, 99, 100, 101, 102, 103, 104, 105, 106, 107, 108, 109, 110, 111, 112, 113, 114, 115, 116, 117, 118, 119, 120, 121, 122, 123, 124, 125, 126, 127, 128, 129, 130, 131, 132, 133, 134, 135, 136, 137, 138, 139, 140, 141, 142, 143, 144, 145, 146, 147, 148, 149, 150, 151, 152, 153, 154, 155, 156, 157, 158, 159, 160, 161, 162, 163, 164, 165, 166, 167, 168, 169, 170, 171, 172, 173, 174, 175, 176, 177, 178, 179, 180, 181, 182, 183, 184, 185, 186, 187, 188, 189, 190, 191, 192, 193, 194, 195, 196, 197, 198, 199, 200, 201, 202, 203, 204, 205, 206, 207, 208, 209, 210, 211, 212, 213, 214, 215, 216, 217, 218, 219, 220, 221, 222, 223, 224, 225, 226, 227, 228, 229, 230, 231, 232, 233, 234, 235, 236, 237, 238, 239, 240, 241, 242, 243, 244, 245, 246, 247, 248, 249, 250, 251, 252, 253, 254, 255, 256, 257, 258, 259, 260, 261, 262, 263, 264, 265, 266, 267, 268, 269, 270, 271, 272, 273, 274, 275, 276, 277, 278, 279, 280, 281, 282, 283, 284, 285, 286, 287, 288, 289, 290, 291, 292, 293, 294, 295, 296, 297, 298, 299, 300, 301, 302, 303, 304, 305, 306, 307, 308, 309, 310, 311, 312, 313, 314, 315, 316, 317, 318, 319, 320, 321, 322, 323, 324, 325, 326, 327, 328, 329, 330, 331, 332, 333, 334, 335, 336, 337, 338, 339, 340, 341, 342, 343, 344, 345, 346, 347, 348, 349, 350, 351, 352, 353, 354, 355, 356, 357, 358, 359, 360, 361, 362, 363, 364, 365, 366, 367, 368, 369, 370, 371, 372, 373, 374, 375, 376, 377, 378, 379, 380, 381, 382, 383, 384, 385, 386, 387, 388, 389, 390, 391, 392, 393, 394, 395, 396, 397, 398, 399, 400, 401, 402, 403, 404, 405, 406, 407, 408, 409, 410, 411, 412, 413, 414, 415, 416, 417, 418, 419, 420, 421, 422],
      "AcquisitionTime": ["154524.420000", "154525.910000", "154527.400000", "154528.890000", "154530.380000", "154531.870000", "154533.360000", "154534.850000", "154536.340000", "154537.830000", "154539.320000", "154540.810000", "154542.300000", "154543.790000", "154545.280000", "154546.770000", "154548.260000", "154549.750000", "154551.240000", "154552.730000", "154554.220000", "154555.710000", "154557.200000", "154558.690000", "154600.180000", "154601.670000", "154603.160000", "154604.650000", "154606.140000", "154607.630000", "154609.120000", "154610.610000", "154612.100000", "154613.590000", "154615.080000", "154616.570000", "154618.060000", "154619.550000", "154621.040000", "154622.530000", "154624.020000", "154625.510000", "154627.000000", "154628.490000", "154629.980000", "154631.470000", "154632.960000", "154634.450000", "154635.940000", "154637.430000", "154638.920000", "154640.410000", "154641.900000", "154643.390000", "154644.880000", "154646.370000", "154647.860000", "154649.350000", "154650.840000", "154652.330000", "154653.820000", "154655.310000", "154656.800000", "154658.290000", "154659.780000", "154701.270000", "154702.760000", "154704.250000", "154705.740000", "154707.230000", "154708.720000", "154710.210000", "154711.700000", "154713.190000", "154714.680000", "154716.170000", "154717.660000", "154719.150000", "154720.640000", "154722.130000", "154723.620000", "154725.110000", "154726.600000", "154728.090000", "154729.580000", "154731.070000", "154732.560000", "154734.050000", "154735.540000", "154737.030000", "154738.520000", "154740.010000", "154741.500000", "154742.990000", "154744.480000", "154745.970000", "154747.460000", "154748.950000", "154750.440000", "154751.930000", "154753.420000", "154754.910000", "154756.400000", "154757.890000", "154759.380000", "154800.870000", "154802.360000", "154803.850000", "154805.340000", "154806.830000", "154808.320000", "154809.810000", "154811.300000", "154812.790000", "154814.280000", "154815.770000", "154817.260000", "154818.750000", "154820.240000", "154821.730000", "154823.220000", "154824.710000", "154826.200000", "154827.690000", "154829.180000", "154830.670000", "154832.160000", "154833.650000", "154835.140000", "154836.630000", "154838.120000", "154839.610000", "154841.100000", "154842.590000", "154844.080000", "154845.570000", "154847.060000", "154848.550000", "154850.040000", "154851.530000", "154853.020000", "154854.510000", "154856.000000", "154857.490000", "154858.980000", "154900.470000", "154901.960000", "154903.450000", "154904.940000", "154906.430000", "154907.920000", "154909.410000", "154910.900000", "154912.390000", "154913.880000", "154915.370000", "154916.860000", "154918.350000", "154919.840000", "154921.330000", "154922.820000", "154924.310000", "154925.800000", "154927.290000", "154928.780000", "154930.270000", "154931.760000", "154933.250000", "154934.740000", "154936.230000", "154937.720000", "154939.210000", "154940.700000", "154942.190000", "154943.680000", "154945.170000", "154946.660000", "154948.150000", "154949.640000", "154951.130000", "154952.620000", "154954.110000", "154955.600000", "154957.090000", "154958.580000", "155000.070000", "155001.560000", "155003.050000", "155004.540000", "155006.030000", "155007.520000", "155009.010000", "155010.500000", "155011.990000", "155013.480000", "155014.970000", "155016.460000", "155017.950000", "155019.440000", "155020.930000", "155022.420000", "155023.910000", "155025.400000", "155026.890000", "155028.380000", "155029.870000", "155031.360000", "155032.850000", "155034.340000", "155035.830000", "155037.320000", "155038.810000", "155040.300000", "155041.790000", "155043.280000", "155044.770000", "155046.260000", "155047.750000", "155049.240000", "155050.730000", "155052.220000", "155053.710000", "155055.200000", "155056.690000", "155058.180000", "155059.670000", "155101.160000", "155102.650000", "155104.140000", "155105.630000", "155107.120000", "155108.610000", "155110.100000", "155111.590000", "155113.080000", "155114.570000", "155116.060000", "155117.550000", "155119.040000", "155120.530000", "155122.020000", "155123.510000", "155125.000000", "155126.490000", "155127.980000", "155129.470000", "155130.960000", "155132.450000", "155133.940000", "155135.430000", "155136.920000", "155138.410000", "155139.900000", "155141.390000", "155142.880000", "155144.370000", "155145.860000", "155147.350000", "155148.840000", "155150.330000", "155151.820000", "155153.310000", "155154.800000", "155156.290000", "155157.780000", "155159.270000", "155200.760000", "155202.250000", "155203.740000", "155205.230000", "155206.720000", "155208.210000", "155209.700000", "155211.190000", "155212.680000", "155214.170000", "155215.660000", "155217.150000", "155218.640000", "155220.130000", "155221.620000", "155223.110000", "155224.600000", "155226.090000", "155227.580000", "155229.070000", "155230.560000", "155232.050000", "155233.540000", "155235.030000", "155236.520000", "155238.010000", "155239.500000", "155240.990000", "155242.480000", "155243.970000", "155245.460000", "155246.950000", "155248.440000", "155249.930000", "155251.420000", "155252.910000", "155254.400000", "155255.890000", "155257.380000", "155258.870000", "155300.360000", "155301.850000", "155303.340000", "155304.830000", "155306.320000", "155307.810000", "155309.300000", "155310.790000", "155312.280000", "155313.770000", "155315.260000", "155316.750000", "155318.240000", "155319.730000", "155321.220000", "155322.710000", "155324.200000", "155325.690000", "155327.180000", "155328.670000", "155330.160000", "155331.650000", "155333.140000", "155334.630000", "155336.120000", "155337.610000", "155339.100000", "155340.590000", "155342.080000", "155343.570000", "155345.060000", "155346.550000", "155348.040000", "155349.530000", "155351.020000", "155352.510000", "155354.000000", "155355.490000", "155356.980000", "155358.470000", "155359.960000", "155401.450000", "155402.940000", "155404.430000", "155405.920000", "155407.410000", "155408.900000", "155410.390000", "155411.880000", "155413.370000", "155414.860000", "155416.350000", "155417.840000", "155419.330000", "155420.820000", "155422.310000", "155423.800000", "155425.290000", "155426.780000", "155428.270000", "155429.760000", "155431.250000", "155432.740000", "155434.230000", "155435.720000", "155437.210000", "155438.700000", "155440.190000", "155441.680000", "155443.170000", "155444.660000", "155446.150000", "155447.640000", "155449.130000", "155450.620000", "155452.110000", "155453.600000", "155455.090000", "155456.580000", "155458.070000", "155459.560000", "155501.050000", "155502.540000", "155504.030000", "155505.520000", "155507.010000", "155508.500000", "155509.990000", "155511.480000", "155512.970000", "155514.460000", "155515.950000", "155517.440000", "155518.930000", "155520.420000", "155521.910000", "155523.400000", "155524.890000", "155526.380000", "155527.870000", "155529.360000", "155530.850000", "155532.340000", "155533.830000", "155535.320000", "155536.810000", "155538.300000", "155539.790000", "155541.280000", "155542.770000", "155544.260000", "155545.750000", "155547.240000", "155548.730000", "155550.220000", "155551.710000"],
      "ContentTime": ["154634.027000", "154634.075000", "154634.079000", "154634.082000", "154634.085000", "154634.089000", "154634.092000", "154634.096000", "154634.099000", "154634.102000", "154634.106000", "154634.109000", "154634.113000", "154634.116000", "154634.124000", "154634.127000", "154634.131000", "154634.134000", "154634.138000", "154634.141000", "154654.004000", "154654.008000", "154654.011000", "154654.015000", "154654.018000", "154654.022000", "154654.025000", "154654.028000", "154654.032000", "154654.035000", "154654.039000", "154654.042000", "154654.046000", "154654.049000", "154654.052000", "154654.056000", "154654.059000", "154654.063000", "154654.066000", "154654.070000", "154714.003000", "154714.007000", "154714.010000", "154714.014000", "154714.017000", "154714.020000", "154714.024000", "154714.027000", "154714.031000", "154714.034000", "154714.037000", "154714.041000", "154714.044000", "154714.048000", "154714.060000", "154714.064000", "154714.067000", "154714.070000", "154714.075000", "154714.078000", "154734.003000", "154734.007000", "154734.011000", "154734.015000", "154734.019000", "154734.022000", "154734.025000", "154734.029000", "154734.032000", "154734.036000", "154734.039000", "154734.042000", "154734.046000", "154734.049000", "154734.053000", "154734.056000", "154734.059000", "154734.063000", "154734.066000", "154734.070000", "154734.073000", "154754.004000", "154754.008000", "154754.011000", "154754.015000", "154754.018000", "154754.021000", "154754.025000", "154754.028000", "154754.032000", "154754.035000", "154754.046000", "154754.050000", "154754.053000", "154754.056000", "154754.060000", "154754.063000", "154754.067000", "154754.070000", "154754.073000", "154834.003000", "154834.007000", "154834.010000", "154834.014000", "154834.017000", "154834.021000", "154834.024000", "154834.028000", "154834.031000", "154834.034000", "154834.038000", "154834.041000", "154834.045000", "154834.048000", "154834.052000", "154834.055000", "154834.059000", "154834.062000", "154834.065000", "154834.069000", "154834.072000", "154834.076000", "154834.079000", "154834.082000", "154834.091000", "154834.094000", "154834.098000", "154914.003000", "154914.007000", "154914.011000", "154914.014000", "154914.017000", "154914.021000", "154914.024000", "154914.028000", "154914.031000", "154914.035000", "154914.038000", "154914.042000", "154914.045000", "154914.048000", "154914.052000", "154914.055000", "154914.059000", "154914.063000", "154914.071000", "154914.075000", "154914.078000", "154914.081000", "154914.085000", "154914.088000", "154914.092000", "154914.095000", "154954.003000", "154954.007000", "154954.010000", "154954.014000", "154954.017000", "154954.021000", "154954.024000", "154954.027000", "154954.031000", "154954.034000", "154954.037000", "154954.041000", "154954.044000", "154954.047000", "154954.060000", "154954.064000", "154954.067000", "154954.070000", "154954.074000", "154954.077000", "154954.081000", "154954.084000", "154954.087000", "154954.091000", "154954.094000", "154954.098000", "154954.101000", "155034.003000", "155034.007000", "155034.010000", "155034.014000", "155034.017000", "155034.021000", "155034.024000", "155034.027000", "155034.031000", "155034.034000", "155034.038000", "155034.041000", "155034.044000", "155034.048000", "155034.051000", "155034.054000", "155034.070000", "155034.074000", "155034.077000", "155034.081000", "155034.084000", "155034.088000", "155034.091000", "155034.094000", "155034.098000", "155034.101000", "155034.105000", "155114.003000", "155114.007000", "155114.010000", "155114.014000", "155114.017000", "155114.021000", "155114.024000", "155114.027000", "155114.031000", "155114.034000", "155114.038000", "155114.041000", "155114.044000", "155114.048000", "155114.056000", "155114.060000", "155114.063000", "155114.066000", "155114.070000", "155114.073000", "155114.077000", "155114.080000", "155114.084000", "155114.087000", "155114.091000", "155114.094000", "155114.098000", "155154.003000", "155154.007000", "155154.010000", "155154.014000", "155154.017000", "155154.021000", "155154.024000", "155154.027000", "155154.031000", "155154.034000", "155154.037000", "155154.041000", "155154.044000", "155154.048000", "155154.051000", "155154.055000", "155154.058000", "155154.061000", "155154.065000", "155154.068000", "155154.072000", "155154.075000", "155154.078000", "155154.082000", "155154.085000", "155154.089000", "155154.092000", "155234.004000", "155234.008000", "155234.012000", "155234.015000", "155234.018000", "155234.022000", "155234.026000", "155234.029000", "155234.032000", "155234.036000", "155234.039000", "155234.043000", "155234.046000", "155234.050000", "155234.053000", "155234.057000", "155234.060000", "155234.063000", "155234.067000", "155234.079000", "155234.083000", "155234.086000", "155234.090000", "155234.093000", "155234.096000", "155234.100000", "155234.103000", "155314.003000", "155314.007000", "155314.010000", "155314.014000", "155314.018000", "155314.021000", "155314.024000", "155314.028000", "155314.031000", "155314.035000", "155314.038000", "155314.042000", "155314.045000", "155314.049000", "155314.052000", "155314.055000", "155314.059000", "155314.062000", "155314.066000", "155314.070000", "155314.074000", "155314.077000", "155314.081000", "155314.085000", "155314.089000", "155314.092000", "155354.003000", "155354.007000", "155354.011000", "155354.014000", "155354.018000", "155354.021000", "155354.024000", "155354.028000", "155354.031000", "155354.035000", "155354.038000", "155354.042000", "155354.045000", "155354.049000", "155354.052000", "155354.055000", "155354.059000", "155354.062000", "155354.066000", "155354.069000", "155354.073000", "155354.076000", "155354.079000", "155354.083000", "155354.086000", "155354.090000", "155354.093000", "155434.003000", "155434.007000", "155434.011000", "155434.014000", "155434.018000", "155434.021000", "155434.024000", "155434.028000", "155434.031000", "155434.035000", "155434.038000", "155434.042000", "155434.045000", "155434.049000", "155434.052000", "155434.055000", "155434.059000", "155434.062000", "155434.066000", "155434.069000", "155434.072000", "155434.076000", "155434.079000", "155434.083000", "155434.086000", "155434.090000", "155434.093000", "155514.003000", "155514.007000", "155514.011000", "155514.014000", "155514.017000", "155514.021000", "155514.024000", "155514.028000", "155514.031000", "155514.051000", "155514.055000", "155514.058000", "155514.062000", "155514.065000", "155514.068000", "155514.072000", "155514.075000", "155514.079000", "155514.082000", "155514.086000", "155514.089000", "155514.092000", "155514.096000", "155514.099000", "155514.103000", "155514.106000", "155514.110000", "155534.005000", "155534.009000", "155534.012000", "155534.015000", "155534.019000", "155534.022000", "155534.026000", "155534.029000", "155534.033000", "155534.036000", "155534.039000", "155534.043000", "155534.046000", "155554.414000", "155554.418000", "155554.422000", "155554.426000", "155554.429000", "155554.433000", "155554.436000", "155554.440000", "155554.443000", "155554.446000", "155554.450000", "155554.453000", "155554.457000", "155554.460000"],
      "InstanceCreationTime": ["154634.027000", "154634.075000", "154634.079000", "154634.082000", "154634.085000", "154634.089000", "154634.092000", "154634.096000", "154634.099000", "154634.102000", "154634.106000", "154634.109000", "154634.113000", "154634.116000", "154634.124000", "154634.127000", "154634.131000", "154634.134000", "154634.138000", "154634.141000", "154654.004000", "154654.008000", "154654.011000", "154654.015000", "154654.018000", "154654.022000", "154654.025000", "154654.028000", "154654.032000", "154654.035000", "154654.039000", "154654.042000", "154654.046000", "154654.049000", "154654.052000", "154654.056000", "154654.059000", "154654.063000", "154654.066000", "154654.070000", "154714.003000", "154714.007000", "154714.010000", "154714.014000", "154714.017000", "154714.020000", "154714.024000", "154714.027000", "154714.031000", "154714.034000", "154714.037000", "154714.041000", "154714.044000", "154714.048000", "154714.060000", "154714.064000", "154714.067000", "154714.070000", "154714.075000", "154714.078000", "154734.003000", "154734.007000", "154734.011000", "154734.015000", "154734.019000", "154734.022000", "154734.025000", "154734.029000", "154734.032000", "154734.036000", "154734.039000", "154734.042000", "154734.046000", "154734.049000", "154734.053000", "154734.056000", "154734.059000", "154734.063000", "154734.066000", "154734.070000", "154734.073000", "154754.004000", "154754.008000", "154754.011000", "154754.015000", "154754.018000", "154754.021000", "154754.025000", "154754.028000", "154754.032000", "154754.035000", "154754.046000", "154754.050000", "154754.053000", "154754.056000", "154754.060000", "154754.063000", "154754.067000", "154754.070000", "154754.073000", "154834.003000", "154834.007000", "154834.010000", "154834.014000", "154834.017000", "154834.021000", "154834.024000", "154834.028000", "154834.031000", "154834.034000", "154834.038000", "154834.041000", "154834.045000", "154834.048000", "154834.052000", "154834.055000", "154834.059000", "154834.062000", "154834.065000", "154834.069000", "154834.072000", "154834.076000", "154834.079000", "154834.082000", "154834.091000", "154834.094000", "154834.098000", "154914.003000", "154914.007000", "154914.011000", "154914.014000", "154914.017000", "154914.021000", "154914.024000", "154914.028000", "154914.031000", "154914.035000", "154914.038000", "154914.042000", "154914.045000", "154914.048000", "154914.052000", "154914.055000", "154914.059000", "154914.063000", "154914.071000", "154914.075000", "154914.078000", "154914.081000", "154914.085000", "154914.088000", "154914.092000", "154914.095000", "154954.003000", "154954.007000", "154954.010000", "154954.014000", "154954.017000", "154954.021000", "154954.024000", "154954.027000", "154954.031000", "154954.034000", "154954.037000", "154954.041000", "154954.044000", "154954.047000", "154954.060000", "154954.064000", "154954.067000", "154954.070000", "154954.074000", "154954.077000", "154954.081000", "154954.084000", "154954.087000", "154954.091000", "154954.094000", "154954.098000", "154954.101000", "155034.003000", "155034.007000", "155034.010000", "155034.014000", "155034.017000", "155034.021000", "155034.024000", "155034.027000", "155034.031000", "155034.034000", "155034.038000", "155034.041000", "155034.044000", "155034.048000", "155034.051000", "155034.054000", "155034.070000", "155034.074000", "155034.077000", "155034.081000", "155034.084000", "155034.088000", "155034.091000", "155034.094000", "155034.098000", "155034.101000", "155034.105000", "155114.003000", "155114.007000", "155114.010000", "155114.014000", "155114.017000", "155114.021000", "155114.024000", "155114.027000", "155114.031000", "155114.034000", "155114.038000", "155114.041000", "155114.044000", "155114.048000", "155114.056000", "155114.060000", "155114.063000", "155114.066000", "155114.070000", "155114.073000", "155114.077000", "155114.080000", "155114.084000", "155114.087000", "155114.091000", "155114.094000", "155114.098000", "155154.003000", "155154.007000", "155154.010000", "155154.014000", "155154.017000", "155154.021000", "155154.024000", "155154.027000", "155154.031000", "155154.034000", "155154.037000", "155154.041000", "155154.044000", "155154.048000", "155154.051000", "155154.055000", "155154.058000", "155154.061000", "155154.065000", "155154.068000", "155154.072000", "155154.075000", "155154.078000", "155154.082000", "155154.085000", "155154.089000", "155154.092000", "155234.004000", "155234.008000", "155234.012000", "155234.015000", "155234.018000", "155234.022000", "155234.026000", "155234.029000", "155234.032000", "155234.036000", "155234.039000", "155234.043000", "155234.046000", "155234.050000", "155234.053000", "155234.057000", "155234.060000", "155234.063000", "155234.067000", "155234.079000", "155234.083000", "155234.086000", "155234.090000", "155234.093000", "155234.096000", "155234.100000", "155234.103000", "155314.003000", "155314.007000", "155314.010000", "155314.014000", "155314.018000", "155314.021000", "155314.024000", "155314.028000", "155314.031000", "155314.035000", "155314.038000", "155314.042000", "155314.045000", "155314.049000", "155314.052000", "155314.055000", "155314.059000", "155314.062000", "155314.066000", "155314.070000", "155314.074000", "155314.077000", "155314.081000", "155314.085000", "155314.089000", "155314.092000", "155354.003000", "155354.007000", "155354.011000", "155354.014000", "155354.018000", "155354.021000", "155354.024000", "155354.028000", "155354.031000", "155354.035000", "155354.038000", "155354.042000", "155354.045000", "155354.049000", "155354.052000", "155354.055000", "155354.059000", "155354.062000", "155354.066000", "155354.069000", "155354.073000", "155354.076000", "155354.079000", "155354.083000", "155354.086000", "155354.090000", "155354.093000", "155434.003000", "155434.007000", "155434.011000", "155434.014000", "155434.018000", "155434.021000", "155434.024000", "155434.028000", "155434.031000", "155434.035000", "155434.038000", "155434.042000", "155434.045000", "155434.049000", "155434.052000", "155434.055000", "155434.059000", "155434.062000", "155434.066000", "155434.069000", "155434.072000", "155434.076000", "155434.079000", "155434.083000", "155434.086000", "155434.090000", "155434.093000", "155514.003000", "155514.007000", "155514.011000", "155514.014000", "155514.017000", "155514.021000", "155514.024000", "155514.028000", "155514.031000", "155514.051000", "155514.055000", "155514.058000", "155514.062000", "155514.065000", "155514.068000", "155514.072000", "155514.075000", "155514.079000", "155514.082000", "155514.086000", "155514.089000", "155514.092000", "155514.096000", "155514.099000", "155514.103000", "155514.106000", "155514.110000", "155534.005000", "155534.009000", "155534.012000", "155534.015000", "155534.019000", "155534.022000", "155534.026000", "155534.029000", "155534.033000", "155534.036000", "155534.039000", "155534.043000", "155534.046000", "155554.414000", "155554.418000", "155554.422000", "155554.426000", "155554.429000", "155554.433000", "155554.436000", "155554.440000", "155554.443000", "155554.446000", "155554.450000", "155554.453000", "155554.457000", "155554.460000"],
