{
  "AcquisitionMatrixPE": 104,
  "AcquisitionNumber": 1,
  "AcquisitionTime": "16:14:9.492500",
  "BandwidthPerPixelPhaseEncode": 17.17,
  "BaseResolution": 104,
  "BodyPartExamined": "BRAIN",
  "CoilCombinationMethod": "Sum of Squares",
  "ConsistencyInfo": "N4_VE11C_LATEST_20160120",
  "ConversionSoftware": "dcm2niix",
  "ConversionSoftwareVersion": "v1.0.20211006",
  "DerivedVendorReportedEchoSpacing": 0.000560011,
  "DeviceSerialNumber": "167006",
  "DwellTime": 2.1e-06,
  "EchoTime": 0.037,
  "EchoTime1": 0.037,
  "EchoTime2": 0.001,
  "EchoTrainLength": 104,
  "EffectiveEchoSpacing": 0.000560011,
  "FlipAngle": 52,
  "HeudiconvVersion": "0.11.3.post9+gc939bf8",
  "ImageComments": "Unaliased MB4/PE3/LB",
  "ImageOrientationPatientDICOM": [0.999545, -0.0293842, -0.00675938, 0.0253011, 0.939338, -0.34206],
  "ImageOrientationText": "Tra>Cor(-20.0)>Sag(-0.9)",
  "ImageType": [
    "ORIGINAL",
    "PRIMARY",
    "P",
    "MB",
    "ND",
    "MOSAIC",
    "PHASE"
],
  "ImagingFrequency": 123.259,
  "InPlanePhaseEncodingDirectionDICOM": "COL",
  "InstitutionAddress": "Chemin Queen-Mary 4565,Montreal,District,CA,H3W 1W5",
  "InstitutionName": "IUGM",
  "InstitutionalDepartmentName": "Department",
  "MRAcquisitionType": "2D",
  "MagneticFieldStrength": 3,
  "Manufacturer": "Siemens",
  "ManufacturersModelName": "Prisma_fit",
  "MatrixCoilMode": "SENSE",
  "Modality": "MR",
  "MultibandAccelerationFactor": 4,
  "PartialFourier": 1,
  "PatientPosition": "HFS",
  "PercentPhaseFOV": 100,
  "PercentSampling": 100,
  "PhaseEncodingDirection": "j",
  "PhaseEncodingSteps": 104,
  "PhaseResolution": 1,
  "PixelBandwidth": 2290,
  "ProcedureStepDescription": "games^mariostars",
  "ProtocolName": "func_task-mariostars_run-04",
  "PulseSequenceDetails": "%CustomerSeq%\\cmrr_mbep2d_bold",
  "ReceiveCoilActiveElements": "HC1-7;NC1,2",
  "ReceiveCoilName": "HeadNeck_64",
  "ReconMatrixPE": 104,
  "RepetitionTime": 1.49,
  "SAR": 0.0635038,
  "ScanOptions": "FS",
  "ScanningSequence": "EP",
  "SequenceName": "epfid2d1_104",
  "SequenceVariant": "SK\\SS",
  "SeriesDescription": "func_task-mariostars_run-04",
  "SeriesNumber": 21,
  "ShimSetting": [617, -7249, -8822, 524, -4, -214, -108, -13],
  "SliceThickness": 2,
  "SliceTiming": [0, 0.7825, 0.0975, 0.88, 0.195, 0.98, 0.2925, 1.0775, 0.39, 1.175, 0.49, 1.2725, 0.5875, 1.37, 0.685, 0, 0.7825, 0.0975, 0.88, 0.195, 0.98, 0.2925, 1.0775, 0.39, 1.175, 0.49, 1.2725, 0.5875, 1.37, 0.685, 0, 0.7825, 0.0975, 0.88, 0.195, 0.98, 0.2925, 1.0775, 0.39, 1.175, 0.49, 1.2725, 0.5875, 1.37, 0.685, 0, 0.7825, 0.0975, 0.88, 0.195, 0.98, 0.2925, 1.0775, 0.39, 1.175, 0.49, 1.2725, 0.5875, 1.37, 0.685],
  "SoftwareVersions": "syngo MR E11",
  "SpacingBetweenSlices": 2,
  "StationName": "MRC35049",
  "TaskName": "mariostars",
  "TotalReadoutTime": 0.0576811,
  "TxRefAmp": 258.391,
  "WipMemBlock": "c0fe9f62-d0de-4cbf-aa46-332934843a4d||Sequence: R017 ve11c/master r/75a17815+; Jun 28 2022 16:32:11 by eja",
  "dcmmeta_affine": [
    [-1.9990906715393066, 0.05060223862528801, -0.03280100226402283, 104.32746887207031],
    [0.058768488466739655, 1.8786752223968506, -0.6834659576416016, -66.94488525390625],
    [-0.013518761843442917, 0.6841190457344055, 1.8793079853057861, -65.62821960449219],
    [0.0, 0.0, 0.0, 1.0]
],
  "dcmmeta_reorient_transform": [
    [0.0, -1.0, 0.0, 103.0],
    [1.0, 0.0, 0.0, 0.0],
    [0.0, 0.0, 1.0, 0.0],
    [0.0, 0.0, 0.0, 1.0]
],
  "dcmmeta_shape": [104, 104, 60, 440],
  "dcmmeta_slice_dim": 2,
  "dcmmeta_version": 0.6,
  "global": {
    "const": {
      "AcquisitionMatrix": [104, 0, 0, 104],
      "AngioFlag": "N",
      "BitsAllocated": 16,
      "BitsStored": 16,
      "BodyPartExamined": "BRAIN",
      "Columns": 832,
      "EchoNumbers": 1,
      "EchoTime": 37.0,
      "EchoTrainLength": 104,
      "FlipAngle": 52.0,
      "HighBit": 15,
      "ImageOrientationPatient": [0.99954533509353, -0.0293842451375, -0.0067593809232, 0.02530111959732, 0.9393376097414, -0.3420595098407],
      "ImagePositionPatient": [-855.62771919584, -789.00471467024, 258.77619315311],
      "ImageType": [
        "ORIGINAL",
        "PRIMARY",
        "P",
        "MB",
        "ND",
        "MOSAIC"
],
      "ImagedNucleus": "1H",
      "ImagingFrequency": 123.258787,
      "InPlanePhaseEncodingDirection": "COL",
      "LargestImagePixelValue": 4095,
      "MRAcquisitionType": "2D",
      "MagneticFieldStrength": 3.0,
      "Manufacturer": "SIEMENS",
      "ManufacturerModelName": "Prisma_fit",
      "Modality": "MR",
      "NumberOfAverages": 1.0,
      "NumberOfPhaseEncodingSteps": 104,
      "PercentPhaseFieldOfView": 100.0,
      "PercentSampling": 100.0,
      "PerformedProcedureStepStartTime": "144706.079000",
      "PhotometricInterpretation": "MONOCHROME2",
      "PixelBandwidth": 2290.0,
      "PixelRepresentation": 0,
      "PixelSpacing": [2.0, 2.0],
      "ProtocolName": "func_task-mariostars_run-04",
      "RepetitionTime": 1490.0,
      "RescaleIntercept": -4096.0,
      "RescaleSlope": 2.0,
      "RescaleType": "US",
      "Rows": 832,
      "SAR": 0.06350380781003,
      "SamplesPerPixel": 1,
      "ScanOptions": "FS",
      "ScanningSequence": "EP",
      "SequenceName": "epfid2d1_104",
      "SequenceVariant": [
        "SK",
        "SS"
],
      "SeriesDescription": "func_task-mariostars_run-04",
      "SeriesNumber": 21,
      "SeriesTime": "161526.805000",
      "SliceLocation": -40.501566066893,
      "SliceThickness": 2.0,
      "SmallestImagePixelValue": 0,
      "SoftwareVersions": "syngo MR E11",
      "SpacingBetweenSlices": 2.0000000598681,
      "SpecificCharacterSet": "ISO_IR 100",
      "StudyID": "1",
      "StudyTime": "144705.998000",
      "TransmitCoilName": "Body",
      "VariableFlipAngleFlag": "N",
      "WindowCenterWidthExplanation": "Algo1",
      "dBdt": 0.0},
    "slices": {}
  },
  "time": {
    "samples": {
      "AcquisitionNumber": [1, 2, 3, 4, 5, 6, 7, 8, 9, 10, 11, 12, 13, 14, 15, 16, 17, 18, 19, 20, 21, 22, 23, 24, 25, 26, 27, 28, 29, 30, 31, 32, 33, 34, 35, 36, 37, 38, 39, 40, 41, 42, 43, 44, 45, 46, 47, 48, 49, 50, 51, 52, 53, 54, 55, 56, 57, 58, 59, 60, 61, 62, 63, 64, 65, 66, 67, 68, 69, 70, 71, 72, 73, 74, 75, 76, 77, 78, 79, 80, 81, 82, 83, 84, 85, 86, 87, 88, 89, 90, 91, 92, 93, 94, 95, 96, 97, 98, 99, 100, 101, 102, 103, 104, 105, 106, 107, 108, 109, 110, 111, 112, 113, 114, 115, 116, 117, 118, 119, 120, 121, 122, 123, 124, 125, 126, 127, 128, 129, 130, 131, 132, 133, 134, 135, 136, 137, 138, 139, 140, 141, 142, 143, 144, 145, 146, 147, 148, 149, 150, 151, 152, 153, 154, 155, 156, 157, 158, 159, 160, 161, 162, 163, 164, 165, 166, 167, 168, 169, 170, 171, 172, 173, 174, 175, 176, 177, 178, 179, 180, 181, 182, 183, 184, 185, 186, 187, 188, 189, 190, 191, 192, 193, 194, 195, 196, 197, 198, 199, 200, 201, 202, 203, 204, 205, 206, 207, 208, 209, 210, 211, 212, 213, 214, 215, 216, 217, 218, 219, 220, 221, 222, 223, 224, 225, 226, 227, 228, 229, 230, 231, 232, 233, 234, 235, 236, 237, 238, 239, 240, 241, 242, 243, 244, 245, 246, 247, 248, 249, 250, 251, 252, 253, 254, 255, 256, 257, 258, 259, 260, 261, 262, 263, 264, 265, 266, 267, 268, 269, 270, 271, 272, 273, 274, 275, 276, 277, 278, 279, 280, 281, 282, 283, 284, 285, 286, 287, 288, 289, 290, 291, 292, 293, 294, 295, 296, 297, 298, 299, 300, 301, 302, 303, 304, 305, 306, 307, 308, 309, 310, 311, 312, 313, 314, 315, 316, 317, 318, 319, 320, 321, 322, 323, 324, 325, 326, 327, 328, 329, 330, 331, 332, 333, 334, 335, 336, 337, 338, 339, 340, 341, 342, 343, 344, 345, 346, 347, 348, 349, 350, 351, 352, 353, 354, 355, 356, 357, 358, 359, 360, 361, 362, 363, 364, 365, 366, 367, 368, 369, 370, 371, 372, 373, 374, 375, 376, 377, 378, 379, 380, 381, 382, 383, 384, 385, 386, 387, 388, 389, 390, 391, 392, 393, 394, 395, 396, 397, 398, 399, 400, 401, 402, 403, 404, 405, 406, 407, 408, 409, 410, 411, 412, 413, 414, 415, 416, 417, 418, 419, 420, 421, 422, 423, 424, 425, 426, 427, 428, 429, 430, 431, 432, 433, 434, 435, 436, 437, 438, 439, 440],
      "AcquisitionTime": ["161409.492500", "161410.982500", "161412.472500", "161413.962500", "161415.452500", "161416.942500", "161418.432500", "161419.922500", "161421.412500", "161422.902500", "161424.392500", "161425.882500", "161427.372500", "161428.862500", "161430.352500", "161431.842500", "161433.332500", "161434.822500", "161436.312500", "161437.802500", "161439.292500", "161440.782500", "161442.272500", "161443.762500", "161445.252500", "161446.742500", "161448.232500", "161449.722500", "161451.212500", "161452.702500", "161454.192500", "161455.682500", "161457.172500", "161458.662500", "161500.152500", "161501.642500", "161503.132500", "161504.622500", "161506.112500", "161507.602500", "161509.092500", "161510.582500", "161512.072500", "161513.562500", "161515.052500", "161516.542500", "161518.032500", "161519.522500", "161521.012500", "161522.502500", "161523.992500", "161525.482500", "161526.972500", "161528.462500", "161529.952500", "161531.442500", "161532.932500", "161534.422500", "161535.912500", "161537.402500", "161538.892500", "161540.382500", "161541.872500", "161543.362500", "161544.852500", "161546.342500", "161547.832500", "161549.322500", "161550.812500", "161552.302500", "161553.792500", "161555.282500", "161556.772500", "161558.262500", "161559.752500", "161601.242500", "161602.732500", "161604.222500", "161605.712500", "161607.202500", "161608.692500", "161610.182500", "161611.672500", "161613.162500", "161614.652500", "161616.142500", "161617.632500", "161619.122500", "161620.612500", "161622.102500", "161623.592500", "161625.082500", "161626.572500", "161628.062500", "161629.552500", "161631.042500", "161632.532500", "161634.022500", "161635.512500", "161637.002500", "161638.492500", "161639.982500", "161641.472500", "161642.962500", "161644.452500", "161645.942500", "161647.432500", "161648.922500", "161650.412500", "161651.902500", "161653.392500", "161654.882500", "161656.372500", "161657.862500", "161659.352500", "161700.842500", "161702.332500", "161703.822500", "161705.312500", "161706.802500", "161708.292500", "161709.782500", "161711.272500", "161712.762500", "161714.252500", "161715.742500", "161717.232500", "161718.722500", "161720.212500", "161721.702500", "161723.192500", "161724.682500", "161726.172500", "161727.662500", "161729.152500", "161730.642500", "161732.132500", "161733.622500", "161735.112500", "161736.602500", "161738.092500", "161739.582500", "161741.072500", "161742.562500", "161744.052500", "161745.542500", "161747.032500", "161748.522500", "161750.012500", "161751.502500", "161752.992500", "161754.482500", "161755.972500", "161757.462500", "161758.952500", "161800.442500", "161801.932500", "161803.422500", "161804.912500", "161806.402500", "161807.892500", "161809.382500", "161810.872500", "161812.362500", "161813.852500", "161815.342500", "161816.832500", "161818.322500", "161819.812500", "161821.302500", "161822.792500", "161824.282500", "161825.772500", "161827.262500", "161828.752500", "161830.242500", "161831.732500", "161833.222500", "161834.712500", "161836.202500", "161837.692500", "161839.182500", "161840.672500", "161842.162500", "161843.652500", "161845.142500", "161846.632500", "161848.122500", "161849.612500", "161851.102500", "161852.592500", "161854.082500", "161855.572500", "161857.062500", "161858.552500", "161900.042500", "161901.532500", "161903.022500", "161904.512500", "161906.002500", "161907.492500", "161908.982500", "161910.472500", "161911.962500", "161913.452500", "161914.942500", "161916.432500", "161917.922500", "161919.412500", "161920.902500", "161922.392500", "161923.882500", "161925.372500", "161926.862500", "161928.352500", "161929.842500", "161931.332500", "161932.822500", "161934.312500", "161935.802500", "161937.292500", "161938.782500", "161940.272500", "161941.762500", "161943.252500", "161944.742500", "161946.232500", "161947.722500", "161949.212500", "161950.702500", "161952.192500", "161953.682500", "161955.172500", "161956.662500", "161958.152500", "161959.642500", "162001.132500", "162002.622500", "162004.112500", "162005.602500", "162007.092500", "162008.582500", "162010.072500", "162011.562500", "162013.052500", "162014.542500", "162016.032500", "162017.522500", "162019.012500", "162020.502500", "162021.992500", "162023.482500", "162024.972500", "162026.462500", "162027.952500", "162029.442500", "162030.932500", "162032.422500", "162033.912500", "162035.402500", "162036.892500", "162038.382500", "162039.872500", "162041.362500", "162042.852500", "162044.342500", "162045.832500", "162047.322500", "162048.812500", "162050.302500", "162051.792500", "162053.282500", "162054.772500", "162056.262500", "162057.752500", "162059.242500", "162100.732500", "162102.222500", "162103.712500", "162105.202500", "162106.692500", "162108.182500", "162109.672500", "162111.162500", "162112.652500", "162114.142500", "162115.632500", "162117.122500", "162118.612500", "162120.102500", "162121.592500", "162123.082500", "162124.572500", "162126.062500", "162127.552500", "162129.042500", "162130.532500", "162132.022500", "162133.512500", "162135.002500", "162136.492500", "162137.982500", "162139.472500", "162140.962500", "162142.452500", "162143.942500", "162145.432500", "162146.922500", "162148.412500", "162149.902500", "162151.392500", "162152.882500", "162154.372500", "162155.862500", "162157.352500", "162158.842500", "162200.332500", "162201.822500", "162203.312500", "162204.802500", "162206.292500", "162207.782500", "162209.272500", "162210.762500", "162212.252500", "162213.742500", "162215.232500", "162216.722500", "162218.212500", "162219.702500", "162221.192500", "162222.682500", "162224.172500", "162225.662500", "162227.152500", "162228.642500", "162230.132500", "162231.622500", "162233.112500", "162234.602500", "162236.092500", "162237.582500", "162239.072500", "162240.562500", "162242.052500", "162243.542500", "162245.032500", "162246.522500", "162248.012500", "162249.502500", "162250.992500", "162252.482500", "162253.972500", "162255.462500", "162256.952500", "162258.442500", "162259.932500", "162301.422500", "162302.912500", "162304.402500", "162305.892500", "162307.382500", "162308.872500", "162310.362500", "162311.852500", "162313.342500", "162314.832500", "162316.322500", "162317.812500", "162319.302500", "162320.792500", "162322.282500", "162323.772500", "162325.262500", "162326.752500", "162328.242500", "162329.732500", "162331.222500", "162332.712500", "162334.202500", "162335.692500", "162337.182500", "162338.672500", "162340.162500", "162341.652500", "162343.142500", "162344.632500", "162346.122500", "162347.612500", "162349.102500", "162350.592500", "162352.082500", "162353.572500", "162355.062500", "162356.552500", "162358.042500", "162359.532500", "162401.022500", "162402.512500", "162404.002500", "162405.492500", "162406.982500", "162408.472500", "162409.962500", "162411.452500", "162412.942500", "162414.432500", "162415.922500", "162417.412500", "162418.902500", "162420.392500", "162421.882500", "162423.372500", "162424.862500", "162426.352500", "162427.842500", "162429.332500", "162430.822500", "162432.312500", "162433.802500", "162435.292500", "162436.782500", "162438.272500", "162439.762500", "162441.252500", "162442.742500", "162444.232500", "162445.722500", "162447.212500", "162448.702500", "162450.192500", "162451.682500", "162453.172500", "162454.662500", "162456.152500", "162457.642500", "162459.132500", "162500.622500", "162502.112500", "162503.602500"],
      "ContentTime": ["161526.807000", "161526.810000", "161526.813000", "161526.816000", "161526.818000", "161526.821000", "161526.823000", "161526.826000", "161526.829000", "161526.831000", "161526.834000", "161526.837000", "161526.839000", "161526.842000", "161526.844000", "161526.847000", "161526.850000", "161526.852000", "161526.855000", "161526.857000", "161526.860000", "161526.862000", "161526.865000", "161526.868000", "161526.870000", "161526.873000", "161526.875000", "161526.878000", "161547.164000", "161547.166000", "161547.169000", "161547.172000", "161547.174000", "161547.177000", "161547.179000", "161547.182000", "161547.184000", "161547.187000", "161547.190000", "161547.192000", "161547.195000", "161547.197000", "161547.200000", "161547.202000", "161547.205000", "161547.207000", "161547.210000", "161547.212000", "161606.763000", "161606.766000", "161606.769000", "161606.772000", "161606.774000", "161606.777000", "161606.780000", "161606.782000", "161606.785000", "161606.787000", "161606.790000", "161606.792000", "161606.795000", "161606.798000", "161606.800000", "161606.803000", "161606.805000", "161606.808000", "161606.811000", "161606.813000", "161606.816000", "161626.752000", "161626.755000", "161626.757000", "161626.760000", "161626.763000", "161626.765000", "161626.768000", "161626.783000", "161626.785000", "161626.788000", "161626.790000", "161626.793000", "161626.796000", "161626.798000", "161626.801000", "161626.803000", "161626.806000", "161626.809000", "161626.811000", "161626.814000", "161706.794000", "161706.796000", "161706.799000", "161706.802000", "161706.804000", "161706.807000", "161706.810000", "161706.812000", "161706.815000", "161706.817000", "161706.820000", "161706.823000", "161706.825000", "161706.828000", "161706.830000", "161706.833000", "161706.836000", "161706.838000", "161706.841000", "161706.843000", "161706.846000", "161706.849000", "161706.851000", "161706.854000", "161706.856000", "161706.859000", "161706.861000", "161706.864000", "161706.867000", "161746.767000", "161746.795000", "161746.798000", "161746.800000", "161746.803000", "161746.805000", "161746.808000", "161746.811000", "161746.813000", "161746.816000", "161746.818000", "161746.821000", "161746.823000", "161746.826000", "161746.828000", "161746.838000", "161746.840000", "161746.843000", "161746.845000", "161746.848000", "161746.851000", "161746.853000", "161746.856000", "161746.858000", "161746.861000", "161746.863000", "161746.866000", "161826.804000", "161826.807000", "161826.810000", "161826.812000", "161826.815000", "161826.817000", "161826.820000", "161826.823000", "161826.825000", "161826.828000", "161826.830000", "161826.833000", "161826.835000", "161826.838000", "161826.840000", "161826.843000", "161826.846000", "161826.848000", "161826.851000", "161826.865000", "161826.867000", "161826.870000", "161826.872000", "161826.875000", "161826.877000", "161826.880000", "161906.772000", "161906.778000", "161906.781000", "161906.783000", "161906.786000", "161906.788000", "161906.791000", "161906.793000", "161906.796000", "161906.799000", "161906.801000", "161906.804000", "161906.806000", "161906.809000", "161906.811000", "161906.814000", "161906.817000", "161906.819000", "161906.822000", "161906.825000", "161906.827000", "161906.830000", "161906.832000", "161906.835000", "161906.838000", "161906.841000", "161906.843000", "161946.768000", "161946.771000", "161946.773000", "161946.776000", "161946.778000", "161946.781000", "161946.783000", "161946.786000", "161946.789000", "161946.791000", "161946.794000", "161946.796000", "161946.799000", "161946.801000", "161946.804000", "161946.807000", "161946.809000", "161946.812000", "161946.814000", "161946.817000", "161946.819000", "161946.822000", "161946.824000", "161946.827000", "161946.829000", "161946.832000", "161946.835000", "162026.786000", "162026.789000", "162026.791000", "162026.794000", "162026.796000", "162026.799000", "162026.802000", "162026.804000", "162026.807000", "162026.809000", "162026.812000", "162026.814000", "162026.817000", "162026.820000", "162026.822000", "162026.825000", "162026.827000", "162026.830000", "162026.832000", "162026.835000", "162026.838000", "162026.840000", "162026.843000", "162026.845000", "162026.848000", "162026.850000", "162026.853000", "162106.777000", "162106.780000", "162106.783000", "162106.785000", "162106.788000", "162106.790000", "162106.793000", "162106.795000", "162106.798000", "162106.801000", "162106.803000", "162106.806000", "162106.808000", "162106.811000", "162106.813000", "162106.816000", "162106.818000", "162106.821000", "162106.824000", "162106.826000", "162106.829000", "162106.831000", "162106.834000", "162106.836000", "162106.839000", "162106.842000", "162106.844000", "162146.757000", "162146.759000", "162146.762000", "162146.765000", "162146.767000", "162146.770000", "162146.773000", "162146.775000", "162146.778000", "162146.780000", "162146.806000", "162146.809000", "162146.812000", "162146.814000", "162146.817000", "162146.819000", "162146.822000", "162146.824000", "162146.827000", "162146.830000", "162146.832000", "162146.835000", "162146.837000", "162146.840000", "162146.842000", "162146.845000", "162146.848000", "162226.833000", "162226.836000", "162226.839000", "162226.841000", "162226.844000", "162226.847000", "162226.849000", "162226.852000", "162226.854000", "162226.857000", "162226.860000", "162226.862000", "162226.865000", "162226.867000", "162226.870000", "162226.872000", "162226.875000", "162226.878000", "162226.880000", "162226.883000", "162226.885000", "162226.888000", "162226.890000", "162226.893000", "162226.896000", "162226.898000", "162226.901000", "162306.811000", "162306.814000", "162306.816000", "162306.819000", "162306.821000", "162306.824000", "162306.827000", "162306.829000", "162306.832000", "162306.834000", "162306.837000", "162306.840000", "162306.842000", "162306.845000", "162306.847000", "162306.850000", "162306.852000", "162306.855000", "162306.857000", "162306.860000", "162306.864000", "162306.867000", "162306.869000", "162306.872000", "162306.874000", "162306.877000", "162346.833000", "162346.836000", "162346.838000", "162346.841000", "162346.843000", "162346.846000", "162346.848000", "162346.851000", "162346.854000", "162346.856000", "162346.859000", "162346.861000", "162346.864000", "162346.866000", "162346.869000", "162346.872000", "162346.875000", "162346.878000", "162346.880000", "162346.883000", "162346.886000", "162346.888000", "162346.891000", "162346.893000", "162346.896000", "162346.898000", "162346.901000", "162426.767000", "162426.770000", "162426.772000", "162426.775000", "162426.778000", "162426.780000", "162426.783000", "162426.785000", "162426.788000", "162426.791000", "162426.793000", "162426.796000", "162426.798000", "162426.801000", "162426.804000", "162426.806000", "162426.809000", "162426.811000", "162426.814000", "162426.816000", "162426.819000", "162426.821000", "162426.824000", "162426.827000", "162426.829000", "162426.832000", "162426.834000", "162506.793000", "162506.796000", "162506.798000", "162506.805000", "162506.807000", "162506.812000", "162506.815000", "162506.818000", "162506.820000", "162506.823000", "162506.826000", "162506.828000", "162506.831000", "162506.833000", "162506.836000", "162506.838000", "162506.841000", "162506.844000", "162506.846000", "162506.849000", "162506.852000", "162506.854000", "162506.866000", "162506.868000", "162506.882000", "162506.885000", "162506.887000"],
