{
  "AcquisitionMatrixPE": 104,
  "AcquisitionNumber": 1,
  "AcquisitionTime": "16:14:9.492500",
  "BandwidthPerPixelPhaseEncode": 17.17,
  "BaseResolution": 104,
  "BodyPartExamined": "BRAIN",
  "CoilCombinationMethod": "Sum of Squares",
  "ConsistencyInfo": "N4_VE11C_LATEST_20160120",
  "ConversionSoftware": "dcm2niix",
  "ConversionSoftwareVersion": "v1.0.20211006",
  "DerivedVendorReportedEchoSpacing": 0.000560011,
  "DeviceSerialNumber": "167006",
  "DwellTime": 2.1e-06,
  "EchoTime": 0.037,
  "EchoTrainLength": 104,
  "EffectiveEchoSpacing": 0.000560011,
  "FlipAngle": 52,
  "HeudiconvVersion": "0.11.3.post9+gc939bf8",
  "ImageComments": "Unaliased MB4/PE3/LB",
  "ImageOrientationPatientDICOM": [0.999545, -0.0293842, -0.00675938, 0.0253011, 0.939338, -0.34206],
  "ImageOrientationText": "Tra>Cor(-20.0)>Sag(-0.9)",
  "ImageType": [
    "ORIGINAL",
    "PRIMARY",
    "M",
    "MB",
    "ND",
    "MOSAIC"
],
  "ImagingFrequency": 123.259,
  "InPlanePhaseEncodingDirectionDICOM": "COL",
  "InstitutionAddress": "Chemin Queen-Mary 4565,Montreal,District,CA,H3W 1W5",
  "InstitutionName": "IUGM",
  "InstitutionalDepartmentName": "Department",
  "MRAcquisitionType": "2D",
  "MagneticFieldStrength": 3,
  "Manufacturer": "Siemens",
  "ManufacturersModelName": "Prisma_fit",
  "MatrixCoilMode": "SENSE",
  "Modality": "MR",
  "MultibandAccelerationFactor": 4,
  "PartialFourier": 1,
  "PatientPosition": "HFS",
  "PercentPhaseFOV": 100,
  "PercentSampling": 100,
  "PhaseEncodingDirection": "j",
  "PhaseEncodingSteps": 104,
  "PhaseResolution": 1,
  "PixelBandwidth": 2290,
  "ProcedureStepDescription": "games^mariostars",
  "ProtocolName": "func_task-mariostars_run-04",
  "PulseSequenceDetails": "%CustomerSeq%\\cmrr_mbep2d_bold",
  "ReceiveCoilActiveElements": "HC1-7;NC1,2",
  "ReceiveCoilName": "HeadNeck_64",
  "ReconMatrixPE": 104,
  "RepetitionTime": 1.49,
  "SAR": 0.0635038,
  "ScanOptions": "FS",
  "ScanningSequence": "EP",
  "SequenceName": "epfid2d1_104",
  "SequenceVariant": "SK\\SS",
  "SeriesDescription": "func_task-mariostars_run-04",
  "SeriesNumber": 20,
  "ShimSetting": [617, -7249, -8822, 524, -4, -214, -108, -13],
  "SliceThickness": 2,
  "SliceTiming": [0, 0.7825, 0.0975, 0.88, 0.195, 0.98, 0.2925, 1.0775, 0.39, 1.175, 0.49, 1.2725, 0.5875, 1.37, 0.685, 0, 0.7825, 0.0975, 0.88, 0.195, 0.98, 0.2925, 1.0775, 0.39, 1.175, 0.49, 1.2725, 0.5875, 1.37, 0.685, 0, 0.7825, 0.0975, 0.88, 0.195, 0.98, 0.2925, 1.0775, 0.39, 1.175, 0.49, 1.2725, 0.5875, 1.37, 0.685, 0, 0.7825, 0.0975, 0.88, 0.195, 0.98, 0.2925, 1.0775, 0.39, 1.175, 0.49, 1.2725, 0.5875, 1.37, 0.685],
  "SoftwareVersions": "syngo MR E11",
  "SpacingBetweenSlices": 2,
  "StationName": "MRC35049",
  "TaskName": "mariostars",
  "TotalReadoutTime": 0.0576811,
  "TxRefAmp": 258.391,
  "WipMemBlock": "c0fe9f62-d0de-4cbf-aa46-332934843a4d||Sequence: R017 ve11c/master r/75a17815+; Jun 28 2022 16:32:11 by eja",
  "dcmmeta_affine": [
    [-1.9990906715393066, 0.05060223862528801, -0.03280100226402283, 104.32746887207031],
    [0.058768488466739655, 1.8786752223968506, -0.6834659576416016, -66.94488525390625],
    [-0.013518761843442917, 0.6841190457344055, 1.8793079853057861, -65.62821960449219],
    [0.0, 0.0, 0.0, 1.0]
],
  "dcmmeta_reorient_transform": [
    [0.0, -1.0, 0.0, 103.0],
    [1.0, 0.0, 0.0, 0.0],
    [0.0, 0.0, 1.0, 0.0],
    [0.0, 0.0, 0.0, 1.0]
],
  "dcmmeta_shape": [104, 104, 60, 440],
  "dcmmeta_slice_dim": 2,
  "dcmmeta_version": 0.6,
  "global": {
    "const": {
      "AcquisitionMatrix": [104, 0, 0, 104],
      "AngioFlag": "N",
      "BitsAllocated": 16,
      "BitsStored": 16,
      "BodyPartExamined": "BRAIN",
      "Columns": 832,
      "EchoNumbers": 1,
      "EchoTime": 37.0,
      "EchoTrainLength": 104,
      "FlipAngle": 52.0,
      "HighBit": 15,
      "ImageOrientationPatient": [0.99954533509353, -0.0293842451375, -0.0067593809232, 0.02530111959732, 0.9393376097414, -0.3420595098407],
      "ImagePositionPatient": [-855.62771919584, -789.00471467024, 258.77619315311],
      "ImageType": [
        "ORIGINAL",
        "PRIMARY",
        "M",
        "MB",
        "ND",
        "MOSAIC"
],
      "ImagedNucleus": "1H",
      "ImagingFrequency": 123.258787,
      "InPlanePhaseEncodingDirection": "COL",
      "MRAcquisitionType": "2D",
      "MagneticFieldStrength": 3.0,
      "Manufacturer": "SIEMENS",
      "ManufacturerModelName": "Prisma_fit",
      "Modality": "MR",
      "NumberOfAverages": 1.0,
      "NumberOfPhaseEncodingSteps": 104,
      "PercentPhaseFieldOfView": 100.0,
      "PercentSampling": 100.0,
      "PerformedProcedureStepStartTime": "144706.079000",
      "PhotometricInterpretation": "MONOCHROME2",
      "PixelBandwidth": 2290.0,
      "PixelRepresentation": 0,
      "PixelSpacing": [2.0, 2.0],
      "ProtocolName": "func_task-mariostars_run-04",
      "RepetitionTime": 1490.0,
      "Rows": 832,
      "SAR": 0.06350380781003,
      "SamplesPerPixel": 1,
      "ScanOptions": "FS",
      "ScanningSequence": "EP",
      "SequenceName": "epfid2d1_104",
      "SequenceVariant": [
        "SK",
        "SS"
],
      "SeriesDescription": "func_task-mariostars_run-04",
      "SeriesNumber": 20,
      "SeriesTime": "161526.658000",
      "SliceLocation": -40.501566066893,
      "SliceThickness": 2.0,
      "SmallestImagePixelValue": 0,
      "SoftwareVersions": "syngo MR E11",
      "SpacingBetweenSlices": 2.0000000598681,
      "SpecificCharacterSet": "ISO_IR 100",
      "StudyID": "1",
      "StudyTime": "144705.998000",
      "TransmitCoilName": "Body",
      "VariableFlipAngleFlag": "N",
      "WindowCenterWidthExplanation": "Algo1",
      "dBdt": 0.0},
    "slices": {}
  },
  "time": {
    "samples": {
      "AcquisitionNumber": [1, 2, 3, 4, 5, 6, 7, 8, 9, 10, 11, 12, 13, 14, 15, 16, 17, 18, 19, 20, 21, 22, 23, 24, 25, 26, 27, 28, 29, 30, 31, 32, 33, 34, 35, 36, 37, 38, 39, 40, 41, 42, 43, 44, 45, 46, 47, 48, 49, 50, 51, 52, 53, 54, 55, 56, 57, 58, 59, 60, 61, 62, 63, 64, 65, 66, 67, 68, 69, 70, 71, 72, 73, 74, 75, 76, 77, 78, 79, 80, 81, 82, 83, 84, 85, 86, 87, 88, 89, 90, 91, 92, 93, 94, 95, 96, 97, 98, 99, 100, 101, 102, 103, 104, 105, 106, 107, 108, 109, 110, 111, 112, 113, 114, 115, 116, 117, 118, 119, 120, 121, 122, 123, 124, 125, 126, 127, 128, 129, 130, 131, 132, 133, 134, 135, 136, 137, 138, 139, 140, 141, 142, 143, 144, 145, 146, 147, 148, 149, 150, 151, 152, 153, 154, 155, 156, 157, 158, 159, 160, 161, 162, 163, 164, 165, 166, 167, 168, 169, 170, 171, 172, 173, 174, 175, 176, 177, 178, 179, 180, 181, 182, 183, 184, 185, 186, 187, 188, 189, 190, 191, 192, 193, 194, 195, 196, 197, 198, 199, 200, 201, 202, 203, 204, 205, 206, 207, 208, 209, 210, 211, 212, 213, 214, 215, 216, 217, 218, 219, 220, 221, 222, 223, 224, 225, 226, 227, 228, 229, 230, 231, 232, 233, 234, 235, 236, 237, 238, 239, 240, 241, 242, 243, 244, 245, 246, 247, 248, 249, 250, 251, 252, 253, 254, 255, 256, 257, 258, 259, 260, 261, 262, 263, 264, 265, 266, 267, 268, 269, 270, 271, 272, 273, 274, 275, 276, 277, 278, 279, 280, 281, 282, 283, 284, 285, 286, 287, 288, 289, 290, 291, 292, 293, 294, 295, 296, 297, 298, 299, 300, 301, 302, 303, 304, 305, 306, 307, 308, 309, 310, 311, 312, 313, 314, 315, 316, 317, 318, 319, 320, 321, 322, 323, 324, 325, 326, 327, 328, 329, 330, 331, 332, 333, 334, 335, 336, 337, 338, 339, 340, 341, 342, 343, 344, 345, 346, 347, 348, 349, 350, 351, 352, 353, 354, 355, 356, 357, 358, 359, 360, 361, 362, 363, 364, 365, 366, 367, 368, 369, 370, 371, 372, 373, 374, 375, 376, 377, 378, 379, 380, 381, 382, 383, 384, 385, 386, 387, 388, 389, 390, 391, 392, 393, 394, 395, 396, 397, 398, 399, 400, 401, 402, 403, 404, 405, 406, 407, 408, 409, 410, 411, 412, 413, 414, 415, 416, 417, 418, 419, 420, 421, 422, 423, 424, 425, 426, 427, 428, 429, 430, 431, 432, 433, 434, 435, 436, 437, 438, 439, 440],
      "AcquisitionTime": ["161409.492500", "161410.982500", "161412.472500", "161413.962500", "161415.452500", "161416.942500", "161418.432500", "161419.922500", "161421.412500", "161422.902500", "161424.392500", "161425.882500", "161427.372500", "161428.862500", "161430.352500", "161431.842500", "161433.332500", "161434.822500", "161436.312500", "161437.802500", "161439.292500", "161440.782500", "161442.272500", "161443.762500", "161445.252500", "161446.742500", "161448.232500", "161449.722500", "161451.212500", "161452.702500", "161454.192500", "161455.682500", "161457.172500", "161458.662500", "161500.152500", "161501.642500", "161503.132500", "161504.622500", "161506.112500", "161507.602500", "161509.092500", "161510.582500", "161512.072500", "161513.562500", "161515.052500", "161516.542500", "161518.032500", "161519.522500", "161521.012500", "161522.502500", "161523.992500", "161525.482500", "161526.972500", "161528.462500", "161529.952500", "161531.442500", "161532.932500", "161534.422500", "161535.912500", "161537.402500", "161538.892500", "161540.382500", "161541.872500", "161543.362500", "161544.852500", "161546.342500", "161547.832500", "161549.322500", "161550.812500", "161552.302500", "161553.792500", "161555.282500", "161556.772500", "161558.262500", "161559.752500", "161601.242500", "161602.732500", "161604.222500", "161605.712500", "161607.202500", "161608.692500", "161610.182500", "161611.672500", "161613.162500", "161614.652500", "161616.142500", "161617.632500", "161619.122500", "161620.612500", "161622.102500", "161623.592500", "161625.082500", "161626.572500", "161628.062500", "161629.552500", "161631.042500", "161632.532500", "161634.022500", "161635.512500", "161637.002500", "161638.492500", "161639.982500", "161641.472500", "161642.962500", "161644.452500", "161645.942500", "161647.432500", "161648.922500", "161650.412500", "161651.902500", "161653.392500", "161654.882500", "161656.372500", "161657.862500", "161659.352500", "161700.842500", "161702.332500", "161703.822500", "161705.312500", "161706.802500", "161708.292500", "161709.782500", "161711.272500", "161712.762500", "161714.252500", "161715.742500", "161717.232500", "161718.722500", "161720.212500", "161721.702500", "161723.192500", "161724.682500", "161726.172500", "161727.662500", "161729.152500", "161730.642500", "161732.132500", "161733.622500", "161735.112500", "161736.602500", "161738.092500", "161739.582500", "161741.072500", "161742.562500", "161744.052500", "161745.542500", "161747.032500", "161748.522500", "161750.012500", "161751.502500", "161752.992500", "161754.482500", "161755.972500", "161757.462500", "161758.952500", "161800.442500", "161801.932500", "161803.422500", "161804.912500", "161806.402500", "161807.892500", "161809.382500", "161810.872500", "161812.362500", "161813.852500", "161815.342500", "161816.832500", "161818.322500", "161819.812500", "161821.302500", "161822.792500", "161824.282500", "161825.772500", "161827.262500", "161828.752500", "161830.242500", "161831.732500", "161833.222500", "161834.712500", "161836.202500", "161837.692500", "161839.182500", "161840.672500", "161842.162500", "161843.652500", "161845.142500", "161846.632500", "161848.122500", "161849.612500", "161851.102500", "161852.592500", "161854.082500", "161855.572500", "161857.062500", "161858.552500", "161900.042500", "161901.532500", "161903.022500", "161904.512500", "161906.002500", "161907.492500", "161908.982500", "161910.472500", "161911.962500", "161913.452500", "161914.942500", "161916.432500", "161917.922500", "161919.412500", "161920.902500", "161922.392500", "161923.882500", "161925.372500", "161926.862500", "161928.352500", "161929.842500", "161931.332500", "161932.822500", "161934.312500", "161935.802500", "161937.292500", "161938.782500", "161940.272500", "161941.762500", "161943.252500", "161944.742500", "161946.232500", "161947.722500", "161949.212500", "161950.702500", "161952.192500", "161953.682500", "161955.172500", "161956.662500", "161958.152500", "161959.642500", "162001.132500", "162002.622500", "162004.112500", "162005.602500", "162007.092500", "162008.582500", "162010.072500", "162011.562500", "162013.052500", "162014.542500", "162016.032500", "162017.522500", "162019.012500", "162020.502500", "162021.992500", "162023.482500", "162024.972500", "162026.462500", "162027.952500", "162029.442500", "162030.932500", "162032.422500", "162033.912500", "162035.402500", "162036.892500", "162038.382500", "162039.872500", "162041.362500", "162042.852500", "162044.342500", "162045.832500", "162047.322500", "162048.812500", "162050.302500", "162051.792500", "162053.282500", "162054.772500", "162056.262500", "162057.752500", "162059.242500", "162100.732500", "162102.222500", "162103.712500", "162105.202500", "162106.692500", "162108.182500", "162109.672500", "162111.162500", "162112.652500", "162114.142500", "162115.632500", "162117.122500", "162118.612500", "162120.102500", "162121.592500", "162123.082500", "162124.572500", "162126.062500", "162127.552500", "162129.042500", "162130.532500", "162132.022500", "162133.512500", "162135.002500", "162136.492500", "162137.982500", "162139.472500", "162140.962500", "162142.452500", "162143.942500", "162145.432500", "162146.922500", "162148.412500", "162149.902500", "162151.392500", "162152.882500", "162154.372500", "162155.862500", "162157.352500", "162158.842500", "162200.332500", "162201.822500", "162203.312500", "162204.802500", "162206.292500", "162207.782500", "162209.272500", "162210.762500", "162212.252500", "162213.742500", "162215.232500", "162216.722500", "162218.212500", "162219.702500", "162221.192500", "162222.682500", "162224.172500", "162225.662500", "162227.152500", "162228.642500", "162230.132500", "162231.622500", "162233.112500", "162234.602500", "162236.092500", "162237.582500", "162239.072500", "162240.562500", "162242.052500", "162243.542500", "162245.032500", "162246.522500", "162248.012500", "162249.502500", "162250.992500", "162252.482500", "162253.972500", "162255.462500", "162256.952500", "162258.442500", "162259.932500", "162301.422500", "162302.912500", "162304.402500", "162305.892500", "162307.382500", "162308.872500", "162310.362500", "162311.852500", "162313.342500", "162314.832500", "162316.322500", "162317.812500", "162319.302500", "162320.792500", "162322.282500", "162323.772500", "162325.262500", "162326.752500", "162328.242500", "162329.732500", "162331.222500", "162332.712500", "162334.202500", "162335.692500", "162337.182500", "162338.672500", "162340.162500", "162341.652500", "162343.142500", "162344.632500", "162346.122500", "162347.612500", "162349.102500", "162350.592500", "162352.082500", "162353.572500", "162355.062500", "162356.552500", "162358.042500", "162359.532500", "162401.022500", "162402.512500", "162404.002500", "162405.492500", "162406.982500", "162408.472500", "162409.962500", "162411.452500", "162412.942500", "162414.432500", "162415.922500", "162417.412500", "162418.902500", "162420.392500", "162421.882500", "162423.372500", "162424.862500", "162426.352500", "162427.842500", "162429.332500", "162430.822500", "162432.312500", "162433.802500", "162435.292500", "162436.782500", "162438.272500", "162439.762500", "162441.252500", "162442.742500", "162444.232500", "162445.722500", "162447.212500", "162448.702500", "162450.192500", "162451.682500", "162453.172500", "162454.662500", "162456.152500", "162457.642500", "162459.132500", "162500.622500", "162502.112500", "162503.602500"],
      "ContentTime": ["161526.661000", "161526.665000", "161526.669000", "161526.672000", "161526.681000", "161526.684000", "161526.688000", "161526.691000", "161526.694000", "161526.698000", "161526.701000", "161526.705000", "161526.708000", "161526.715000", "161526.718000", "161526.722000", "161526.725000", "161526.728000", "161526.732000", "161526.735000", "161526.739000", "161526.742000", "161526.745000", "161526.749000", "161526.752000", "161526.755000", "161526.759000", "161526.762000", "161546.624000", "161546.628000", "161546.640000", "161546.644000", "161546.647000", "161546.650000", "161546.654000", "161546.657000", "161546.661000", "161546.664000", "161546.668000", "161546.672000", "161546.675000", "161546.679000", "161546.683000", "161546.687000", "161546.691000", "161546.697000", "161546.701000", "161546.705000", "161606.623000", "161606.627000", "161606.630000", "161606.634000", "161606.637000", "161606.641000", "161606.644000", "161606.648000", "161606.651000", "161606.654000", "161606.677000", "161606.680000", "161606.684000", "161606.687000", "161606.691000", "161606.694000", "161606.702000", "161606.705000", "161606.709000", "161606.712000", "161606.716000", "161626.624000", "161626.628000", "161626.631000", "161626.635000", "161626.644000", "161626.648000", "161626.651000", "161626.662000", "161626.665000", "161626.669000", "161626.672000", "161626.675000", "161626.679000", "161626.682000", "161626.686000", "161626.689000", "161626.698000", "161626.701000", "161626.705000", "161626.708000", "161706.624000", "161706.628000", "161706.631000", "161706.635000", "161706.638000", "161706.642000", "161706.645000", "161706.649000", "161706.652000", "161706.656000", "161706.659000", "161706.662000", "161706.666000", "161706.669000", "161706.673000", "161706.676000", "161706.680000", "161706.683000", "161706.686000", "161706.690000", "161706.693000", "161706.697000", "161706.700000", "161706.704000", "161706.707000", "161706.710000", "161706.714000", "161706.717000", "161706.721000", "161746.624000", "161746.628000", "161746.632000", "161746.635000", "161746.638000", "161746.642000", "161746.645000", "161746.649000", "161746.652000", "161746.655000", "161746.659000", "161746.662000", "161746.666000", "161746.669000", "161746.672000", "161746.676000", "161746.679000", "161746.683000", "161746.686000", "161746.689000", "161746.693000", "161746.696000", "161746.700000", "161746.703000", "161746.706000", "161746.710000", "161746.713000", "161826.623000", "161826.627000", "161826.630000", "161826.634000", "161826.637000", "161826.641000", "161826.644000", "161826.647000", "161826.651000", "161826.655000", "161826.659000", "161826.676000", "161826.680000", "161826.684000", "161826.688000", "161826.691000", "161826.694000", "161826.698000", "161826.701000", "161826.705000", "161826.708000", "161826.712000", "161826.715000", "161826.722000", "161826.726000", "161826.729000", "161906.624000", "161906.628000", "161906.631000", "161906.635000", "161906.638000", "161906.642000", "161906.645000", "161906.648000", "161906.652000", "161906.655000", "161906.659000", "161906.662000", "161906.666000", "161906.669000", "161906.672000", "161906.676000", "161906.679000", "161906.683000", "161906.686000", "161906.689000", "161906.693000", "161906.696000", "161906.700000", "161906.703000", "161906.706000", "161906.710000", "161906.713000", "161946.624000", "161946.628000", "161946.631000", "161946.635000", "161946.638000", "161946.642000", "161946.645000", "161946.648000", "161946.652000", "161946.655000", "161946.659000", "161946.662000", "161946.665000", "161946.669000", "161946.672000", "161946.676000", "161946.679000", "161946.682000", "161946.686000", "161946.689000", "161946.693000", "161946.696000", "161946.699000", "161946.703000", "161946.706000", "161946.710000", "161946.713000", "162026.644000", "162026.648000", "162026.651000", "162026.655000", "162026.658000", "162026.662000", "162026.665000", "162026.668000", "162026.672000", "162026.675000", "162026.679000", "162026.682000", "162026.685000", "162026.689000", "162026.692000", "162026.696000", "162026.699000", "162026.703000", "162026.706000", "162026.710000", "162026.713000", "162026.716000", "162026.720000", "162026.723000", "162026.727000", "162026.730000", "162026.733000", "162106.624000", "162106.628000", "162106.632000", "162106.635000", "162106.638000", "162106.642000", "162106.645000", "162106.649000", "162106.652000", "162106.656000", "162106.660000", "162106.664000", "162106.667000", "162106.671000", "162106.674000", "162106.678000", "162106.681000", "162106.685000", "162106.688000", "162106.691000", "162106.695000", "162106.698000", "162106.702000", "162106.705000", "162106.708000", "162106.712000", "162106.715000", "162146.624000", "162146.628000", "162146.632000", "162146.635000", "162146.638000", "162146.642000", "162146.645000", "162146.649000", "162146.652000", "162146.655000", "162146.659000", "162146.662000", "162146.666000", "162146.669000", "162146.672000", "162146.676000", "162146.679000", "162146.683000", "162146.686000", "162146.690000", "162146.693000", "162146.696000", "162146.700000", "162146.703000", "162146.707000", "162146.710000", "162146.713000", "162226.624000", "162226.628000", "162226.632000", "162226.635000", "162226.638000", "162226.642000", "162226.645000", "162226.649000", "162226.652000", "162226.655000", "162226.659000", "162226.662000", "162226.666000", "162226.669000", "162226.672000", "162226.676000", "162226.679000", "162226.683000", "162226.686000", "162226.690000", "162226.693000", "162226.696000", "162226.700000", "162226.703000", "162226.707000", "162226.710000", "162226.713000", "162306.623000", "162306.627000", "162306.630000", "162306.634000", "162306.637000", "162306.652000", "162306.656000", "162306.660000", "162306.663000", "162306.666000", "162306.670000", "162306.673000", "162306.677000", "162306.680000", "162306.683000", "162306.687000", "162306.690000", "162306.694000", "162306.697000", "162306.701000", "162306.704000", "162306.708000", "162306.711000", "162306.714000", "162306.718000", "162306.721000", "162346.624000", "162346.628000", "162346.639000", "162346.642000", "162346.645000", "162346.649000", "162346.652000", "162346.656000", "162346.659000", "162346.662000", "162346.666000", "162346.669000", "162346.673000", "162346.676000", "162346.679000", "162346.683000", "162346.686000", "162346.690000", "162346.693000", "162346.696000", "162346.700000", "162346.703000", "162346.707000", "162346.710000", "162346.713000", "162346.717000", "162346.720000", "162426.624000", "162426.628000", "162426.631000", "162426.635000", "162426.638000", "162426.642000", "162426.645000", "162426.648000", "162426.652000", "162426.655000", "162426.659000", "162426.662000", "162426.666000", "162426.669000", "162426.673000", "162426.676000", "162426.679000", "162426.683000", "162426.686000", "162426.690000", "162426.693000", "162426.696000", "162426.700000", "162426.703000", "162426.707000", "162426.710000", "162426.714000", "162506.624000", "162506.628000", "162506.631000", "162506.635000", "162506.638000", "162506.642000", "162506.645000", "162506.648000", "162506.652000", "162506.655000", "162506.659000", "162506.662000", "162506.666000", "162506.669000", "162506.672000", "162506.676000", "162506.679000", "162506.705000", "162506.709000", "162506.715000", "162506.719000", "162506.723000", "162506.726000", "162506.730000", "162506.734000", "162506.738000", "162506.742000"],
