{
  "AcquisitionMatrixPE": 104,
  "AcquisitionNumber": 1,
  "AcquisitionTime": "15:33:21.277500",
  "BandwidthPerPixelPhaseEncode": 17.17,
  "BaseResolution": 104,
  "BodyPartExamined": "BRAIN",
  "CoilCombinationMethod": "Sum of Squares",
  "ConsistencyInfo": "N4_VE11C_LATEST_20160120",
  "ConversionSoftware": "dcm2niix",
  "ConversionSoftwareVersion": "v1.0.20211006",
  "DerivedVendorReportedEchoSpacing": 0.000560011,
  "DeviceSerialNumber": "167006",
  "DwellTime": 2.1e-06,
  "EchoTime": 0.037,
  "EchoTrainLength": 104,
  "EffectiveEchoSpacing": 0.000560011,
  "FlipAngle": 52,
  "HeudiconvVersion": "0.11.3.post9+gc939bf8",
  "ImageComments": "Unaliased MB4/PE3/LB",
  "ImageOrientationPatientDICOM": [0.999545, -0.0293842, -0.00675938, 0.0253011, 0.939338, -0.34206],
  "ImageOrientationText": "Tra>Cor(-20.0)>Sag(-0.9)",
  "ImageType": [
    "ORIGINAL",
    "PRIMARY",
    "M",
    "MB",
    "ND",
    "MOSAIC"
],
  "ImagingFrequency": 123.259,
  "InPlanePhaseEncodingDirectionDICOM": "COL",
  "InstitutionAddress": "Chemin Queen-Mary 4565,Montreal,District,CA,H3W 1W5",
  "InstitutionName": "IUGM",
  "InstitutionalDepartmentName": "Department",
  "MRAcquisitionType": "2D",
  "MagneticFieldStrength": 3,
  "Manufacturer": "Siemens",
  "ManufacturersModelName": "Prisma_fit",
  "MatrixCoilMode": "SENSE",
  "Modality": "MR",
  "MultibandAccelerationFactor": 4,
  "PartialFourier": 1,
  "PatientPosition": "HFS",
  "PercentPhaseFOV": 100,
  "PercentSampling": 100,
  "PhaseEncodingDirection": "j",
  "PhaseEncodingSteps": 104,
  "PhaseResolution": 1,
  "PixelBandwidth": 2290,
  "ProcedureStepDescription": "games^mariostars",
  "ProtocolName": "func_task-mariostars_run-01",
  "PulseSequenceDetails": "%CustomerSeq%\\cmrr_mbep2d_bold",
  "ReceiveCoilActiveElements": "HC1-7;NC1,2",
  "ReceiveCoilName": "HeadNeck_64",
  "ReconMatrixPE": 104,
  "RepetitionTime": 1.49,
  "SAR": 0.0635038,
  "ScanOptions": "FS",
  "ScanningSequence": "EP",
  "SequenceName": "epfid2d1_104",
  "SequenceVariant": "SK\\SS",
  "SeriesDescription": "func_task-mariostars_run-01",
  "SeriesNumber": 11,
  "ShimSetting": [617, -7249, -8822, 524, -4, -214, -108, -13],
  "SliceThickness": 2,
  "SliceTiming": [0, 0.7825, 0.0975, 0.8825, 0.195, 0.98, 0.295, 1.0775, 0.3925, 1.175, 0.49, 1.2725, 0.5875, 1.3725, 0.685, 0, 0.7825, 0.0975, 0.8825, 0.195, 0.98, 0.295, 1.0775, 0.3925, 1.175, 0.49, 1.2725, 0.5875, 1.3725, 0.685, 0, 0.7825, 0.0975, 0.8825, 0.195, 0.98, 0.295, 1.0775, 0.3925, 1.175, 0.49, 1.2725, 0.5875, 1.3725, 0.685, 0, 0.7825, 0.0975, 0.8825, 0.195, 0.98, 0.295, 1.0775, 0.3925, 1.175, 0.49, 1.2725, 0.5875, 1.3725, 0.685],
  "SoftwareVersions": "syngo MR E11",
  "SpacingBetweenSlices": 2,
  "StationName": "MRC35049",
  "TaskName": "mariostars",
  "TotalReadoutTime": 0.0576811,
  "TxRefAmp": 258.391,
  "WipMemBlock": "07242bba-445f-470e-a573-a24689cfac66||Sequence: R017 ve11c/master r/75a17815+; Jun 28 2022 16:32:11 by eja",
  "dcmmeta_affine": [
    [-1.9990906715393066, 0.05060223862528801, -0.03280100226402283, 104.32746887207031],
    [0.058768488466739655, 1.8786752223968506, -0.6834659576416016, -66.94488525390625],
    [-0.013518761843442917, 0.6841190457344055, 1.8793079853057861, -65.62821960449219],
    [0.0, 0.0, 0.0, 1.0]
],
  "dcmmeta_reorient_transform": [
    [0.0, -1.0, 0.0, 103.0],
    [1.0, 0.0, 0.0, 0.0],
    [0.0, 0.0, 1.0, 0.0],
    [0.0, 0.0, 0.0, 1.0]
],
  "dcmmeta_shape": [104, 104, 60, 436],
  "dcmmeta_slice_dim": 2,
  "dcmmeta_version": 0.6,
  "global": {
    "const": {
      "AcquisitionMatrix": [104, 0, 0, 104],
      "AngioFlag": "N",
      "BitsAllocated": 16,
      "BitsStored": 16,
      "BodyPartExamined": "BRAIN",
      "Columns": 832,
      "EchoNumbers": 1,
      "EchoTime": 37.0,
      "EchoTrainLength": 104,
      "FlipAngle": 52.0,
      "HighBit": 15,
      "ImageOrientationPatient": [0.99954533509353, -0.0293842451375, -0.0067593809232, 0.02530111959732, 0.9393376097414, -0.3420595098407],
      "ImagePositionPatient": [-855.62771919584, -789.00471467024, 258.77619315311],
      "ImageType": [
        "ORIGINAL",
        "PRIMARY",
        "M",
        "MB",
        "ND",
        "MOSAIC"
],
      "ImagedNucleus": "1H",
      "ImagingFrequency": 123.258769,
      "InPlanePhaseEncodingDirection": "COL",
      "MRAcquisitionType": "2D",
      "MagneticFieldStrength": 3.0,
      "Manufacturer": "SIEMENS",
      "ManufacturerModelName": "Prisma_fit",
      "Modality": "MR",
      "NumberOfAverages": 1.0,
      "NumberOfPhaseEncodingSteps": 104,
      "PercentPhaseFieldOfView": 100.0,
      "PercentSampling": 100.0,
      "PerformedProcedureStepStartTime": "144706.079000",
      "PhotometricInterpretation": "MONOCHROME2",
      "PixelBandwidth": 2290.0,
      "PixelRepresentation": 0,
      "PixelSpacing": [2.0, 2.0],
      "ProtocolName": "func_task-mariostars_run-01",
      "RepetitionTime": 1490.0,
      "Rows": 832,
      "SAR": 0.06350380781003,
      "SamplesPerPixel": 1,
      "ScanOptions": "FS",
      "ScanningSequence": "EP",
      "SequenceName": "epfid2d1_104",
      "SequenceVariant": [
        "SK",
        "SS"
],
      "SeriesDescription": "func_task-mariostars_run-01",
      "SeriesNumber": 11,
      "SeriesTime": "153446.664000",
      "SliceLocation": -40.501566066893,
      "SliceThickness": 2.0,
      "SmallestImagePixelValue": 0,
      "SoftwareVersions": "syngo MR E11",
      "SpacingBetweenSlices": 2.0000000598681,
      "SpecificCharacterSet": "ISO_IR 100",
      "StudyID": "1",
      "StudyTime": "144705.998000",
      "TransmitCoilName": "Body",
      "VariableFlipAngleFlag": "N",
      "WindowCenterWidthExplanation": "Algo1",
      "dBdt": 0.0},
    "slices": {}
  },
  "time": {
    "samples": {
      "AcquisitionNumber": [1, 2, 3, 4, 5, 6, 7, 8, 9, 10, 11, 12, 13, 14, 15, 16, 17, 18, 19, 20, 21, 22, 23, 24, 25, 26, 27, 28, 29, 30, 31, 32, 33, 34, 35, 36, 37, 38, 39, 40, 41, 42, 43, 44, 45, 46, 47, 48, 49, 50, 51, 52, 53, 54, 55, 56, 57, 58, 59, 60, 61, 62, 63, 64, 65, 66, 67, 68, 69, 70, 71, 72, 73, 74, 75, 76, 77, 78, 79, 80, 81, 82, 83, 84, 85, 86, 87, 88, 89, 90, 91, 92, 93, 94, 95, 96, 97, 98, 99, 100, 101, 102, 103, 104, 105, 106, 107, 108, 109, 110, 111, 112, 113, 114, 115, 116, 117, 118, 119, 120, 121, 122, 123, 124, 125, 126, 127, 128, 129, 130, 131, 132, 133, 134, 135, 136, 137, 138, 139, 140, 141, 142, 143, 144, 145, 146, 147, 148, 149, 150, 151, 152, 153, 154, 155, 156, 157, 158, 159, 160, 161, 162, 163, 164, 165, 166, 167, 168, 169, 170, 171, 172, 173, 174, 175, 176, 177, 178, 179, 180, 181, 182, 183, 184, 185, 186, 187, 188, 189, 190, 191, 192, 193, 194, 195, 196, 197, 198, 199, 200, 201, 202, 203, 204, 205, 206, 207, 208, 209, 210, 211, 212, 213, 214, 215, 216, 217, 218, 219, 220, 221, 222, 223, 224, 225, 226, 227, 228, 229, 230, 231, 232, 233, 234, 235, 236, 237, 238, 239, 240, 241, 242, 243, 244, 245, 246, 247, 248, 249, 250, 251, 252, 253, 254, 255, 256, 257, 258, 259, 260, 261, 262, 263, 264, 265, 266, 267, 268, 269, 270, 271, 272, 273, 274, 275, 276, 277, 278, 279, 280, 281, 282, 283, 284, 285, 286, 287, 288, 289, 290, 291, 292, 293, 294, 295, 296, 297, 298, 299, 300, 301, 302, 303, 304, 305, 306, 307, 308, 309, 310, 311, 312, 313, 314, 315, 316, 317, 318, 319, 320, 321, 322, 323, 324, 325, 326, 327, 328, 329, 330, 331, 332, 333, 334, 335, 336, 337, 338, 339, 340, 341, 342, 343, 344, 345, 346, 347, 348, 349, 350, 351, 352, 353, 354, 355, 356, 357, 358, 359, 360, 361, 362, 363, 364, 365, 366, 367, 368, 369, 370, 371, 372, 373, 374, 375, 376, 377, 378, 379, 380, 381, 382, 383, 384, 385, 386, 387, 388, 389, 390, 391, 392, 393, 394, 395, 396, 397, 398, 399, 400, 401, 402, 403, 404, 405, 406, 407, 408, 409, 410, 411, 412, 413, 414, 415, 416, 417, 418, 419, 420, 421, 422, 423, 424, 425, 426, 427, 428, 429, 430, 431, 432, 433, 434, 435, 436],
      "AcquisitionTime": ["153321.277500", "153322.767500", "153324.257500", "153325.747500", "153327.237500", "153328.727500", "153330.217500", "153331.707500", "153333.197500", "153334.687500", "153336.177500", "153337.667500", "153339.157500", "153340.647500", "153342.137500", "153343.627500", "153345.117500", "153346.607500", "153348.097500", "153349.587500", "153351.077500", "153352.567500", "153354.057500", "153355.547500", "153357.037500", "153358.527500", "153400.017500", "153401.507500", "153402.997500", "153404.487500", "153405.977500", "153407.467500", "153408.957500", "153410.447500", "153411.937500", "153413.427500", "153414.917500", "153416.407500", "153417.897500", "153419.387500", "153420.877500", "153422.367500", "153423.857500", "153425.347500", "153426.837500", "153428.327500", "153429.817500", "153431.307500", "153432.797500", "153434.287500", "153435.777500", "153437.267500", "153438.757500", "153440.247500", "153441.737500", "153443.227500", "153444.717500", "153446.207500", "153447.697500", "153449.187500", "153450.677500", "153452.167500", "153453.657500", "153455.147500", "153456.637500", "153458.127500", "153459.617500", "153501.107500", "153502.597500", "153504.087500", "153505.577500", "153507.067500", "153508.557500", "153510.047500", "153511.537500", "153513.027500", "153514.517500", "153516.007500", "153517.497500", "153518.987500", "153520.477500", "153521.967500", "153523.457500", "153524.947500", "153526.437500", "153527.927500", "153529.417500", "153530.907500", "153532.397500", "153533.887500", "153535.377500", "153536.867500", "153538.357500", "153539.847500", "153541.337500", "153542.827500", "153544.317500", "153545.807500", "153547.297500", "153548.787500", "153550.277500", "153551.767500", "153553.257500", "153554.747500", "153556.237500", "153557.727500", "153559.217500", "153600.707500", "153602.197500", "153603.687500", "153605.177500", "153606.667500", "153608.157500", "153609.647500", "153611.137500", "153612.627500", "153614.117500", "153615.607500", "153617.097500", "153618.587500", "153620.077500", "153621.567500", "153623.057500", "153624.547500", "153626.037500", "153627.527500", "153629.017500", "153630.507500", "153631.997500", "153633.487500", "153634.977500", "153636.467500", "153637.957500", "153639.447500", "153640.937500", "153642.427500", "153643.917500", "153645.407500", "153646.897500", "153648.387500", "153649.877500", "153651.367500", "153652.857500", "153654.347500", "153655.837500", "153657.327500", "153658.817500", "153700.307500", "153701.797500", "153703.287500", "153704.777500", "153706.267500", "153707.757500", "153709.247500", "153710.737500", "153712.227500", "153713.717500", "153715.207500", "153716.697500", "153718.187500", "153719.677500", "153721.167500", "153722.657500", "153724.147500", "153725.637500", "153727.127500", "153728.617500", "153730.107500", "153731.597500", "153733.087500", "153734.577500", "153736.067500", "153737.557500", "153739.047500", "153740.537500", "153742.027500", "153743.517500", "153745.007500", "153746.497500", "153747.987500", "153749.477500", "153750.967500", "153752.457500", "153753.947500", "153755.437500", "153756.927500", "153758.417500", "153759.907500", "153801.397500", "153802.887500", "153804.377500", "153805.867500", "153807.357500", "153808.847500", "153810.337500", "153811.827500", "153813.317500", "153814.807500", "153816.297500", "153817.787500", "153819.277500", "153820.767500", "153822.257500", "153823.747500", "153825.237500", "153826.727500", "153828.217500", "153829.707500", "153831.197500", "153832.687500", "153834.177500", "153835.667500", "153837.157500", "153838.647500", "153840.137500", "153841.627500", "153843.117500", "153844.607500", "153846.097500", "153847.587500", "153849.077500", "153850.567500", "153852.057500", "153853.547500", "153855.037500", "153856.527500", "153858.017500", "153859.507500", "153900.997500", "153902.487500", "153903.977500", "153905.467500", "153906.957500", "153908.447500", "153909.937500", "153911.427500", "153912.917500", "153914.407500", "153915.897500", "153917.387500", "153918.877500", "153920.367500", "153921.857500", "153923.347500", "153924.837500", "153926.327500", "153927.817500", "153929.307500", "153930.797500", "153932.287500", "153933.777500", "153935.267500", "153936.757500", "153938.247500", "153939.737500", "153941.227500", "153942.717500", "153944.207500", "153945.697500", "153947.187500", "153948.677500", "153950.167500", "153951.657500", "153953.147500", "153954.637500", "153956.127500", "153957.617500", "153959.107500", "154000.597500", "154002.087500", "154003.577500", "154005.067500", "154006.557500", "154008.047500", "154009.537500", "154011.027500", "154012.517500", "154014.007500", "154015.497500", "154016.987500", "154018.477500", "154019.967500", "154021.457500", "154022.947500", "154024.437500", "154025.927500", "154027.417500", "154028.907500", "154030.397500", "154031.887500", "154033.377500", "154034.867500", "154036.357500", "154037.847500", "154039.337500", "154040.827500", "154042.317500", "154043.807500", "154045.297500", "154046.787500", "154048.277500", "154049.767500", "154051.257500", "154052.747500", "154054.237500", "154055.727500", "154057.217500", "154058.707500", "154100.197500", "154101.687500", "154103.177500", "154104.667500", "154106.157500", "154107.647500", "154109.137500", "154110.627500", "154112.117500", "154113.607500", "154115.097500", "154116.587500", "154118.077500", "154119.567500", "154121.057500", "154122.547500", "154124.037500", "154125.527500", "154127.017500", "154128.507500", "154129.997500", "154131.487500", "154132.977500", "154134.467500", "154135.957500", "154137.447500", "154138.937500", "154140.427500", "154141.917500", "154143.407500", "154144.897500", "154146.387500", "154147.877500", "154149.367500", "154150.857500", "154152.347500", "154153.837500", "154155.327500", "154156.817500", "154158.307500", "154159.797500", "154201.287500", "154202.777500", "154204.267500", "154205.757500", "154207.247500", "154208.737500", "154210.227500", "154211.717500", "154213.207500", "154214.697500", "154216.187500", "154217.677500", "154219.167500", "154220.657500", "154222.147500", "154223.637500", "154225.127500", "154226.617500", "154228.107500", "154229.597500", "154231.087500", "154232.577500", "154234.067500", "154235.557500", "154237.047500", "154238.537500", "154240.027500", "154241.517500", "154243.007500", "154244.497500", "154245.987500", "154247.477500", "154248.967500", "154250.457500", "154251.947500", "154253.437500", "154254.927500", "154256.417500", "154257.907500", "154259.397500", "154300.887500", "154302.377500", "154303.867500", "154305.357500", "154306.847500", "154308.337500", "154309.827500", "154311.317500", "154312.807500", "154314.297500", "154315.787500", "154317.277500", "154318.767500", "154320.257500", "154321.747500", "154323.237500", "154324.727500", "154326.217500", "154327.707500", "154329.197500", "154330.687500", "154332.177500", "154333.667500", "154335.157500", "154336.647500", "154338.137500", "154339.627500", "154341.117500", "154342.607500", "154344.097500", "154345.587500", "154347.077500", "154348.567500", "154350.057500", "154351.547500", "154353.037500", "154354.527500", "154356.017500", "154357.507500", "154358.997500", "154400.487500", "154401.977500", "154403.467500", "154404.957500", "154406.447500", "154407.937500", "154409.427500"],
      "ContentTime": ["153446.668000", "153446.672000", "153446.675000", "153446.678000", "153446.682000", "153446.685000", "153446.688000", "153446.692000", "153446.695000", "153446.709000", "153446.713000", "153446.716000", "153446.719000", "153446.723000", "153446.726000", "153446.730000", "153446.733000", "153446.737000", "153446.740000", "153446.743000", "153446.747000", "153446.750000", "153446.753000", "153446.757000", "153446.769000", "153446.772000", "153446.776000", "153446.779000", "153446.783000", "153446.786000", "153446.789000", "153446.793000", "153446.796000", "153446.799000", "153446.803000", "153446.813000", "153506.624000", "153506.628000", "153506.631000", "153506.635000", "153506.638000", "153506.641000", "153506.645000", "153506.648000", "153506.651000", "153506.655000", "153506.658000", "153506.661000", "153506.665000", "153506.668000", "153506.671000", "153506.675000", "153506.678000", "153506.682000", "153506.685000", "153506.688000", "153526.624000", "153526.628000", "153526.631000", "153526.636000", "153526.640000", "153526.644000", "153526.648000", "153526.652000", "153526.655000", "153526.660000", "153526.663000", "153526.667000", "153526.671000", "153526.674000", "153526.677000", "153526.681000", "153526.701000", "153526.704000", "153526.708000", "153526.711000", "153546.624000", "153546.628000", "153546.631000", "153546.635000", "153546.638000", "153546.641000", "153546.645000", "153546.648000", "153546.651000", "153546.655000", "153546.658000", "153546.661000", "153546.665000", "153546.668000", "153546.671000", "153546.675000", "153546.678000", "153546.681000", "153546.685000", "153546.688000", "153626.624000", "153626.628000", "153626.631000", "153626.635000", "153626.638000", "153626.641000", "153626.645000", "153626.648000", "153626.652000", "153626.655000", "153626.658000", "153626.662000", "153626.665000", "153626.668000", "153626.672000", "153626.675000", "153626.679000", "153626.682000", "153626.685000", "153626.699000", "153626.703000", "153626.706000", "153626.709000", "153626.713000", "153626.716000", "153626.719000", "153626.723000", "153706.624000", "153706.628000", "153706.631000", "153706.635000", "153706.638000", "153706.642000", "153706.645000", "153706.648000", "153706.652000", "153706.655000", "153706.659000", "153706.662000", "153706.665000", "153706.669000", "153706.672000", "153706.676000", "153706.679000", "153706.682000", "153706.686000", "153706.689000", "153706.693000", "153706.696000", "153706.699000", "153706.703000", "153706.706000", "153706.709000", "153706.713000", "153746.624000", "153746.628000", "153746.631000", "153746.635000", "153746.638000", "153746.641000", "153746.645000", "153746.648000", "153746.651000", "153746.655000", "153746.658000", "153746.662000", "153746.665000", "153746.668000", "153746.672000", "153746.675000", "153746.678000", "153746.682000", "153746.685000", "153746.688000", "153746.705000", "153746.708000", "153746.712000", "153746.715000", "153746.718000", "153746.722000", "153746.725000", "153826.624000", "153826.628000", "153826.631000", "153826.635000", "153826.638000", "153826.642000", "153826.645000", "153826.648000", "153826.652000", "153826.655000", "153826.658000", "153826.662000", "153826.665000", "153826.669000", "153826.672000", "153826.675000", "153826.679000", "153826.682000", "153826.685000", "153826.689000", "153826.692000", "153826.696000", "153826.699000", "153826.702000", "153826.706000", "153826.709000", "153826.712000", "153906.623000", "153906.627000", "153906.630000", "153906.634000", "153906.637000", "153906.641000", "153906.644000", "153906.647000", "153906.651000", "153906.654000", "153906.657000", "153906.661000", "153906.664000", "153906.667000", "153906.671000", "153906.674000", "153906.677000", "153906.681000", "153906.684000", "153906.688000", "153906.691000", "153906.694000", "153906.698000", "153906.701000", "153906.704000", "153906.708000", "153906.711000", "153946.624000", "153946.628000", "153946.631000", "153946.635000", "153946.638000", "153946.641000", "153946.645000", "153946.649000", "153946.652000", "153946.656000", "153946.659000", "153946.670000", "153946.674000", "153946.684000", "153946.688000", "153946.691000", "153946.694000", "153946.698000", "153946.701000", "153946.705000", "153946.708000", "153946.712000", "153946.715000", "153946.718000", "153946.722000", "153946.725000", "154026.624000", "154026.628000", "154026.644000", "154026.648000", "154026.651000", "154026.654000", "154026.658000", "154026.661000", "154026.664000", "154026.668000", "154026.671000", "154026.675000", "154026.678000", "154026.681000", "154026.685000", "154026.688000", "154026.692000", "154026.695000", "154026.698000", "154026.702000", "154026.705000", "154026.708000", "154026.712000", "154026.715000", "154026.718000", "154026.722000", "154026.725000", "154106.624000", "154106.628000", "154106.631000", "154106.635000", "154106.638000", "154106.642000", "154106.645000", "154106.648000", "154106.652000", "154106.655000", "154106.659000", "154106.671000", "154106.675000", "154106.678000", "154106.681000", "154106.685000", "154106.688000", "154106.692000", "154106.695000", "154106.698000", "154106.702000", "154106.705000", "154106.709000", "154106.712000", "154106.716000", "154106.719000", "154106.722000", "154146.624000", "154146.628000", "154146.642000", "154146.645000", "154146.648000", "154146.652000", "154146.655000", "154146.659000", "154146.662000", "154146.665000", "154146.669000", "154146.672000", "154146.675000", "154146.679000", "154146.682000", "154146.686000", "154146.689000", "154146.692000", "154146.696000", "154146.699000", "154146.703000", "154146.706000", "154146.709000", "154146.713000", "154146.716000", "154146.719000", "154146.723000", "154226.624000", "154226.628000", "154226.631000", "154226.635000", "154226.638000", "154226.642000", "154226.645000", "154226.648000", "154226.652000", "154226.655000", "154226.658000", "154226.662000", "154226.665000", "154226.669000", "154226.686000", "154226.690000", "154226.693000", "154226.697000", "154226.700000", "154226.703000", "154226.707000", "154226.710000", "154226.714000", "154226.717000", "154226.720000", "154226.724000", "154226.727000", "154306.624000", "154306.628000", "154306.632000", "154306.635000", "154306.638000", "154306.642000", "154306.645000", "154306.649000", "154306.653000", "154306.657000", "154306.660000", "154306.663000", "154306.667000", "154306.670000", "154306.674000", "154306.677000", "154306.680000", "154306.684000", "154306.687000", "154306.691000", "154306.694000", "154306.703000", "154306.706000", "154306.710000", "154306.713000", "154306.717000", "154306.720000", "154346.623000", "154346.627000", "154346.637000", "154346.641000", "154346.644000", "154346.647000", "154346.651000", "154346.655000", "154346.659000", "154346.663000", "154346.667000", "154346.672000", "154346.677000", "154346.681000", "154346.685000", "154346.688000", "154346.692000", "154346.695000", "154346.699000", "154346.702000", "154346.706000", "154346.709000", "154346.712000", "154346.716000", "154346.719000", "154346.723000", "154412.417000", "154412.420000", "154412.424000", "154412.427000", "154412.431000", "154412.434000", "154412.438000", "154412.441000", "154412.445000", "154412.448000", "154412.451000", "154412.455000", "154412.458000", "154412.462000", "154412.465000", "154412.468000", "154412.472000", "154412.475000"],
