{
  "AcquisitionMatrixPE": 104,
  "AcquisitionNumber": 1,
  "AcquisitionTime": "16:02:3.667500",
  "BandwidthPerPixelPhaseEncode": 17.17,
  "BaseResolution": 104,
  "BodyPartExamined": "BRAIN",
  "CoilCombinationMethod": "Sum of Squares",
  "ConsistencyInfo": "N4_VE11C_LATEST_20160120",
  "ConversionSoftware": "dcm2niix",
  "ConversionSoftwareVersion": "v1.0.20211006",
  "DerivedVendorReportedEchoSpacing": 0.000560011,
  "DeviceSerialNumber": "167006",
  "DwellTime": 2.1e-06,
  "EchoTime": 0.037,
  "EchoTime1": 0.037,
  "EchoTime2": 0.001,
  "EchoTrainLength": 104,
  "EffectiveEchoSpacing": 0.000560011,
  "FlipAngle": 52,
  "HeudiconvVersion": "0.11.3.post9+gc939bf8",
  "ImageComments": "Unaliased MB4/PE3/LB",
  "ImageOrientationPatientDICOM": [0.999469, -0.0321037, 0.00553107, 0.032108, 0.942091, -0.333817],
  "ImageOrientationText": "Tra>Cor(-19.5)>Sag(-0.3)",
  "ImageType": [
    "ORIGINAL",
    "PRIMARY",
    "P",
    "MB",
    "ND",
    "MOSAIC",
    "PHASE"
],
  "ImagingFrequency": 123.259,
  "InPlanePhaseEncodingDirectionDICOM": "COL",
  "InstitutionAddress": "Chemin Queen-Mary 4565,Montreal,District,CA,H3W 1W5",
  "InstitutionName": "IUGM",
  "InstitutionalDepartmentName": "Department",
  "MRAcquisitionType": "2D",
  "MagneticFieldStrength": 3,
  "Manufacturer": "Siemens",
  "ManufacturersModelName": "Prisma_fit",
  "MatrixCoilMode": "SENSE",
  "Modality": "MR",
  "MultibandAccelerationFactor": 4,
  "PartialFourier": 1,
  "PatientPosition": "HFS",
  "PercentPhaseFOV": 100,
  "PercentSampling": 100,
  "PhaseEncodingDirection": "j",
  "PhaseEncodingSteps": 104,
  "PhaseResolution": 1,
  "PixelBandwidth": 2290,
  "ProcedureStepDescription": "games^mariostars",
  "ProtocolName": "func_task-mariostars_run-04",
  "PulseSequenceDetails": "%CustomerSeq%\\cmrr_mbep2d_bold",
  "ReceiveCoilActiveElements": "HC1-7;NC1,2",
  "ReceiveCoilName": "HeadNeck_64",
  "ReconMatrixPE": 104,
  "RepetitionTime": 1.49,
  "SAR": 0.0530937,
  "ScanOptions": "FS",
  "ScanningSequence": "EP",
  "SequenceName": "epfid2d1_104",
  "SequenceVariant": "SK\\SS",
  "SeriesDescription": "func_task-mariostars_run-04",
  "SeriesNumber": 21,
  "ShimSetting": [620, -7258, -8814, 564, 20, -194, -91, -9],
  "SliceThickness": 2,
  "SliceTiming": [0, 0.7825, 0.0975, 0.8825, 0.195, 0.98, 0.2925, 1.0775, 0.3925, 1.175, 0.49, 1.2725, 0.5875, 1.3725, 0.685, 0, 0.7825, 0.0975, 0.8825, 0.195, 0.98, 0.2925, 1.0775, 0.3925, 1.175, 0.49, 1.2725, 0.5875, 1.3725, 0.685, 0, 0.7825, 0.0975, 0.8825, 0.195, 0.98, 0.2925, 1.0775, 0.3925, 1.175, 0.49, 1.2725, 0.5875, 1.3725, 0.685, 0, 0.7825, 0.0975, 0.8825, 0.195, 0.98, 0.2925, 1.0775, 0.3925, 1.175, 0.49, 1.2725, 0.5875, 1.3725, 0.685],
  "SoftwareVersions": "syngo MR E11",
  "SpacingBetweenSlices": 2,
  "StationName": "MRC35049",
  "TaskName": "mariostars",
  "TotalReadoutTime": 0.0576811,
  "TxRefAmp": 263.65,
  "WipMemBlock": "44f851d5-ab2d-4124-a795-a1524ddfa265||Sequence: R016 ve11c/master r/e634e98; Dec 19 2017 11:00:25 by eja",
  "dcmmeta_affine": [
    [-1.9989384412765503, 0.06421606987714767, -0.01101201493293047, 103.38607025146484],
    [0.06420745700597763, 1.8841816186904907, -0.6676353812217712, -68.53265380859375],
    [0.011062143370509148, 0.6676345467567444, 1.8852431774139404, -64.35456085205078],
    [0.0, 0.0, 0.0, 1.0]
],
  "dcmmeta_reorient_transform": [
    [0.0, -1.0, 0.0, 103.0],
    [1.0, 0.0, 0.0, 0.0],
    [0.0, 0.0, 1.0, 0.0],
    [0.0, 0.0, 0.0, 1.0]
],
  "dcmmeta_shape": [104, 104, 60, 432],
  "dcmmeta_slice_dim": 2,
  "dcmmeta_version": 0.6,
  "global": {
    "const": {
      "AcquisitionMatrix": [104, 0, 0, 104],
      "AngioFlag": "N",
      "BitsAllocated": 16,
      "BitsStored": 16,
      "BodyPartExamined": "BRAIN",
      "Columns": 832,
      "EchoNumbers": 1,
      "EchoTime": 37.0,
      "EchoTrainLength": 104,
      "FlipAngle": 52.0,
      "HighBit": 15,
      "ImageOrientationPatient": [0.99946923808835, -0.0321037281316, 0.00553107179033, 0.03210803638962, 0.94209081361254, -0.3338172747269],
      "ImagePositionPatient": [-860.98858117068, -788.00865010917, 243.40415372588],
      "ImageType": [
        "ORIGINAL",
        "PRIMARY",
        "P",
        "MB",
        "ND",
        "MOSAIC"
],
      "ImagedNucleus": "1H",
      "ImagingFrequency": 123.25882,
      "InPlanePhaseEncodingDirection": "COL",
      "LargestImagePixelValue": 4095,
      "MRAcquisitionType": "2D",
      "MagneticFieldStrength": 3.0,
      "Manufacturer": "SIEMENS",
      "ManufacturerModelName": "Prisma_fit",
      "Modality": "MR",
      "NumberOfAverages": 1.0,
      "NumberOfPhaseEncodingSteps": 104,
      "PercentPhaseFieldOfView": 100.0,
      "PercentSampling": 100.0,
      "PerformedProcedureStepStartTime": "142653.359000",
      "PhotometricInterpretation": "MONOCHROME2",
      "PixelBandwidth": 2290.0,
      "PixelRepresentation": 0,
      "PixelSpacing": [2.0, 2.0],
      "ProtocolName": "func_task-mariostars_run-04",
      "RepetitionTime": 1490.0,
      "RescaleIntercept": -4096.0,
      "RescaleSlope": 2.0,
      "RescaleType": "US",
      "Rows": 832,
      "SAR": 0.05309373076208,
      "SamplesPerPixel": 1,
      "ScanOptions": "FS",
      "ScanningSequence": "EP",
      "SequenceName": "epfid2d1_104",
      "SequenceVariant": [
        "SK",
        "SS"
],
      "SeriesDescription": "func_task-mariostars_run-04",
      "SeriesNumber": 21,
      "SeriesTime": "160310.027000",
      "SliceLocation": -38.353828974463,
      "SliceThickness": 2.0,
      "SmallestImagePixelValue": 0,
      "SoftwareVersions": "syngo MR E11",
      "SpacingBetweenSlices": 2.0000000483801,
      "SpecificCharacterSet": "ISO_IR 100",
      "StudyID": "1",
      "StudyTime": "142653.286000",
      "TransmitCoilName": "Body",
      "VariableFlipAngleFlag": "N",
      "WindowCenterWidthExplanation": "Algo1",
      "dBdt": 0.0},
    "slices": {}
  },
  "time": {
    "samples": {
      "AcquisitionNumber": [1, 2, 3, 4, 5, 6, 7, 8, 9, 10, 11, 12, 13, 14, 15, 16, 17, 18, 19, 20, 21, 22, 23, 24, 25, 26, 27, 28, 29, 30, 31, 32, 33, 34, 35, 36, 37, 38, 39, 40, 41, 42, 43, 44, 45, 46, 47, 48, 49, 50, 51, 52, 53, 54, 55, 56, 57, 58, 59, 60, 61, 62, 63, 64, 65, 66, 67, 68, 69, 70, 71, 72, 73, 74, 75, 76, 77, 78, 79, 80, 81, 82, 83, 84, 85, 86, 87, 88, 89, 90, 91, 92, 93, 94, 95, 96, 97, 98, 99, 100, 101, 102, 103, 104, 105, 106, 107, 108, 109, 110, 111, 112, 113, 114, 115, 116, 117, 118, 119, 120, 121, 122, 123, 124, 125, 126, 127, 128, 129, 130, 131, 132, 133, 134, 135, 136, 137, 138, 139, 140, 141, 142, 143, 144, 145, 146, 147, 148, 149, 150, 151, 152, 153, 154, 155, 156, 157, 158, 159, 160, 161, 162, 163, 164, 165, 166, 167, 168, 169, 170, 171, 172, 173, 174, 175, 176, 177, 178, 179, 180, 181, 182, 183, 184, 185, 186, 187, 188, 189, 190, 191, 192, 193, 194, 195, 196, 197, 198, 199, 200, 201, 202, 203, 204, 205, 206, 207, 208, 209, 210, 211, 212, 213, 214, 215, 216, 217, 218, 219, 220, 221, 222, 223, 224, 225, 226, 227, 228, 229, 230, 231, 232, 233, 234, 235, 236, 237, 238, 239, 240, 241, 242, 243, 244, 245, 246, 247, 248, 249, 250, 251, 252, 253, 254, 255, 256, 257, 258, 259, 260, 261, 262, 263, 264, 265, 266, 267, 268, 269, 270, 271, 272, 273, 274, 275, 276, 277, 278, 279, 280, 281, 282, 283, 284, 285, 286, 287, 288, 289, 290, 291, 292, 293, 294, 295, 296, 297, 298, 299, 300, 301, 302, 303, 304, 305, 306, 307, 308, 309, 310, 311, 312, 313, 314, 315, 316, 317, 318, 319, 320, 321, 322, 323, 324, 325, 326, 327, 328, 329, 330, 331, 332, 333, 334, 335, 336, 337, 338, 339, 340, 341, 342, 343, 344, 345, 346, 347, 348, 349, 350, 351, 352, 353, 354, 355, 356, 357, 358, 359, 360, 361, 362, 363, 364, 365, 366, 367, 368, 369, 370, 371, 372, 373, 374, 375, 376, 377, 378, 379, 380, 381, 382, 383, 384, 385, 386, 387, 388, 389, 390, 391, 392, 393, 394, 395, 396, 397, 398, 399, 400, 401, 402, 403, 404, 405, 406, 407, 408, 409, 410, 411, 412, 413, 414, 415, 416, 417, 418, 419, 420, 421, 422, 423, 424, 425, 426, 427, 428, 429, 430, 431, 432],
      "AcquisitionTime": ["160203.667500", "160205.157500", "160206.647500", "160208.137500", "160209.627500", "160211.117500", "160212.607500", "160214.097500", "160215.587500", "160217.077500", "160218.567500", "160220.057500", "160221.547500", "160223.037500", "160224.527500", "160226.017500", "160227.507500", "160228.997500", "160230.487500", "160231.977500", "160233.467500", "160234.957500", "160236.447500", "160237.937500", "160239.427500", "160240.917500", "160242.407500", "160243.897500", "160245.387500", "160246.877500", "160248.367500", "160249.857500", "160251.347500", "160252.837500", "160254.327500", "160255.817500", "160257.307500", "160258.797500", "160300.287500", "160301.777500", "160303.267500", "160304.757500", "160306.247500", "160307.737500", "160309.227500", "160310.717500", "160312.207500", "160313.697500", "160315.187500", "160316.677500", "160318.167500", "160319.657500", "160321.147500", "160322.637500", "160324.127500", "160325.617500", "160327.107500", "160328.597500", "160330.087500", "160331.577500", "160333.067500", "160334.557500", "160336.047500", "160337.537500", "160339.027500", "160340.517500", "160342.007500", "160343.497500", "160344.987500", "160346.477500", "160347.967500", "160349.457500", "160350.947500", "160352.437500", "160353.927500", "160355.417500", "160356.907500", "160358.397500", "160359.887500", "160401.377500", "160402.867500", "160404.357500", "160405.847500", "160407.337500", "160408.827500", "160410.317500", "160411.807500", "160413.297500", "160414.787500", "160416.277500", "160417.767500", "160419.257500", "160420.747500", "160422.237500", "160423.727500", "160425.217500", "160426.707500", "160428.197500", "160429.687500", "160431.177500", "160432.667500", "160434.157500", "160435.647500", "160437.137500", "160438.627500", "160440.117500", "160441.607500", "160443.097500", "160444.587500", "160446.077500", "160447.567500", "160449.057500", "160450.547500", "160452.037500", "160453.527500", "160455.017500", "160456.507500", "160457.997500", "160459.487500", "160500.977500", "160502.467500", "160503.957500", "160505.447500", "160506.937500", "160508.427500", "160509.917500", "160511.407500", "160512.897500", "160514.387500", "160515.877500", "160517.367500", "160518.857500", "160520.347500", "160521.837500", "160523.327500", "160524.817500", "160526.307500", "160527.797500", "160529.287500", "160530.777500", "160532.267500", "160533.757500", "160535.247500", "160536.737500", "160538.227500", "160539.717500", "160541.207500", "160542.697500", "160544.187500", "160545.677500", "160547.167500", "160548.657500", "160550.147500", "160551.637500", "160553.127500", "160554.617500", "160556.107500", "160557.597500", "160559.087500", "160600.577500", "160602.067500", "160603.557500", "160605.047500", "160606.537500", "160608.027500", "160609.517500", "160611.007500", "160612.497500", "160613.987500", "160615.477500", "160616.967500", "160618.457500", "160619.947500", "160621.437500", "160622.927500", "160624.417500", "160625.907500", "160627.397500", "160628.887500", "160630.377500", "160631.867500", "160633.357500", "160634.847500", "160636.337500", "160637.827500", "160639.317500", "160640.807500", "160642.297500", "160643.787500", "160645.277500", "160646.767500", "160648.257500", "160649.747500", "160651.237500", "160652.727500", "160654.217500", "160655.707500", "160657.197500", "160658.687500", "160700.177500", "160701.667500", "160703.157500", "160704.647500", "160706.137500", "160707.627500", "160709.117500", "160710.607500", "160712.097500", "160713.587500", "160715.077500", "160716.567500", "160718.057500", "160719.547500", "160721.037500", "160722.527500", "160724.017500", "160725.507500", "160726.997500", "160728.487500", "160729.977500", "160731.467500", "160732.957500", "160734.447500", "160735.937500", "160737.427500", "160738.917500", "160740.407500", "160741.897500", "160743.387500", "160744.877500", "160746.367500", "160747.857500", "160749.347500", "160750.837500", "160752.327500", "160753.817500", "160755.307500", "160756.797500", "160758.287500", "160759.777500", "160801.267500", "160802.757500", "160804.247500", "160805.737500", "160807.227500", "160808.717500", "160810.207500", "160811.697500", "160813.187500", "160814.677500", "160816.167500", "160817.657500", "160819.147500", "160820.637500", "160822.127500", "160823.617500", "160825.107500", "160826.597500", "160828.087500", "160829.577500", "160831.067500", "160832.557500", "160834.047500", "160835.537500", "160837.027500", "160838.517500", "160840.007500", "160841.497500", "160842.987500", "160844.477500", "160845.967500", "160847.457500", "160848.947500", "160850.437500", "160851.927500", "160853.417500", "160854.907500", "160856.397500", "160857.887500", "160859.377500", "160900.867500", "160902.357500", "160903.847500", "160905.337500", "160906.827500", "160908.317500", "160909.807500", "160911.297500", "160912.787500", "160914.277500", "160915.767500", "160917.257500", "160918.747500", "160920.237500", "160921.727500", "160923.217500", "160924.707500", "160926.197500", "160927.687500", "160929.177500", "160930.667500", "160932.157500", "160933.647500", "160935.137500", "160936.627500", "160938.117500", "160939.607500", "160941.097500", "160942.587500", "160944.077500", "160945.567500", "160947.057500", "160948.547500", "160950.037500", "160951.527500", "160953.017500", "160954.507500", "160955.997500", "160957.487500", "160958.977500", "161000.467500", "161001.957500", "161003.447500", "161004.937500", "161006.427500", "161007.917500", "161009.407500", "161010.897500", "161012.387500", "161013.877500", "161015.367500", "161016.857500", "161018.347500", "161019.837500", "161021.327500", "161022.817500", "161024.307500", "161025.797500", "161027.287500", "161028.777500", "161030.267500", "161031.757500", "161033.247500", "161034.737500", "161036.227500", "161037.717500", "161039.207500", "161040.697500", "161042.187500", "161043.677500", "161045.167500", "161046.657500", "161048.147500", "161049.637500", "161051.127500", "161052.617500", "161054.107500", "161055.597500", "161057.087500", "161058.577500", "161100.067500", "161101.557500", "161103.047500", "161104.537500", "161106.027500", "161107.517500", "161109.007500", "161110.497500", "161111.987500", "161113.477500", "161114.967500", "161116.457500", "161117.947500", "161119.437500", "161120.927500", "161122.417500", "161123.907500", "161125.397500", "161126.887500", "161128.377500", "161129.867500", "161131.357500", "161132.847500", "161134.337500", "161135.827500", "161137.317500", "161138.807500", "161140.297500", "161141.787500", "161143.277500", "161144.767500", "161146.257500", "161147.747500", "161149.237500", "161150.727500", "161152.217500", "161153.707500", "161155.197500", "161156.687500", "161158.177500", "161159.667500", "161201.157500", "161202.647500", "161204.137500", "161205.627500", "161207.117500", "161208.607500", "161210.097500", "161211.587500", "161213.077500", "161214.567500", "161216.057500", "161217.547500", "161219.037500", "161220.527500", "161222.017500", "161223.507500", "161224.997500", "161226.487500", "161227.977500", "161229.467500", "161230.957500", "161232.447500", "161233.937500", "161235.427500", "161236.917500", "161238.407500", "161239.897500", "161241.387500", "161242.877500", "161244.367500", "161245.857500"],
      "ContentTime": ["160310.029000", "160310.041000", "160310.043000", "160310.046000", "160310.048000", "160310.051000", "160310.054000", "160310.057000", "160310.059000", "160310.062000", "160310.065000", "160310.068000", "160330.032000", "160330.035000", "160330.037000", "160330.040000", "160330.043000", "160330.045000", "160330.048000", "160330.050000", "160330.053000", "160330.055000", "160330.062000", "160330.065000", "160330.067000", "160330.070000", "160330.072000", "160330.075000", "160330.078000", "160330.080000", "160330.083000", "160330.085000", "160330.088000", "160350.038000", "160350.041000", "160350.043000", "160350.046000", "160350.049000", "160350.051000", "160350.054000", "160350.056000", "160350.059000", "160350.061000", "160350.064000", "160350.067000", "160350.069000", "160350.072000", "160350.074000", "160350.077000", "160350.079000", "160350.082000", "160350.084000", "160350.087000", "160410.020000", "160410.023000", "160410.025000", "160410.028000", "160410.030000", "160410.033000", "160410.035000", "160410.038000", "160410.040000", "160410.043000", "160410.046000", "160410.048000", "160410.051000", "160410.053000", "160410.056000", "160410.058000", "160410.061000", "160410.063000", "160410.066000", "160410.069000", "160430.031000", "160430.033000", "160430.036000", "160430.039000", "160430.041000", "160430.044000", "160430.054000", "160430.056000", "160430.059000", "160430.062000", "160430.064000", "160430.067000", "160430.069000", "160430.072000", "160430.075000", "160430.077000", "160430.080000", "160430.082000", "160430.085000", "160430.087000", "160510.073000", "160510.076000", "160510.078000", "160510.081000", "160510.083000", "160510.086000", "160510.088000", "160510.091000", "160510.094000", "160510.096000", "160510.099000", "160510.101000", "160510.104000", "160510.106000", "160510.109000", "160510.112000", "160510.114000", "160510.117000", "160510.119000", "160510.122000", "160510.124000", "160510.127000", "160510.130000", "160510.132000", "160510.135000", "160510.137000", "160510.140000", "160510.142000", "160510.145000", "160510.147000", "160510.150000", "160550.046000", "160550.048000", "160550.051000", "160550.054000", "160550.056000", "160550.059000", "160550.061000", "160550.070000", "160550.072000", "160550.075000", "160550.078000", "160550.080000", "160550.083000", "160550.085000", "160550.088000", "160550.091000", "160550.093000", "160550.096000", "160550.098000", "160550.101000", "160550.103000", "160550.106000", "160550.109000", "160550.111000", "160550.114000", "160550.116000", "160550.119000", "160630.054000", "160630.057000", "160630.060000", "160630.063000", "160630.065000", "160630.068000", "160630.070000", "160630.073000", "160630.075000", "160630.078000", "160630.093000", "160630.096000", "160630.099000", "160630.101000", "160630.104000", "160630.106000", "160630.109000", "160630.112000", "160630.114000", "160630.117000", "160630.119000", "160630.122000", "160630.124000", "160630.132000", "160630.135000", "160630.137000", "160630.140000", "160710.448000", "160710.451000", "160710.454000", "160710.457000", "160710.459000", "160710.462000", "160710.464000", "160710.467000", "160710.470000", "160710.472000", "160710.475000", "160710.477000", "160710.480000", "160710.482000", "160710.485000", "160710.488000", "160710.490000", "160710.493000", "160710.495000", "160710.498000", "160710.500000", "160710.503000", "160710.506000", "160710.508000", "160710.511000", "160710.513000", "160750.068000", "160750.071000", "160750.074000", "160750.076000", "160750.079000", "160750.081000", "160750.084000", "160750.086000", "160750.089000", "160750.092000", "160750.094000", "160750.097000", "160750.099000", "160750.102000", "160750.104000", "160750.107000", "160750.109000", "160750.112000", "160750.115000", "160750.118000", "160750.121000", "160750.124000", "160750.126000", "160750.129000", "160750.131000", "160750.134000", "160750.136000", "160830.083000", "160830.086000", "160830.088000", "160830.091000", "160830.093000", "160830.096000", "160830.098000", "160830.101000", "160830.104000", "160830.106000", "160830.109000", "160830.111000", "160830.114000", "160830.121000", "160830.124000", "160830.126000", "160830.129000", "160830.131000", "160830.134000", "160830.136000", "160830.139000", "160830.141000", "160830.144000", "160830.147000", "160830.149000", "160830.152000", "160830.154000", "160910.074000", "160910.076000", "160910.079000", "160910.081000", "160910.084000", "160910.087000", "160910.089000", "160910.092000", "160910.094000", "160910.097000", "160910.100000", "160910.102000", "160910.105000", "160910.107000", "160910.110000", "160910.112000", "160910.115000", "160910.118000", "160910.120000", "160910.123000", "160910.125000", "160910.128000", "160910.130000", "160910.133000", "160910.135000", "160910.138000", "160910.141000", "160950.058000", "160950.061000", "160950.064000", "160950.066000", "160950.069000", "160950.071000", "160950.074000", "160950.077000", "160950.079000", "160950.082000", "160950.084000", "160950.087000", "160950.090000", "160950.092000", "160950.095000", "160950.097000", "160950.100000", "160950.102000", "160950.105000", "160950.108000", "160950.110000", "160950.113000", "160950.115000", "160950.118000", "160950.120000", "160950.123000", "160950.125000", "161030.072000", "161030.075000", "161030.077000", "161030.080000", "161030.083000", "161030.085000", "161030.088000", "161030.091000", "161030.093000", "161030.104000", "161030.107000", "161030.109000", "161030.112000", "161030.115000", "161030.117000", "161030.120000", "161030.122000", "161030.125000", "161030.128000", "161030.130000", "161030.133000", "161030.135000", "161030.138000", "161030.141000", "161030.143000", "161030.146000", "161030.148000", "161110.058000", "161110.061000", "161110.064000", "161110.066000", "161110.069000", "161110.071000", "161110.074000", "161110.077000", "161110.079000", "161110.082000", "161110.085000", "161110.087000", "161110.090000", "161110.092000", "161110.095000", "161110.097000", "161110.100000", "161110.103000", "161110.105000", "161110.108000", "161110.111000", "161110.113000", "161110.116000", "161110.118000", "161110.121000", "161110.123000", "161150.055000", "161150.058000", "161150.061000", "161150.063000", "161150.066000", "161150.069000", "161150.071000", "161150.074000", "161150.076000", "161150.079000", "161150.081000", "161150.090000", "161150.093000", "161150.095000", "161150.098000", "161150.101000", "161150.103000", "161150.106000", "161150.108000", "161150.111000", "161150.113000", "161150.116000", "161150.119000", "161150.121000", "161150.124000", "161150.126000", "161150.129000", "161230.063000", "161230.066000", "161230.069000", "161230.071000", "161230.074000", "161230.076000", "161230.079000", "161230.082000", "161230.084000", "161230.087000", "161230.089000", "161230.092000", "161230.094000", "161230.097000", "161230.099000", "161230.102000", "161230.104000", "161230.107000", "161230.110000", "161230.112000", "161230.115000", "161230.117000", "161230.120000", "161230.122000", "161230.125000", "161230.127000", "161230.130000", "161249.348000", "161249.351000", "161249.353000", "161249.356000", "161249.359000", "161249.361000", "161249.364000", "161249.366000", "161249.369000", "161249.371000", "161249.374000", "161249.376000", "161249.379000"],
