{
  "AcquisitionMatrixPE": 104,
  "AcquisitionNumber": 1,
  "AcquisitionTime": "15:49:2.150000",
  "BandwidthPerPixelPhaseEncode": 17.17,
  "BaseResolution": 104,
  "BodyPartExamined": "BRAIN",
  "CoilCombinationMethod": "Sum of Squares",
  "ConsistencyInfo": "N4_VE11C_LATEST_20160120",
  "ConversionSoftware": "dcm2niix",
  "ConversionSoftwareVersion": "v1.0.20211006",
  "DerivedVendorReportedEchoSpacing": 0.000560011,
  "DeviceSerialNumber": "167006",
  "DwellTime": 2.1e-06,
  "EchoTime": 0.037,
  "EchoTime1": 0.037,
  "EchoTime2": 0.001,
  "EchoTrainLength": 104,
  "EffectiveEchoSpacing": 0.000560011,
  "FlipAngle": 52,
  "HeudiconvVersion": "0.11.3.post9+gc939bf8",
  "ImageComments": "Unaliased MB4/PE3/LB",
  "ImageOrientationPatientDICOM": [0.999469, -0.0321037, 0.00553107, 0.032108, 0.942091, -0.333817],
  "ImageOrientationText": "Tra>Cor(-19.5)>Sag(-0.3)",
  "ImageType": [
    "ORIGINAL",
    "PRIMARY",
    "P",
    "MB",
    "ND",
    "MOSAIC",
    "PHASE"
],
  "ImagingFrequency": 123.259,
  "InPlanePhaseEncodingDirectionDICOM": "COL",
  "InstitutionAddress": "Chemin Queen-Mary 4565,Montreal,District,CA,H3W 1W5",
  "InstitutionName": "IUGM",
  "InstitutionalDepartmentName": "Department",
  "MRAcquisitionType": "2D",
  "MagneticFieldStrength": 3,
  "Manufacturer": "Siemens",
  "ManufacturersModelName": "Prisma_fit",
  "MatrixCoilMode": "SENSE",
  "Modality": "MR",
  "MultibandAccelerationFactor": 4,
  "PartialFourier": 1,
  "PatientPosition": "HFS",
  "PercentPhaseFOV": 100,
  "PercentSampling": 100,
  "PhaseEncodingDirection": "j",
  "PhaseEncodingSteps": 104,
  "PhaseResolution": 1,
  "PixelBandwidth": 2290,
  "ProcedureStepDescription": "games^mariostars",
  "ProtocolName": "func_task-mariostars_run-03",
  "PulseSequenceDetails": "%CustomerSeq%\\cmrr_mbep2d_bold",
  "ReceiveCoilActiveElements": "HC1-7;NC1,2",
  "ReceiveCoilName": "HeadNeck_64",
  "ReconMatrixPE": 104,
  "RepetitionTime": 1.49,
  "SAR": 0.0530937,
  "ScanOptions": "FS",
  "ScanningSequence": "EP",
  "SequenceName": "epfid2d1_104",
  "SequenceVariant": "SK\\SS",
  "SeriesDescription": "func_task-mariostars_run-03",
  "SeriesNumber": 18,
  "ShimSetting": [620, -7258, -8814, 564, 20, -194, -91, -9],
  "SliceThickness": 2,
  "SliceTiming": [0, 0.785, 0.0975, 0.8825, 0.195, 0.98, 0.295, 1.0775, 0.3925, 1.175, 0.49, 1.275, 0.5875, 1.3725, 0.685, 0, 0.785, 0.0975, 0.8825, 0.195, 0.98, 0.295, 1.0775, 0.3925, 1.175, 0.49, 1.275, 0.5875, 1.3725, 0.685, 0, 0.785, 0.0975, 0.8825, 0.195, 0.98, 0.295, 1.0775, 0.3925, 1.175, 0.49, 1.275, 0.5875, 1.3725, 0.685, 0, 0.785, 0.0975, 0.8825, 0.195, 0.98, 0.295, 1.0775, 0.3925, 1.175, 0.49, 1.275, 0.5875, 1.3725, 0.685],
  "SoftwareVersions": "syngo MR E11",
  "SpacingBetweenSlices": 2,
  "StationName": "MRC35049",
  "TaskName": "mariostars",
  "TotalReadoutTime": 0.0576811,
  "TxRefAmp": 263.65,
  "WipMemBlock": "badb6215-ccae-4222-88f1-a5495ff896dc||Sequence: R016 ve11c/master r/e634e98; Dec 19 2017 11:00:25 by eja",
  "dcmmeta_affine": [
    [-1.9989384412765503, 0.06421606987714767, -0.01101201493293047, 103.38607025146484],
    [0.06420745700597763, 1.8841816186904907, -0.6676353812217712, -68.53265380859375],
    [0.011062143370509148, 0.6676345467567444, 1.8852431774139404, -64.35456085205078],
    [0.0, 0.0, 0.0, 1.0]
],
  "dcmmeta_reorient_transform": [
    [0.0, -1.0, 0.0, 103.0],
    [1.0, 0.0, 0.0, 0.0],
    [0.0, 0.0, 1.0, 0.0],
    [0.0, 0.0, 0.0, 1.0]
],
  "dcmmeta_shape": [104, 104, 60, 467],
  "dcmmeta_slice_dim": 2,
  "dcmmeta_version": 0.6,
  "global": {
    "const": {
      "AcquisitionMatrix": [104, 0, 0, 104],
      "AngioFlag": "N",
      "BitsAllocated": 16,
      "BitsStored": 16,
      "BodyPartExamined": "BRAIN",
      "Columns": 832,
      "EchoNumbers": 1,
      "EchoTime": 37.0,
      "EchoTrainLength": 104,
      "FlipAngle": 52.0,
      "HighBit": 15,
      "ImageOrientationPatient": [0.99946923808835, -0.0321037281316, 0.00553107179033, 0.03210803638962, 0.94209081361254, -0.3338172747269],
      "ImagePositionPatient": [-860.98858117068, -788.00865010917, 243.40415372588],
      "ImageType": [
        "ORIGINAL",
        "PRIMARY",
        "P",
        "MB",
        "ND",
        "MOSAIC"
],
      "ImagedNucleus": "1H",
      "ImagingFrequency": 123.258817,
      "InPlanePhaseEncodingDirection": "COL",
      "LargestImagePixelValue": 4095,
      "MRAcquisitionType": "2D",
      "MagneticFieldStrength": 3.0,
      "Manufacturer": "SIEMENS",
      "ManufacturerModelName": "Prisma_fit",
      "Modality": "MR",
      "NumberOfAverages": 1.0,
      "NumberOfPhaseEncodingSteps": 104,
      "PercentPhaseFieldOfView": 100.0,
      "PercentSampling": 100.0,
      "PerformedProcedureStepStartTime": "142653.359000",
      "PhotometricInterpretation": "MONOCHROME2",
      "PixelBandwidth": 2290.0,
      "PixelRepresentation": 0,
      "PixelSpacing": [2.0, 2.0],
      "ProtocolName": "func_task-mariostars_run-03",
      "RepetitionTime": 1490.0,
      "RescaleIntercept": -4096.0,
      "RescaleSlope": 2.0,
      "RescaleType": "US",
      "Rows": 832,
      "SAR": 0.05309373076208,
      "SamplesPerPixel": 1,
      "ScanOptions": "FS",
      "ScanningSequence": "EP",
      "SequenceName": "epfid2d1_104",
      "SequenceVariant": [
        "SK",
        "SS"
],
      "SeriesDescription": "func_task-mariostars_run-03",
      "SeriesNumber": 18,
      "SeriesTime": "155031.746000",
      "SliceLocation": -38.353828974463,
      "SliceThickness": 2.0,
      "SmallestImagePixelValue": 0,
      "SoftwareVersions": "syngo MR E11",
      "SpacingBetweenSlices": 2.0000000483801,
      "SpecificCharacterSet": "ISO_IR 100",
      "StudyID": "1",
      "StudyTime": "142653.286000",
      "TransmitCoilName": "Body",
      "VariableFlipAngleFlag": "N",
      "WindowCenterWidthExplanation": "Algo1",
      "dBdt": 0.0},
    "slices": {}
  },
  "time": {
    "samples": {
      "AcquisitionNumber": [1, 2, 3, 4, 5, 6, 7, 8, 9, 10, 11, 12, 13, 14, 15, 16, 17, 18, 19, 20, 21, 22, 23, 24, 25, 26, 27, 28, 29, 30, 31, 32, 33, 34, 35, 36, 37, 38, 39, 40, 41, 42, 43, 44, 45, 46, 47, 48, 49, 50, 51, 52, 53, 54, 55, 56, 57, 58, 59, 60, 61, 62, 63, 64, 65, 66, 67, 68, 69, 70, 71, 72, 73, 74, 75, 76, 77, 78, 79, 80, 81, 82, 83, 84, 85, 86, 87, 88, 89, 90, 91, 92, 93, 94, 95, 96, 97, 98, 99, 100, 101, 102, 103, 104, 105, 106, 107, 108, 109, 110, 111, 112, 113, 114, 115, 116, 117, 118, 119, 120, 121, 122, 123, 124, 125, 126, 127, 128, 129, 130, 131, 132, 133, 134, 135, 136, 137, 138, 139, 140, 141, 142, 143, 144, 145, 146, 147, 148, 149, 150, 151, 152, 153, 154, 155, 156, 157, 158, 159, 160, 161, 162, 163, 164, 165, 166, 167, 168, 169, 170, 171, 172, 173, 174, 175, 176, 177, 178, 179, 180, 181, 182, 183, 184, 185, 186, 187, 188, 189, 190, 191, 192, 193, 194, 195, 196, 197, 198, 199, 200, 201, 202, 203, 204, 205, 206, 207, 208, 209, 210, 211, 212, 213, 214, 215, 216, 217, 218, 219, 220, 221, 222, 223, 224, 225, 226, 227, 228, 229, 230, 231, 232, 233, 234, 235, 236, 237, 238, 239, 240, 241, 242, 243, 244, 245, 246, 247, 248, 249, 250, 251, 252, 253, 254, 255, 256, 257, 258, 259, 260, 261, 262, 263, 264, 265, 266, 267, 268, 269, 270, 271, 272, 273, 274, 275, 276, 277, 278, 279, 280, 281, 282, 283, 284, 285, 286, 287, 288, 289, 290, 291, 292, 293, 294, 295, 296, 297, 298, 299, 300, 301, 302, 303, 304, 305, 306, 307, 308, 309, 310, 311, 312, 313, 314, 315, 316, 317, 318, 319, 320, 321, 322, 323, 324, 325, 326, 327, 328, 329, 330, 331, 332, 333, 334, 335, 336, 337, 338, 339, 340, 341, 342, 343, 344, 345, 346, 347, 348, 349, 350, 351, 352, 353, 354, 355, 356, 357, 358, 359, 360, 361, 362, 363, 364, 365, 366, 367, 368, 369, 370, 371, 372, 373, 374, 375, 376, 377, 378, 379, 380, 381, 382, 383, 384, 385, 386, 387, 388, 389, 390, 391, 392, 393, 394, 395, 396, 397, 398, 399, 400, 401, 402, 403, 404, 405, 406, 407, 408, 409, 410, 411, 412, 413, 414, 415, 416, 417, 418, 419, 420, 421, 422, 423, 424, 425, 426, 427, 428, 429, 430, 431, 432, 433, 434, 435, 436, 437, 438, 439, 440, 441, 442, 443, 444, 445, 446, 447, 448, 449, 450, 451, 452, 453, 454, 455, 456, 457, 458, 459, 460, 461, 462, 463, 464, 465, 466, 467],
      "AcquisitionTime": ["154902.150000", "154903.640000", "154905.130000", "154906.620000", "154908.110000", "154909.600000", "154911.090000", "154912.580000", "154914.070000", "154915.560000", "154917.050000", "154918.540000", "154920.030000", "154921.520000", "154923.010000", "154924.500000", "154925.990000", "154927.480000", "154928.970000", "154930.460000", "154931.950000", "154933.440000", "154934.930000", "154936.420000", "154937.910000", "154939.400000", "154940.890000", "154942.380000", "154943.870000", "154945.360000", "154946.850000", "154948.340000", "154949.830000", "154951.320000", "154952.810000", "154954.300000", "154955.790000", "154957.280000", "154958.770000", "155000.260000", "155001.750000", "155003.240000", "155004.730000", "155006.220000", "155007.710000", "155009.200000", "155010.690000", "155012.180000", "155013.670000", "155015.160000", "155016.650000", "155018.140000", "155019.630000", "155021.120000", "155022.610000", "155024.100000", "155025.590000", "155027.080000", "155028.570000", "155030.060000", "155031.550000", "155033.040000", "155034.530000", "155036.020000", "155037.510000", "155039.000000", "155040.490000", "155041.980000", "155043.470000", "155044.960000", "155046.450000", "155047.940000", "155049.430000", "155050.920000", "155052.410000", "155053.900000", "155055.390000", "155056.880000", "155058.370000", "155059.860000", "155101.350000", "155102.840000", "155104.330000", "155105.820000", "155107.310000", "155108.800000", "155110.290000", "155111.780000", "155113.270000", "155114.760000", "155116.250000", "155117.740000", "155119.230000", "155120.720000", "155122.210000", "155123.700000", "155125.190000", "155126.680000", "155128.170000", "155129.660000", "155131.150000", "155132.640000", "155134.130000", "155135.620000", "155137.110000", "155138.600000", "155140.090000", "155141.580000", "155143.070000", "155144.560000", "155146.050000", "155147.540000", "155149.030000", "155150.520000", "155152.010000", "155153.500000", "155154.990000", "155156.480000", "155157.970000", "155159.460000", "155200.950000", "155202.440000", "155203.930000", "155205.420000", "155206.910000", "155208.400000", "155209.890000", "155211.380000", "155212.870000", "155214.360000", "155215.850000", "155217.340000", "155218.830000", "155220.320000", "155221.810000", "155223.300000", "155224.790000", "155226.280000", "155227.770000", "155229.260000", "155230.750000", "155232.240000", "155233.730000", "155235.220000", "155236.710000", "155238.200000", "155239.690000", "155241.180000", "155242.670000", "155244.160000", "155245.650000", "155247.140000", "155248.630000", "155250.120000", "155251.610000", "155253.100000", "155254.590000", "155256.080000", "155257.570000", "155259.060000", "155300.550000", "155302.040000", "155303.530000", "155305.020000", "155306.510000", "155308.000000", "155309.490000", "155310.980000", "155312.470000", "155313.960000", "155315.450000", "155316.940000", "155318.430000", "155319.920000", "155321.410000", "155322.900000", "155324.390000", "155325.880000", "155327.370000", "155328.860000", "155330.350000", "155331.840000", "155333.330000", "155334.820000", "155336.310000", "155337.800000", "155339.290000", "155340.780000", "155342.270000", "155343.760000", "155345.250000", "155346.740000", "155348.230000", "155349.720000", "155351.210000", "155352.700000", "155354.190000", "155355.680000", "155357.170000", "155358.660000", "155400.150000", "155401.640000", "155403.130000", "155404.620000", "155406.110000", "155407.600000", "155409.090000", "155410.580000", "155412.070000", "155413.560000", "155415.050000", "155416.540000", "155418.030000", "155419.520000", "155421.010000", "155422.500000", "155423.990000", "155425.480000", "155426.970000", "155428.460000", "155429.950000", "155431.440000", "155432.930000", "155434.420000", "155435.910000", "155437.400000", "155438.890000", "155440.380000", "155441.870000", "155443.360000", "155444.850000", "155446.340000", "155447.830000", "155449.320000", "155450.810000", "155452.300000", "155453.790000", "155455.280000", "155456.770000", "155458.260000", "155459.750000", "155501.240000", "155502.730000", "155504.220000", "155505.710000", "155507.200000", "155508.690000", "155510.180000", "155511.670000", "155513.160000", "155514.650000", "155516.140000", "155517.630000", "155519.120000", "155520.610000", "155522.100000", "155523.590000", "155525.080000", "155526.570000", "155528.060000", "155529.550000", "155531.040000", "155532.530000", "155534.020000", "155535.510000", "155537.000000", "155538.490000", "155539.980000", "155541.470000", "155542.960000", "155544.450000", "155545.940000", "155547.430000", "155548.920000", "155550.410000", "155551.900000", "155553.390000", "155554.880000", "155556.370000", "155557.860000", "155559.350000", "155600.840000", "155602.330000", "155603.820000", "155605.310000", "155606.800000", "155608.290000", "155609.780000", "155611.270000", "155612.760000", "155614.250000", "155615.740000", "155617.230000", "155618.720000", "155620.210000", "155621.700000", "155623.190000", "155624.680000", "155626.170000", "155627.660000", "155629.150000", "155630.640000", "155632.130000", "155633.620000", "155635.110000", "155636.600000", "155638.090000", "155639.580000", "155641.070000", "155642.560000", "155644.050000", "155645.540000", "155647.030000", "155648.520000", "155650.010000", "155651.500000", "155652.990000", "155654.480000", "155655.970000", "155657.460000", "155658.950000", "155700.440000", "155701.930000", "155703.420000", "155704.910000", "155706.400000", "155707.890000", "155709.380000", "155710.870000", "155712.360000", "155713.850000", "155715.340000", "155716.830000", "155718.320000", "155719.810000", "155721.300000", "155722.790000", "155724.280000", "155725.770000", "155727.260000", "155728.750000", "155730.240000", "155731.730000", "155733.220000", "155734.710000", "155736.200000", "155737.690000", "155739.180000", "155740.670000", "155742.160000", "155743.650000", "155745.140000", "155746.630000", "155748.120000", "155749.610000", "155751.100000", "155752.590000", "155754.080000", "155755.570000", "155757.060000", "155758.550000", "155800.040000", "155801.530000", "155803.020000", "155804.510000", "155806.000000", "155807.490000", "155808.980000", "155810.470000", "155811.960000", "155813.450000", "155814.940000", "155816.430000", "155817.920000", "155819.410000", "155820.900000", "155822.390000", "155823.880000", "155825.370000", "155826.860000", "155828.350000", "155829.840000", "155831.330000", "155832.820000", "155834.310000", "155835.800000", "155837.290000", "155838.780000", "155840.270000", "155841.760000", "155843.250000", "155844.740000", "155846.230000", "155847.720000", "155849.210000", "155850.700000", "155852.190000", "155853.680000", "155855.170000", "155856.660000", "155858.150000", "155859.640000", "155901.130000", "155902.620000", "155904.110000", "155905.600000", "155907.090000", "155908.580000", "155910.070000", "155911.560000", "155913.050000", "155914.540000", "155916.030000", "155917.520000", "155919.010000", "155920.500000", "155921.990000", "155923.480000", "155924.970000", "155926.460000", "155927.950000", "155929.440000", "155930.930000", "155932.420000", "155933.910000", "155935.400000", "155936.890000", "155938.380000", "155939.870000", "155941.360000", "155942.850000", "155944.340000", "155945.830000", "155947.320000", "155948.810000", "155950.300000", "155951.790000", "155953.280000", "155954.770000", "155956.260000", "155957.750000", "155959.240000", "160000.730000", "160002.220000", "160003.710000", "160005.200000", "160006.690000", "160008.180000", "160009.670000", "160011.160000", "160012.650000", "160014.140000", "160015.630000", "160017.120000", "160018.610000", "160020.100000", "160021.590000", "160023.080000", "160024.570000", "160026.060000", "160027.550000", "160029.040000", "160030.530000", "160032.020000", "160033.510000", "160035.000000", "160036.490000"],
      "ContentTime": ["155031.748000", "155031.751000", "155031.753000", "155031.756000", "155031.759000", "155031.761000", "155031.764000", "155031.767000", "155031.770000", "155031.774000", "155031.776000", "155031.779000", "155031.781000", "155031.784000", "155031.787000", "155031.790000", "155031.792000", "155031.795000", "155031.797000", "155031.808000", "155031.811000", "155031.813000", "155031.816000", "155031.818000", "155031.821000", "155031.823000", "155031.826000", "155031.828000", "155031.831000", "155031.833000", "155031.836000", "155031.838000", "155031.841000", "155031.843000", "155031.846000", "155031.848000", "155031.851000", "155051.648000", "155051.651000", "155051.653000", "155051.656000", "155051.658000", "155051.661000", "155051.664000", "155051.666000", "155051.669000", "155051.678000", "155051.681000", "155051.683000", "155051.686000", "155051.688000", "155051.691000", "155051.693000", "155051.703000", "155051.705000", "155051.708000", "155051.710000", "155051.713000", "155111.635000", "155111.638000", "155111.641000", "155111.643000", "155111.646000", "155111.648000", "155111.651000", "155111.653000", "155111.656000", "155111.658000", "155111.661000", "155111.663000", "155111.666000", "155111.669000", "155111.671000", "155111.674000", "155111.676000", "155111.679000", "155111.681000", "155111.684000", "155131.646000", "155131.649000", "155131.651000", "155131.654000", "155131.657000", "155131.659000", "155131.662000", "155131.664000", "155131.667000", "155131.669000", "155131.672000", "155131.674000", "155131.677000", "155131.679000", "155131.682000", "155131.685000", "155131.687000", "155131.690000", "155131.693000", "155131.696000", "155211.680000", "155211.682000", "155211.685000", "155211.688000", "155211.690000", "155211.693000", "155211.695000", "155211.698000", "155211.701000", "155211.703000", "155211.706000", "155211.710000", "155211.712000", "155211.715000", "155211.718000", "155211.720000", "155211.723000", "155211.725000", "155211.728000", "155211.735000", "155211.738000", "155211.741000", "155211.743000", "155211.746000", "155211.748000", "155211.751000", "155211.753000", "155211.756000", "155251.691000", "155251.694000", "155251.696000", "155251.699000", "155251.702000", "155251.704000", "155251.707000", "155251.709000", "155251.712000", "155251.714000", "155251.717000", "155251.719000", "155251.722000", "155251.725000", "155251.727000", "155251.730000", "155251.732000", "155251.735000", "155251.737000", "155251.740000", "155251.743000", "155251.745000", "155251.748000", "155251.750000", "155251.753000", "155251.755000", "155251.758000", "155331.675000", "155331.678000", "155331.681000", "155331.683000", "155331.686000", "155331.689000", "155331.691000", "155331.694000", "155331.696000", "155331.703000", "155331.705000", "155331.708000", "155331.710000", "155331.713000", "155331.716000", "155331.718000", "155331.721000", "155331.723000", "155331.726000", "155331.728000", "155331.731000", "155331.733000", "155331.736000", "155331.738000", "155331.741000", "155331.744000", "155331.746000", "155411.678000", "155411.681000", "155411.684000", "155411.686000", "155411.689000", "155411.691000", "155411.694000", "155411.697000", "155411.699000", "155411.702000", "155411.705000", "155411.707000", "155411.710000", "155411.712000", "155411.715000", "155411.717000", "155411.720000", "155411.722000", "155411.725000", "155411.727000", "155411.730000", "155411.733000", "155411.735000", "155411.738000", "155411.740000", "155411.743000", "155411.745000", "155451.662000", "155451.664000", "155451.667000", "155451.669000", "155451.672000", "155451.675000", "155451.677000", "155451.680000", "155451.682000", "155451.685000", "155451.687000", "155451.690000", "155451.693000", "155451.696000", "155451.699000", "155451.701000", "155451.704000", "155451.707000", "155451.709000", "155451.712000", "155451.715000", "155451.718000", "155451.720000", "155451.723000", "155451.725000", "155451.728000", "155532.120000", "155532.123000", "155532.126000", "155532.128000", "155532.131000", "155532.133000", "155532.136000", "155532.138000", "155532.141000", "155532.143000", "155532.146000", "155532.148000", "155532.151000", "155532.154000", "155532.156000", "155532.159000", "155532.161000", "155532.164000", "155532.166000", "155532.169000", "155532.171000", "155532.174000", "155532.176000", "155532.179000", "155532.181000", "155532.184000", "155532.187000", "155611.666000", "155611.669000", "155611.671000", "155611.674000", "155611.677000", "155611.679000", "155611.682000", "155611.684000", "155611.687000", "155611.689000", "155611.692000", "155611.694000", "155611.697000", "155611.699000", "155611.702000", "155611.704000", "155611.707000", "155611.709000", "155611.712000", "155611.714000", "155611.717000", "155611.720000", "155611.722000", "155611.725000", "155611.727000", "155611.730000", "155611.732000", "155651.663000", "155651.666000", "155651.669000", "155651.671000", "155651.674000", "155651.676000", "155651.679000", "155651.681000", "155651.684000", "155651.687000", "155651.689000", "155651.692000", "155651.694000", "155651.697000", "155651.699000", "155651.702000", "155651.704000", "155651.707000", "155651.710000", "155651.712000", "155651.715000", "155651.717000", "155651.720000", "155651.722000", "155651.725000", "155651.728000", "155651.730000", "155731.677000", "155731.680000", "155731.683000", "155731.685000", "155731.688000", "155731.690000", "155731.693000", "155731.695000", "155731.698000", "155731.700000", "155731.703000", "155731.705000", "155731.708000", "155731.710000", "155731.713000", "155731.715000", "155731.718000", "155731.720000", "155731.723000", "155731.725000", "155731.728000", "155731.730000", "155731.733000", "155731.735000", "155731.738000", "155731.740000", "155731.743000", "155811.679000", "155811.682000", "155811.685000", "155811.687000", "155811.690000", "155811.693000", "155811.695000", "155811.698000", "155811.700000", "155811.703000", "155811.705000", "155811.708000", "155811.711000", "155811.713000", "155811.716000", "155811.718000", "155811.721000", "155811.723000", "155811.726000", "155811.728000", "155811.731000", "155811.734000", "155811.736000", "155811.739000", "155811.741000", "155811.744000", "155811.746000", "155851.677000", "155851.680000", "155851.682000", "155851.685000", "155851.687000", "155851.690000", "155851.693000", "155851.695000", "155851.698000", "155851.700000", "155851.703000", "155851.705000", "155851.708000", "155851.710000", "155851.713000", "155851.715000", "155851.718000", "155851.721000", "155851.723000", "155851.726000", "155851.728000", "155851.731000", "155851.733000", "155851.736000", "155851.739000", "155851.741000", "155931.675000", "155931.678000", "155931.680000", "155931.683000", "155931.685000", "155931.688000", "155931.690000", "155931.693000", "155931.695000", "155931.698000", "155931.700000", "155931.703000", "155931.706000", "155931.708000", "155931.711000", "155931.713000", "155931.716000", "155931.718000", "155931.721000", "155931.723000", "155931.726000", "155931.728000", "155931.731000", "155931.734000", "155931.736000", "155931.739000", "155931.741000", "160011.699000", "160011.702000", "160011.705000", "160011.707000", "160011.710000", "160011.712000", "160011.715000", "160011.717000", "160011.720000", "160011.723000", "160011.725000", "160011.728000", "160011.744000", "160011.746000", "160011.749000", "160011.752000", "160011.754000", "160011.757000", "160011.759000", "160011.762000", "160011.764000", "160011.767000", "160011.769000", "160011.772000", "160011.774000", "160011.777000", "160011.780000", "160039.805000", "160039.808000", "160039.810000", "160039.813000", "160039.815000", "160039.818000", "160039.821000", "160039.823000", "160039.826000", "160039.828000", "160039.831000", "160039.833000", "160039.836000", "160039.839000", "160039.841000", "160039.844000", "160039.846000", "160039.855000", "160039.857000"],
