{
  "AcquisitionMatrixPE": 104,
  "AcquisitionNumber": 1,
  "AcquisitionTime": "16:16:58.572500",
  "BandwidthPerPixelPhaseEncode": 17.17,
  "BaseResolution": 104,
  "BodyPartExamined": "BRAIN",
  "CoilCombinationMethod": "Sum of Squares",
  "ConsistencyInfo": "N4_VE11C_LATEST_20160120",
  "ConversionSoftware": "dcm2niix",
  "ConversionSoftwareVersion": "v1.0.20211006",
  "DerivedVendorReportedEchoSpacing": 0.000560011,
  "DeviceSerialNumber": "167006",
  "DwellTime": 2.1e-06,
  "EchoTime": 0.037,
  "EchoTime1": 0.037,
  "EchoTime2": 0.001,
  "EchoTrainLength": 104,
  "EffectiveEchoSpacing": 0.000560011,
  "FlipAngle": 52,
  "HeudiconvVersion": "0.11.3.post9+gc939bf8",
  "ImageComments": "Unaliased MB4/PE3/LB",
  "ImageOrientationPatientDICOM": [0.999469, -0.0321037, 0.00553107, 0.032108, 0.942091, -0.333817],
  "ImageOrientationText": "Tra>Cor(-19.5)>Sag(-0.3)",
  "ImageType": [
    "ORIGINAL",
    "PRIMARY",
    "P",
    "MB",
    "ND",
    "MOSAIC",
    "PHASE"
],
  "ImagingFrequency": 123.259,
  "InPlanePhaseEncodingDirectionDICOM": "COL",
  "InstitutionAddress": "Chemin Queen-Mary 4565,Montreal,District,CA,H3W 1W5",
  "InstitutionName": "IUGM",
  "InstitutionalDepartmentName": "Department",
  "MRAcquisitionType": "2D",
  "MagneticFieldStrength": 3,
  "Manufacturer": "Siemens",
  "ManufacturersModelName": "Prisma_fit",
  "MatrixCoilMode": "SENSE",
  "Modality": "MR",
  "MultibandAccelerationFactor": 4,
  "PartialFourier": 1,
  "PatientPosition": "HFS",
  "PercentPhaseFOV": 100,
  "PercentSampling": 100,
  "PhaseEncodingDirection": "j",
  "PhaseEncodingSteps": 104,
  "PhaseResolution": 1,
  "PixelBandwidth": 2290,
  "ProcedureStepDescription": "games^mariostars",
  "ProtocolName": "func_task-mariostars_run-05",
  "PulseSequenceDetails": "%CustomerSeq%\\cmrr_mbep2d_bold",
  "ReceiveCoilActiveElements": "HC1-7;NC1,2",
  "ReceiveCoilName": "HeadNeck_64",
  "ReconMatrixPE": 104,
  "RepetitionTime": 1.49,
  "SAR": 0.0530937,
  "ScanOptions": "FS",
  "ScanningSequence": "EP",
  "SequenceName": "epfid2d1_104",
  "SequenceVariant": "SK\\SS",
  "SeriesDescription": "func_task-mariostars_run-05",
  "SeriesNumber": 24,
  "ShimSetting": [620, -7258, -8814, 564, 20, -194, -91, -9],
  "SliceThickness": 2,
  "SliceTiming": [0, 0.785, 0.0975, 0.8825, 0.195, 0.98, 0.295, 1.0775, 0.3925, 1.175, 0.49, 1.275, 0.5875, 1.3725, 0.685, 0, 0.785, 0.0975, 0.8825, 0.195, 0.98, 0.295, 1.0775, 0.3925, 1.175, 0.49, 1.275, 0.5875, 1.3725, 0.685, 0, 0.785, 0.0975, 0.8825, 0.195, 0.98, 0.295, 1.0775, 0.3925, 1.175, 0.49, 1.275, 0.5875, 1.3725, 0.685, 0, 0.785, 0.0975, 0.8825, 0.195, 0.98, 0.295, 1.0775, 0.3925, 1.175, 0.49, 1.275, 0.5875, 1.3725, 0.685],
  "SoftwareVersions": "syngo MR E11",
  "SpacingBetweenSlices": 2,
  "StationName": "MRC35049",
  "TaskName": "mariostars",
  "TotalReadoutTime": 0.0576811,
  "TxRefAmp": 263.65,
  "WipMemBlock": "1ceb6a05-2e03-4650-a988-293147f385f7||Sequence: R016 ve11c/master r/e634e98; Dec 19 2017 11:00:25 by eja",
  "dcmmeta_affine": [
    [-1.9989384412765503, 0.06421606987714767, -0.01101201493293047, 103.38607025146484],
    [0.06420745700597763, 1.8841816186904907, -0.6676353812217712, -68.53265380859375],
    [0.011062143370509148, 0.6676345467567444, 1.8852431774139404, -64.35456085205078],
    [0.0, 0.0, 0.0, 1.0]
],
  "dcmmeta_reorient_transform": [
    [0.0, -1.0, 0.0, 103.0],
    [1.0, 0.0, 0.0, 0.0],
    [0.0, 0.0, 1.0, 0.0],
    [0.0, 0.0, 0.0, 1.0]
],
  "dcmmeta_shape": [104, 104, 60, 421],
  "dcmmeta_slice_dim": 2,
  "dcmmeta_version": 0.6,
  "global": {
    "const": {
      "AcquisitionMatrix": [104, 0, 0, 104],
      "AngioFlag": "N",
      "BitsAllocated": 16,
      "BitsStored": 16,
      "BodyPartExamined": "BRAIN",
      "Columns": 832,
      "EchoNumbers": 1,
      "EchoTime": 37.0,
      "EchoTrainLength": 104,
      "FlipAngle": 52.0,
      "HighBit": 15,
      "ImageOrientationPatient": [0.99946923808835, -0.0321037281316, 0.00553107179033, 0.03210803638962, 0.94209081361254, -0.3338172747269],
      "ImagePositionPatient": [-860.98858117068, -788.00865010917, 243.40415372588],
      "ImageType": [
        "ORIGINAL",
        "PRIMARY",
        "P",
        "MB",
        "ND",
        "MOSAIC"
],
      "ImagedNucleus": "1H",
      "ImagingFrequency": 123.258821,
      "InPlanePhaseEncodingDirection": "COL",
      "LargestImagePixelValue": 4095,
      "MRAcquisitionType": "2D",
      "MagneticFieldStrength": 3.0,
      "Manufacturer": "SIEMENS",
      "ManufacturerModelName": "Prisma_fit",
      "Modality": "MR",
      "NumberOfAverages": 1.0,
      "NumberOfPhaseEncodingSteps": 104,
      "PercentPhaseFieldOfView": 100.0,
      "PercentSampling": 100.0,
      "PerformedProcedureStepStartTime": "142653.359000",
      "PhotometricInterpretation": "MONOCHROME2",
      "PixelBandwidth": 2290.0,
      "PixelRepresentation": 0,
      "PixelSpacing": [2.0, 2.0],
      "ProtocolName": "func_task-mariostars_run-05",
      "RepetitionTime": 1490.0,
      "RescaleIntercept": -4096.0,
      "RescaleSlope": 2.0,
      "RescaleType": "US",
      "Rows": 832,
      "SAR": 0.05309373076208,
      "SamplesPerPixel": 1,
      "ScanOptions": "FS",
      "ScanningSequence": "EP",
      "SequenceName": "epfid2d1_104",
      "SequenceVariant": [
        "SK",
        "SS"
],
      "SeriesDescription": "func_task-mariostars_run-05",
      "SeriesNumber": 24,
      "SeriesTime": "161816.538000",
      "SliceLocation": -38.353828974463,
      "SliceThickness": 2.0,
      "SmallestImagePixelValue": 0,
      "SoftwareVersions": "syngo MR E11",
      "SpacingBetweenSlices": 2.0000000483801,
      "SpecificCharacterSet": "ISO_IR 100",
      "StudyID": "1",
      "StudyTime": "142653.286000",
      "TransmitCoilName": "Body",
      "VariableFlipAngleFlag": "N",
      "WindowCenterWidthExplanation": "Algo1",
      "dBdt": 0.0},
    "slices": {}
  },
  "time": {
    "samples": {
      "AcquisitionNumber": [1, 2, 3, 4, 5, 6, 7, 8, 9, 10, 11, 12, 13, 14, 15, 16, 17, 18, 19, 20, 21, 22, 23, 24, 25, 26, 27, 28, 29, 30, 31, 32, 33, 34, 35, 36, 37, 38, 39, 40, 41, 42, 43, 44, 45, 46, 47, 48, 49, 50, 51, 52, 53, 54, 55, 56, 57, 58, 59, 60, 61, 62, 63, 64, 65, 66, 67, 68, 69, 70, 71, 72, 73, 74, 75, 76, 77, 78, 79, 80, 81, 82, 83, 84, 85, 86, 87, 88, 89, 90, 91, 92, 93, 94, 95, 96, 97, 98, 99, 100, 101, 102, 103, 104, 105, 106, 107, 108, 109, 110, 111, 112, 113, 114, 115, 116, 117, 118, 119, 120, 121, 122, 123, 124, 125, 126, 127, 128, 129, 130, 131, 132, 133, 134, 135, 136, 137, 138, 139, 140, 141, 142, 143, 144, 145, 146, 147, 148, 149, 150, 151, 152, 153, 154, 155, 156, 157, 158, 159, 160, 161, 162, 163, 164, 165, 166, 167, 168, 169, 170, 171, 172, 173, 174, 175, 176, 177, 178, 179, 180, 181, 182, 183, 184, 185, 186, 187, 188, 189, 190, 191, 192, 193, 194, 195, 196, 197, 198, 199, 200, 201, 202, 203, 204, 205, 206, 207, 208, 209, 210, 211, 212, 213, 214, 215, 216, 217, 218, 219, 220, 221, 222, 223, 224, 225, 226, 227, 228, 229, 230, 231, 232, 233, 234, 235, 236, 237, 238, 239, 240, 241, 242, 243, 244, 245, 246, 247, 248, 249, 250, 251, 252, 253, 254, 255, 256, 257, 258, 259, 260, 261, 262, 263, 264, 265, 266, 267, 268, 269, 270, 271, 272, 273, 274, 275, 276, 277, 278, 279, 280, 281, 282, 283, 284, 285, 286, 287, 288, 289, 290, 291, 292, 293, 294, 295, 296, 297, 298, 299, 300, 301, 302, 303, 304, 305, 306, 307, 308, 309, 310, 311, 312, 313, 314, 315, 316, 317, 318, 319, 320, 321, 322, 323, 324, 325, 326, 327, 328, 329, 330, 331, 332, 333, 334, 335, 336, 337, 338, 339, 340, 341, 342, 343, 344, 345, 346, 347, 348, 349, 350, 351, 352, 353, 354, 355, 356, 357, 358, 359, 360, 361, 362, 363, 364, 365, 366, 367, 368, 369, 370, 371, 372, 373, 374, 375, 376, 377, 378, 379, 380, 381, 382, 383, 384, 385, 386, 387, 388, 389, 390, 391, 392, 393, 394, 395, 396, 397, 398, 399, 400, 401, 402, 403, 404, 405, 406, 407, 408, 409, 410, 411, 412, 413, 414, 415, 416, 417, 418, 419, 420, 421],
      "AcquisitionTime": ["161658.572500", "161700.062500", "161701.552500", "161703.042500", "161704.532500", "161706.022500", "161707.512500", "161709.002500", "161710.492500", "161711.982500", "161713.472500", "161714.962500", "161716.452500", "161717.942500", "161719.432500", "161720.922500", "161722.412500", "161723.902500", "161725.392500", "161726.882500", "161728.372500", "161729.862500", "161731.352500", "161732.842500", "161734.332500", "161735.822500", "161737.312500", "161738.802500", "161740.292500", "161741.782500", "161743.272500", "161744.762500", "161746.252500", "161747.742500", "161749.232500", "161750.722500", "161752.212500", "161753.702500", "161755.192500", "161756.682500", "161758.172500", "161759.662500", "161801.152500", "161802.642500", "161804.132500", "161805.622500", "161807.112500", "161808.602500", "161810.092500", "161811.582500", "161813.072500", "161814.562500", "161816.052500", "161817.542500", "161819.032500", "161820.522500", "161822.012500", "161823.502500", "161824.992500", "161826.482500", "161827.972500", "161829.462500", "161830.952500", "161832.442500", "161833.932500", "161835.422500", "161836.912500", "161838.402500", "161839.892500", "161841.382500", "161842.872500", "161844.362500", "161845.852500", "161847.342500", "161848.832500", "161850.322500", "161851.812500", "161853.302500", "161854.792500", "161856.282500", "161857.772500", "161859.262500", "161900.752500", "161902.242500", "161903.732500", "161905.222500", "161906.712500", "161908.202500", "161909.692500", "161911.182500", "161912.672500", "161914.162500", "161915.652500", "161917.142500", "161918.632500", "161920.122500", "161921.612500", "161923.102500", "161924.592500", "161926.082500", "161927.572500", "161929.062500", "161930.552500", "161932.042500", "161933.532500", "161935.022500", "161936.512500", "161938.002500", "161939.492500", "161940.982500", "161942.472500", "161943.962500", "161945.452500", "161946.942500", "161948.432500", "161949.922500", "161951.412500", "161952.902500", "161954.392500", "161955.882500", "161957.372500", "161958.862500", "162000.352500", "162001.842500", "162003.332500", "162004.822500", "162006.312500", "162007.802500", "162009.292500", "162010.782500", "162012.272500", "162013.762500", "162015.252500", "162016.742500", "162018.232500", "162019.722500", "162021.212500", "162022.702500", "162024.192500", "162025.682500", "162027.172500", "162028.662500", "162030.152500", "162031.642500", "162033.132500", "162034.622500", "162036.112500", "162037.602500", "162039.092500", "162040.582500", "162042.072500", "162043.562500", "162045.052500", "162046.542500", "162048.032500", "162049.522500", "162051.012500", "162052.502500", "162053.992500", "162055.482500", "162056.972500", "162058.462500", "162059.952500", "162101.442500", "162102.932500", "162104.422500", "162105.912500", "162107.402500", "162108.892500", "162110.382500", "162111.872500", "162113.362500", "162114.852500", "162116.342500", "162117.832500", "162119.322500", "162120.812500", "162122.302500", "162123.792500", "162125.282500", "162126.772500", "162128.262500", "162129.752500", "162131.242500", "162132.732500", "162134.222500", "162135.712500", "162137.202500", "162138.692500", "162140.182500", "162141.672500", "162143.162500", "162144.652500", "162146.142500", "162147.632500", "162149.122500", "162150.612500", "162152.102500", "162153.592500", "162155.082500", "162156.572500", "162158.062500", "162159.552500", "162201.042500", "162202.532500", "162204.022500", "162205.512500", "162207.002500", "162208.492500", "162209.982500", "162211.472500", "162212.962500", "162214.452500", "162215.942500", "162217.432500", "162218.922500", "162220.412500", "162221.902500", "162223.392500", "162224.882500", "162226.372500", "162227.862500", "162229.352500", "162230.842500", "162232.332500", "162233.822500", "162235.312500", "162236.802500", "162238.292500", "162239.782500", "162241.272500", "162242.762500", "162244.252500", "162245.742500", "162247.232500", "162248.722500", "162250.212500", "162251.702500", "162253.192500", "162254.682500", "162256.172500", "162257.662500", "162259.152500", "162300.642500", "162302.132500", "162303.622500", "162305.112500", "162306.602500", "162308.092500", "162309.582500", "162311.072500", "162312.562500", "162314.052500", "162315.542500", "162317.032500", "162318.522500", "162320.012500", "162321.502500", "162322.992500", "162324.482500", "162325.972500", "162327.462500", "162328.952500", "162330.442500", "162331.932500", "162333.422500", "162334.912500", "162336.402500", "162337.892500", "162339.382500", "162340.872500", "162342.362500", "162343.852500", "162345.342500", "162346.832500", "162348.322500", "162349.812500", "162351.302500", "162352.792500", "162354.282500", "162355.772500", "162357.262500", "162358.752500", "162400.242500", "162401.732500", "162403.222500", "162404.712500", "162406.202500", "162407.692500", "162409.182500", "162410.672500", "162412.162500", "162413.652500", "162415.142500", "162416.632500", "162418.122500", "162419.612500", "162421.102500", "162422.592500", "162424.082500", "162425.572500", "162427.062500", "162428.552500", "162430.042500", "162431.532500", "162433.022500", "162434.512500", "162436.002500", "162437.492500", "162438.982500", "162440.472500", "162441.962500", "162443.452500", "162444.942500", "162446.432500", "162447.922500", "162449.412500", "162450.902500", "162452.392500", "162453.882500", "162455.372500", "162456.862500", "162458.352500", "162459.842500", "162501.332500", "162502.822500", "162504.312500", "162505.802500", "162507.292500", "162508.782500", "162510.272500", "162511.762500", "162513.252500", "162514.742500", "162516.232500", "162517.722500", "162519.212500", "162520.702500", "162522.192500", "162523.682500", "162525.172500", "162526.662500", "162528.152500", "162529.642500", "162531.132500", "162532.622500", "162534.112500", "162535.602500", "162537.092500", "162538.582500", "162540.072500", "162541.562500", "162543.052500", "162544.542500", "162546.032500", "162547.522500", "162549.012500", "162550.502500", "162551.992500", "162553.482500", "162554.972500", "162556.462500", "162557.952500", "162559.442500", "162600.932500", "162602.422500", "162603.912500", "162605.402500", "162606.892500", "162608.382500", "162609.872500", "162611.362500", "162612.852500", "162614.342500", "162615.832500", "162617.322500", "162618.812500", "162620.302500", "162621.792500", "162623.282500", "162624.772500", "162626.262500", "162627.752500", "162629.242500", "162630.732500", "162632.222500", "162633.712500", "162635.202500", "162636.692500", "162638.182500", "162639.672500", "162641.162500", "162642.652500", "162644.142500", "162645.632500", "162647.122500", "162648.612500", "162650.102500", "162651.592500", "162653.082500", "162654.572500", "162656.062500", "162657.552500", "162659.042500", "162700.532500", "162702.022500", "162703.512500", "162705.002500", "162706.492500", "162707.982500", "162709.472500", "162710.962500", "162712.452500", "162713.942500", "162715.432500", "162716.922500", "162718.412500", "162719.902500", "162721.392500", "162722.882500", "162724.372500"],
      "ContentTime": ["161816.540000", "161816.543000", "161816.546000", "161816.548000", "161816.551000", "161816.553000", "161816.556000", "161816.558000", "161816.561000", "161816.563000", "161816.566000", "161816.568000", "161816.571000", "161816.574000", "161816.576000", "161816.579000", "161816.581000", "161816.593000", "161816.596000", "161816.598000", "161816.601000", "161816.603000", "161816.606000", "161836.519000", "161836.522000", "161836.524000", "161836.527000", "161836.547000", "161836.550000", "161836.552000", "161836.555000", "161836.557000", "161836.560000", "161836.562000", "161836.565000", "161836.567000", "161836.570000", "161836.572000", "161836.575000", "161836.577000", "161836.580000", "161836.582000", "161836.585000", "161856.508000", "161856.511000", "161856.513000", "161856.516000", "161856.519000", "161856.521000", "161856.524000", "161856.527000", "161856.529000", "161856.532000", "161856.534000", "161856.537000", "161856.539000", "161856.542000", "161856.544000", "161856.547000", "161856.549000", "161856.552000", "161856.554000", "161856.557000", "161856.560000", "161916.491000", "161916.494000", "161916.497000", "161916.499000", "161916.502000", "161916.504000", "161916.507000", "161916.509000", "161916.512000", "161916.514000", "161916.517000", "161916.520000", "161916.522000", "161916.525000", "161916.527000", "161916.539000", "161916.542000", "161916.552000", "161916.554000", "161916.557000", "161936.507000", "161936.510000", "161936.513000", "161936.515000", "161936.518000", "161936.520000", "161936.523000", "161936.525000", "161936.528000", "161936.530000", "161936.533000", "161936.536000", "161936.538000", "161936.541000", "161936.543000", "161936.546000", "161936.549000", "161936.551000", "161936.554000", "161936.556000", "162016.521000", "162016.524000", "162016.526000", "162016.529000", "162016.532000", "162016.534000", "162016.537000", "162016.539000", "162016.542000", "162016.544000", "162016.547000", "162016.550000", "162016.552000", "162016.555000", "162016.557000", "162016.560000", "162016.562000", "162016.565000", "162016.574000", "162016.577000", "162016.584000", "162016.587000", "162016.589000", "162016.592000", "162016.594000", "162016.597000", "162016.603000", "162016.606000", "162056.534000", "162056.537000", "162056.539000", "162056.542000", "162056.544000", "162056.547000", "162056.550000", "162056.552000", "162056.555000", "162056.557000", "162056.560000", "162056.562000", "162056.565000", "162056.567000", "162056.570000", "162056.572000", "162056.575000", "162056.578000", "162056.580000", "162056.583000", "162056.585000", "162056.588000", "162056.590000", "162056.593000", "162056.595000", "162056.598000", "162056.600000", "162136.913000", "162136.916000", "162136.919000", "162136.921000", "162136.924000", "162136.926000", "162136.929000", "162136.931000", "162136.934000", "162136.937000", "162136.939000", "162136.942000", "162136.944000", "162136.947000", "162136.949000", "162136.952000", "162136.954000", "162136.957000", "162136.959000", "162136.962000", "162136.964000", "162136.967000", "162136.969000", "162136.972000", "162136.975000", "162136.977000", "162136.980000", "162216.531000", "162216.534000", "162216.537000", "162216.539000", "162216.542000", "162216.544000", "162216.547000", "162216.549000", "162216.552000", "162216.554000", "162216.557000", "162216.559000", "162216.562000", "162216.565000", "162216.567000", "162216.570000", "162216.572000", "162216.575000", "162216.577000", "162216.580000", "162216.582000", "162216.585000", "162216.587000", "162216.590000", "162216.601000", "162216.604000", "162256.516000", "162256.519000", "162256.522000", "162256.524000", "162256.528000", "162256.530000", "162256.533000", "162256.536000", "162256.538000", "162256.541000", "162256.543000", "162256.546000", "162256.548000", "162256.551000", "162256.553000", "162256.556000", "162256.559000", "162256.561000", "162256.564000", "162256.566000", "162256.569000", "162256.578000", "162256.581000", "162256.584000", "162256.586000", "162256.589000", "162256.591000", "162336.519000", "162336.521000", "162336.524000", "162336.526000", "162336.529000", "162336.532000", "162336.534000", "162336.537000", "162336.539000", "162336.542000", "162336.544000", "162336.547000", "162336.550000", "162336.552000", "162336.555000", "162336.557000", "162336.560000", "162336.562000", "162336.565000", "162336.568000", "162336.570000", "162336.573000", "162336.575000", "162336.578000", "162336.580000", "162336.583000", "162336.586000", "162416.527000", "162416.530000", "162416.533000", "162416.535000", "162416.538000", "162416.540000", "162416.543000", "162416.546000", "162416.548000", "162416.551000", "162416.554000", "162416.557000", "162416.559000", "162416.562000", "162416.564000", "162416.567000", "162416.570000", "162416.572000", "162416.575000", "162416.577000", "162416.580000", "162416.582000", "162416.585000", "162416.588000", "162416.590000", "162416.593000", "162416.595000", "162456.518000", "162456.521000", "162456.524000", "162456.526000", "162456.529000", "162456.531000", "162456.534000", "162456.536000", "162456.539000", "162456.541000", "162456.544000", "162456.547000", "162456.549000", "162456.552000", "162456.554000", "162456.557000", "162456.559000", "162456.562000", "162456.564000", "162456.567000", "162456.569000", "162456.572000", "162456.575000", "162456.577000", "162456.580000", "162456.582000", "162456.585000", "162536.538000", "162536.540000", "162536.543000", "162536.545000", "162536.548000", "162536.550000", "162536.553000", "162536.556000", "162536.558000", "162536.561000", "162536.563000", "162536.566000", "162536.568000", "162536.571000", "162536.573000", "162536.576000", "162536.578000", "162536.581000", "162536.583000", "162536.586000", "162536.589000", "162536.591000", "162536.594000", "162536.596000", "162536.599000", "162536.601000", "162536.604000", "162616.529000", "162616.532000", "162616.535000", "162616.537000", "162616.540000", "162616.542000", "162616.545000", "162616.548000", "162616.550000", "162616.553000", "162616.555000", "162616.558000", "162616.560000", "162616.563000", "162616.565000", "162616.568000", "162616.571000", "162616.573000", "162616.576000", "162616.578000", "162616.581000", "162616.583000", "162616.586000", "162616.588000", "162616.591000", "162616.593000", "162616.596000", "162656.539000", "162656.542000", "162656.545000", "162656.548000", "162656.551000", "162656.553000", "162656.556000", "162656.558000", "162656.561000", "162656.564000", "162656.567000", "162656.569000", "162656.572000", "162656.575000", "162656.577000", "162656.580000", "162656.582000", "162656.585000", "162656.587000", "162656.590000", "162656.592000", "162656.595000", "162656.597000", "162656.600000", "162656.602000", "162656.605000", "162727.888000", "162727.890000", "162727.893000", "162727.895000", "162727.898000", "162727.900000", "162727.903000", "162727.906000", "162727.908000", "162727.911000", "162727.913000", "162727.916000", "162727.918000", "162727.921000", "162727.923000", "162727.926000", "162727.929000", "162727.931000", "162727.934000", "162727.936000", "162727.939000"],
      "InstanceCreationTime": ["161816.540000", "161816.543000", "161816.546000", "161816.548000", "161816.551000", "161816.553000", "161816.556000", "161816.558000", "161816.561000", "161816.563000", "161816.566000", "161816.568000", "161816.571000", "161816.574000", "161816.576000", "161816.579000", "161816.581000", "161816.593000", "161816.596000", "161816.598000", "161816.601000", "161816.603000", "161816.606000", "161836.519000", "161836.522000", "161836.524000", "161836.527000", "161836.547000", "161836.550000", "161836.552000", "161836.555000", "161836.557000", "161836.560000", "161836.562000", "161836.565000", "161836.567000", "161836.570000", "161836.572000", "161836.575000", "161836.577000", "161836.580000", "161836.582000", "161836.585000", "161856.508000", "161856.511000", "161856.513000", "161856.516000", "161856.519000", "161856.521000", "161856.524000", "161856.527000", "161856.529000", "161856.532000", "161856.534000", "161856.537000", "161856.539000", "161856.542000", "161856.544000", "161856.547000", "161856.549000", "161856.552000", "161856.554000", "161856.557000", "161856.560000", "161916.491000", "161916.494000", "161916.497000", "161916.499000", "161916.502000", "161916.504000", "161916.507000", "161916.509000", "161916.512000", "161916.514000", "161916.517000", "161916.520000", "161916.522000", "161916.525000", "161916.527000", "161916.539000", "161916.542000", "161916.552000", "161916.554000", "161916.557000", "161936.507000", "161936.510000", "161936.513000", "161936.515000", "161936.518000", "161936.520000", "161936.523000", "161936.525000", "161936.528000", "161936.530000", "161936.533000", "161936.536000", "161936.538000", "161936.541000", "161936.543000", "161936.546000", "161936.549000", "161936.551000", "161936.554000", "161936.556000", "162016.521000", "162016.524000", "162016.526000", "162016.529000", "162016.532000", "162016.534000", "162016.537000", "162016.539000", "162016.542000", "162016.544000", "162016.547000", "162016.550000", "162016.552000", "162016.555000", "162016.557000", "162016.560000", "162016.562000", "162016.565000", "162016.574000", "162016.577000", "162016.584000", "162016.587000", "162016.589000", "162016.592000", "162016.594000", "162016.597000", "162016.603000", "162016.606000", "162056.534000", "162056.537000", "162056.539000", "162056.542000", "162056.544000", "162056.547000", "162056.550000", "162056.552000", "162056.555000", "162056.557000", "162056.560000", "162056.562000", "162056.565000", "162056.567000", "162056.570000", "162056.572000", "162056.575000", "162056.578000", "162056.580000", "162056.583000", "162056.585000", "162056.588000", "162056.590000", "162056.593000", "162056.595000", "162056.598000", "162056.600000", "162136.913000", "162136.916000", "162136.919000", "162136.921000", "162136.924000", "162136.926000", "162136.929000", "162136.931000", "162136.934000", "162136.937000", "162136.939000", "162136.942000", "162136.944000", "162136.947000", "162136.949000", "162136.952000", "162136.954000", "162136.957000", "162136.959000", "162136.962000", "162136.964000", "162136.967000", "162136.969000", "162136.972000", "162136.975000", "162136.977000", "162136.980000", "162216.531000", "162216.534000", "162216.537000", "162216.539000", "162216.542000", "162216.544000", "162216.547000", "162216.549000", "162216.552000", "162216.554000", "162216.557000", "162216.559000", "162216.562000", "162216.565000", "162216.567000", "162216.570000", "162216.572000", "162216.575000", "162216.577000", "162216.580000", "162216.582000", "162216.585000", "162216.587000", "162216.590000", "162216.601000", "162216.604000", "162256.516000", "162256.519000", "162256.522000", "162256.524000", "162256.528000", "162256.530000", "162256.533000", "162256.536000", "162256.538000", "162256.541000", "162256.543000", "162256.546000", "162256.548000", "162256.551000", "162256.553000", "162256.556000", "162256.559000", "162256.561000", "162256.564000", "162256.566000", "162256.569000", "162256.578000", "162256.581000", "162256.584000", "162256.586000", "162256.589000", "162256.591000", "162336.519000", "162336.521000", "162336.524000", "162336.526000", "162336.529000", "162336.532000", "162336.534000", "162336.537000", "162336.539000", "162336.542000", "162336.544000", "162336.547000", "162336.550000", "162336.552000", "162336.555000", "162336.557000", "162336.560000", "162336.562000", "162336.565000", "162336.568000", "162336.570000", "162336.573000", "162336.575000", "162336.578000", "162336.580000", "162336.583000", "162336.586000", "162416.527000", "162416.530000", "162416.533000", "162416.535000", "162416.538000", "162416.540000", "162416.543000", "162416.546000", "162416.548000", "162416.551000", "162416.554000", "162416.557000", "162416.559000", "162416.562000", "162416.564000", "162416.567000", "162416.570000", "162416.572000", "162416.575000", "162416.577000", "162416.580000", "162416.582000", "162416.585000", "162416.588000", "162416.590000", "162416.593000", "162416.595000", "162456.518000", "162456.521000", "162456.524000", "162456.526000", "162456.529000", "162456.531000", "162456.534000", "162456.536000", "162456.539000", "162456.541000", "162456.544000", "162456.547000", "162456.549000", "162456.552000", "162456.554000", "162456.557000", "162456.559000", "162456.562000", "162456.564000", "162456.567000", "162456.569000", "162456.572000", "162456.575000", "162456.577000", "162456.580000", "162456.582000", "162456.585000", "162536.538000", "162536.540000", "162536.543000", "162536.545000", "162536.548000", "162536.550000", "162536.553000", "162536.556000", "162536.558000", "162536.561000", "162536.563000", "162536.566000", "162536.568000", "162536.571000", "162536.573000", "162536.576000", "162536.578000", "162536.581000", "162536.583000", "162536.586000", "162536.589000", "162536.591000", "162536.594000", "162536.596000", "162536.599000", "162536.601000", "162536.604000", "162616.529000", "162616.532000", "162616.535000", "162616.537000", "162616.540000", "162616.542000", "162616.545000", "162616.548000", "162616.550000", "162616.553000", "162616.555000", "162616.558000", "162616.560000", "162616.563000", "162616.565000", "162616.568000", "162616.571000", "162616.573000", "162616.576000", "162616.578000", "162616.581000", "162616.583000", "162616.586000", "162616.588000", "162616.591000", "162616.593000", "162616.596000", "162656.539000", "162656.542000", "162656.545000", "162656.548000", "162656.551000", "162656.553000", "162656.556000", "162656.558000", "162656.561000", "162656.564000", "162656.567000", "162656.569000", "162656.572000", "162656.575000", "162656.577000", "162656.580000", "162656.582000", "162656.585000", "162656.587000", "162656.590000", "162656.592000", "162656.595000", "162656.597000", "162656.600000", "162656.602000", "162656.605000", "162727.888000", "162727.890000", "162727.893000", "162727.895000", "162727.898000", "162727.900000", "162727.903000", "162727.906000", "162727.908000", "162727.911000", "162727.913000", "162727.916000", "162727.918000", "162727.921000", "162727.923000", "162727.926000", "162727.929000", "162727.931000", "162727.934000", "162727.936000", "162727.939000"],
