{
  "AcquisitionMatrixPE": 104,
  "AcquisitionNumber": 1,
  "AcquisitionTime": "15:20:17.015000",
  "BandwidthPerPixelPhaseEncode": 17.17,
  "BaseResolution": 104,
  "BodyPartExamined": "BRAIN",
  "CoilCombinationMethod": "Sum of Squares",
  "ConsistencyInfo": "N4_VE11C_LATEST_20160120",
  "ConversionSoftware": "dcm2niix",
  "ConversionSoftwareVersion": "v1.0.20211006",
  "DerivedVendorReportedEchoSpacing": 0.000560011,
  "DeviceSerialNumber": "167006",
  "DwellTime": 2.1e-06,
  "EchoTime": 0.037,
  "EchoTime1": 0.037,
  "EchoTime2": 0.001,
  "EchoTrainLength": 104,
  "EffectiveEchoSpacing": 0.000560011,
  "FlipAngle": 52,
  "HeudiconvVersion": "0.11.3.post9+gc939bf8",
  "ImageComments": "Unaliased MB4/PE3/LB",
  "ImageOrientationPatientDICOM": [0.999469, -0.0321037, 0.00553107, 0.032108, 0.942091, -0.333817],
  "ImageOrientationText": "Tra>Cor(-19.5)>Sag(-0.3)",
  "ImageType": [
    "ORIGINAL",
    "PRIMARY",
    "P",
    "MB",
    "ND",
    "MOSAIC",
    "PHASE"
],
  "ImagingFrequency": 123.259,
  "InPlanePhaseEncodingDirectionDICOM": "COL",
  "InstitutionAddress": "Chemin Queen-Mary 4565,Montreal,District,CA,H3W 1W5",
  "InstitutionName": "IUGM",
  "InstitutionalDepartmentName": "Department",
  "MRAcquisitionType": "2D",
  "MagneticFieldStrength": 3,
  "Manufacturer": "Siemens",
  "ManufacturersModelName": "Prisma_fit",
  "MatrixCoilMode": "SENSE",
  "Modality": "MR",
  "MultibandAccelerationFactor": 4,
  "PartialFourier": 1,
  "PatientPosition": "HFS",
  "PercentPhaseFOV": 100,
  "PercentSampling": 100,
  "PhaseEncodingDirection": "j",
  "PhaseEncodingSteps": 104,
  "PhaseResolution": 1,
  "PixelBandwidth": 2290,
  "ProcedureStepDescription": "games^mariostars",
  "ProtocolName": "func_task-mariostars_run-01",
  "PulseSequenceDetails": "%CustomerSeq%\\cmrr_mbep2d_bold",
  "ReceiveCoilActiveElements": "HC1-7;NC1,2",
  "ReceiveCoilName": "HeadNeck_64",
  "ReconMatrixPE": 104,
  "RepetitionTime": 1.49,
  "SAR": 0.0530937,
  "ScanOptions": "FS",
  "ScanningSequence": "EP",
  "SequenceName": "epfid2d1_104",
  "SequenceVariant": "SK\\SS",
  "SeriesDescription": "func_task-mariostars_run-01",
  "SeriesNumber": 12,
  "ShimSetting": [620, -7258, -8814, 564, 20, -194, -91, -9],
  "SliceThickness": 2,
  "SliceTiming": [0, 0.785, 0.0975, 0.8825, 0.195, 0.98, 0.295, 1.0775, 0.3925, 1.175, 0.49, 1.275, 0.5875, 1.3725, 0.685, 0, 0.785, 0.0975, 0.8825, 0.195, 0.98, 0.295, 1.0775, 0.3925, 1.175, 0.49, 1.275, 0.5875, 1.3725, 0.685, 0, 0.785, 0.0975, 0.8825, 0.195, 0.98, 0.295, 1.0775, 0.3925, 1.175, 0.49, 1.275, 0.5875, 1.3725, 0.685, 0, 0.785, 0.0975, 0.8825, 0.195, 0.98, 0.295, 1.0775, 0.3925, 1.175, 0.49, 1.275, 0.5875, 1.3725, 0.685],
  "SoftwareVersions": "syngo MR E11",
  "SpacingBetweenSlices": 2,
  "StationName": "MRC35049",
  "TaskName": "mariostars",
  "TotalReadoutTime": 0.0576811,
  "TxRefAmp": 263.65,
  "WipMemBlock": "38490ac4-170a-432b-bb6f-41219c773661||Sequence: R016 ve11c/master r/e634e98; Dec 19 2017 11:00:25 by eja",
  "dcmmeta_affine": [
    [-1.9989384412765503, 0.06421606987714767, -0.01101201493293047, 103.38607025146484],
    [0.06420745700597763, 1.8841816186904907, -0.6676353812217712, -68.53265380859375],
    [0.011062143370509148, 0.6676345467567444, 1.8852431774139404, -64.35456085205078],
    [0.0, 0.0, 0.0, 1.0]
],
  "dcmmeta_reorient_transform": [
    [0.0, -1.0, 0.0, 103.0],
    [1.0, 0.0, 0.0, 0.0],
    [0.0, 0.0, 1.0, 0.0],
    [0.0, 0.0, 0.0, 1.0]
],
  "dcmmeta_shape": [104, 104, 60, 428],
  "dcmmeta_slice_dim": 2,
  "dcmmeta_version": 0.6,
  "global": {
    "const": {
      "AcquisitionMatrix": [104, 0, 0, 104],
      "AngioFlag": "N",
      "BitsAllocated": 16,
      "BitsStored": 16,
      "BodyPartExamined": "BRAIN",
      "Columns": 832,
      "EchoNumbers": 1,
      "EchoTime": 37.0,
      "EchoTrainLength": 104,
      "FlipAngle": 52.0,
      "HighBit": 15,
      "ImageOrientationPatient": [0.99946923808835, -0.0321037281316, 0.00553107179033, 0.03210803638962, 0.94209081361254, -0.3338172747269],
      "ImagePositionPatient": [-860.98858117068, -788.00865010917, 243.40415372588],
      "ImageType": [
        "ORIGINAL",
        "PRIMARY",
        "P",
        "MB",
        "ND",
        "MOSAIC"
],
      "ImagedNucleus": "1H",
      "ImagingFrequency": 123.258804,
      "InPlanePhaseEncodingDirection": "COL",
      "LargestImagePixelValue": 4095,
      "MRAcquisitionType": "2D",
      "MagneticFieldStrength": 3.0,
      "Manufacturer": "SIEMENS",
      "ManufacturerModelName": "Prisma_fit",
      "Modality": "MR",
      "NumberOfAverages": 1.0,
      "NumberOfPhaseEncodingSteps": 104,
      "PercentPhaseFieldOfView": 100.0,
      "PercentSampling": 100.0,
      "PerformedProcedureStepStartTime": "142653.359000",
      "PhotometricInterpretation": "MONOCHROME2",
      "PixelBandwidth": 2290.0,
      "PixelRepresentation": 0,
      "PixelSpacing": [2.0, 2.0],
      "ProtocolName": "func_task-mariostars_run-01",
      "RepetitionTime": 1490.0,
      "RescaleIntercept": -4096.0,
      "RescaleSlope": 2.0,
      "RescaleType": "US",
      "Rows": 832,
      "SAR": 0.05309373076208,
      "SamplesPerPixel": 1,
      "ScanOptions": "FS",
      "ScanningSequence": "EP",
      "SequenceName": "epfid2d1_104",
      "SequenceVariant": [
        "SK",
        "SS"
],
      "SeriesDescription": "func_task-mariostars_run-01",
      "SeriesNumber": 12,
      "SeriesTime": "152150.159000",
      "SliceLocation": -38.353828974463,
      "SliceThickness": 2.0,
      "SmallestImagePixelValue": 0,
      "SoftwareVersions": "syngo MR E11",
      "SpacingBetweenSlices": 2.0000000483801,
      "SpecificCharacterSet": "ISO_IR 100",
      "StudyID": "1",
      "StudyTime": "142653.286000",
      "TransmitCoilName": "Body",
      "VariableFlipAngleFlag": "N",
      "WindowCenterWidthExplanation": "Algo1",
      "dBdt": 0.0},
    "slices": {}
  },
  "time": {
    "samples": {
      "AcquisitionNumber": [1, 2, 3, 4, 5, 6, 7, 8, 9, 10, 11, 12, 13, 14, 15, 16, 17, 18, 19, 20, 21, 22, 23, 24, 25, 26, 27, 28, 29, 30, 31, 32, 33, 34, 35, 36, 37, 38, 39, 40, 41, 42, 43, 44, 45, 46, 47, 48, 49, 50, 51, 52, 53, 54, 55, 56, 57, 58, 59, 60, 61, 62, 63, 64, 65, 66, 67, 68, 69, 70, 71, 72, 73, 74, 75, 76, 77, 78, 79, 80, 81, 82, 83, 84, 85, 86, 87, 88, 89, 90, 91, 92, 93, 94, 95, 96, 97, 98, 99, 100, 101, 102, 103, 104, 105, 106, 107, 108, 109, 110, 111, 112, 113, 114, 115, 116, 117, 118, 119, 120, 121, 122, 123, 124, 125, 126, 127, 128, 129, 130, 131, 132, 133, 134, 135, 136, 137, 138, 139, 140, 141, 142, 143, 144, 145, 146, 147, 148, 149, 150, 151, 152, 153, 154, 155, 156, 157, 158, 159, 160, 161, 162, 163, 164, 165, 166, 167, 168, 169, 170, 171, 172, 173, 174, 175, 176, 177, 178, 179, 180, 181, 182, 183, 184, 185, 186, 187, 188, 189, 190, 191, 192, 193, 194, 195, 196, 197, 198, 199, 200, 201, 202, 203, 204, 205, 206, 207, 208, 209, 210, 211, 212, 213, 214, 215, 216, 217, 218, 219, 220, 221, 222, 223, 224, 225, 226, 227, 228, 229, 230, 231, 232, 233, 234, 235, 236, 237, 238, 239, 240, 241, 242, 243, 244, 245, 246, 247, 248, 249, 250, 251, 252, 253, 254, 255, 256, 257, 258, 259, 260, 261, 262, 263, 264, 265, 266, 267, 268, 269, 270, 271, 272, 273, 274, 275, 276, 277, 278, 279, 280, 281, 282, 283, 284, 285, 286, 287, 288, 289, 290, 291, 292, 293, 294, 295, 296, 297, 298, 299, 300, 301, 302, 303, 304, 305, 306, 307, 308, 309, 310, 311, 312, 313, 314, 315, 316, 317, 318, 319, 320, 321, 322, 323, 324, 325, 326, 327, 328, 329, 330, 331, 332, 333, 334, 335, 336, 337, 338, 339, 340, 341, 342, 343, 344, 345, 346, 347, 348, 349, 350, 351, 352, 353, 354, 355, 356, 357, 358, 359, 360, 361, 362, 363, 364, 365, 366, 367, 368, 369, 370, 371, 372, 373, 374, 375, 376, 377, 378, 379, 380, 381, 382, 383, 384, 385, 386, 387, 388, 389, 390, 391, 392, 393, 394, 395, 396, 397, 398, 399, 400, 401, 402, 403, 404, 405, 406, 407, 408, 409, 410, 411, 412, 413, 414, 415, 416, 417, 418, 419, 420, 421, 422, 423, 424, 425, 426, 427, 428],
      "AcquisitionTime": ["152017.015000", "152018.505000", "152019.995000", "152021.485000", "152022.975000", "152024.465000", "152025.955000", "152027.445000", "152028.935000", "152030.425000", "152031.915000", "152033.405000", "152034.895000", "152036.385000", "152037.875000", "152039.365000", "152040.855000", "152042.345000", "152043.835000", "152045.325000", "152046.815000", "152048.305000", "152049.795000", "152051.285000", "152052.775000", "152054.265000", "152055.755000", "152057.245000", "152058.735000", "152100.225000", "152101.715000", "152103.205000", "152104.695000", "152106.185000", "152107.675000", "152109.165000", "152110.655000", "152112.145000", "152113.635000", "152115.125000", "152116.615000", "152118.105000", "152119.595000", "152121.085000", "152122.575000", "152124.065000", "152125.555000", "152127.045000", "152128.535000", "152130.025000", "152131.515000", "152133.005000", "152134.495000", "152135.985000", "152137.475000", "152138.965000", "152140.455000", "152141.945000", "152143.435000", "152144.925000", "152146.415000", "152147.905000", "152149.395000", "152150.885000", "152152.375000", "152153.865000", "152155.355000", "152156.845000", "152158.335000", "152159.825000", "152201.315000", "152202.805000", "152204.295000", "152205.785000", "152207.275000", "152208.765000", "152210.255000", "152211.745000", "152213.235000", "152214.725000", "152216.215000", "152217.705000", "152219.195000", "152220.685000", "152222.175000", "152223.665000", "152225.155000", "152226.645000", "152228.135000", "152229.625000", "152231.115000", "152232.605000", "152234.095000", "152235.585000", "152237.075000", "152238.565000", "152240.055000", "152241.545000", "152243.035000", "152244.525000", "152246.015000", "152247.505000", "152248.995000", "152250.485000", "152251.975000", "152253.465000", "152254.955000", "152256.445000", "152257.935000", "152259.425000", "152300.915000", "152302.405000", "152303.895000", "152305.385000", "152306.875000", "152308.365000", "152309.855000", "152311.345000", "152312.835000", "152314.325000", "152315.815000", "152317.305000", "152318.795000", "152320.285000", "152321.775000", "152323.265000", "152324.755000", "152326.245000", "152327.735000", "152329.225000", "152330.715000", "152332.205000", "152333.695000", "152335.185000", "152336.675000", "152338.165000", "152339.655000", "152341.145000", "152342.635000", "152344.125000", "152345.615000", "152347.105000", "152348.595000", "152350.085000", "152351.575000", "152353.065000", "152354.555000", "152356.045000", "152357.535000", "152359.025000", "152400.515000", "152402.005000", "152403.495000", "152404.985000", "152406.475000", "152407.965000", "152409.455000", "152410.945000", "152412.435000", "152413.925000", "152415.415000", "152416.905000", "152418.395000", "152419.885000", "152421.375000", "152422.865000", "152424.355000", "152425.845000", "152427.335000", "152428.825000", "152430.315000", "152431.805000", "152433.295000", "152434.785000", "152436.275000", "152437.765000", "152439.255000", "152440.745000", "152442.235000", "152443.725000", "152445.215000", "152446.705000", "152448.195000", "152449.685000", "152451.175000", "152452.665000", "152454.155000", "152455.645000", "152457.135000", "152458.625000", "152500.115000", "152501.605000", "152503.095000", "152504.585000", "152506.075000", "152507.565000", "152509.055000", "152510.545000", "152512.035000", "152513.525000", "152515.015000", "152516.505000", "152517.995000", "152519.485000", "152520.975000", "152522.465000", "152523.955000", "152525.445000", "152526.935000", "152528.425000", "152529.915000", "152531.405000", "152532.895000", "152534.385000", "152535.875000", "152537.365000", "152538.855000", "152540.345000", "152541.835000", "152543.325000", "152544.815000", "152546.305000", "152547.795000", "152549.285000", "152550.775000", "152552.265000", "152553.755000", "152555.245000", "152556.735000", "152558.225000", "152559.715000", "152601.205000", "152602.695000", "152604.185000", "152605.675000", "152607.165000", "152608.655000", "152610.145000", "152611.635000", "152613.125000", "152614.615000", "152616.105000", "152617.595000", "152619.085000", "152620.575000", "152622.065000", "152623.555000", "152625.045000", "152626.535000", "152628.025000", "152629.515000", "152631.005000", "152632.495000", "152633.985000", "152635.475000", "152636.965000", "152638.455000", "152639.945000", "152641.435000", "152642.925000", "152644.415000", "152645.905000", "152647.395000", "152648.885000", "152650.375000", "152651.865000", "152653.355000", "152654.845000", "152656.335000", "152657.825000", "152659.315000", "152700.805000", "152702.295000", "152703.785000", "152705.275000", "152706.765000", "152708.255000", "152709.745000", "152711.235000", "152712.725000", "152714.215000", "152715.705000", "152717.195000", "152718.685000", "152720.175000", "152721.665000", "152723.155000", "152724.645000", "152726.135000", "152727.625000", "152729.115000", "152730.605000", "152732.095000", "152733.585000", "152735.075000", "152736.565000", "152738.055000", "152739.545000", "152741.035000", "152742.525000", "152744.015000", "152745.505000", "152746.995000", "152748.485000", "152749.975000", "152751.465000", "152752.955000", "152754.445000", "152755.935000", "152757.425000", "152758.915000", "152800.405000", "152801.895000", "152803.385000", "152804.875000", "152806.365000", "152807.855000", "152809.345000", "152810.835000", "152812.325000", "152813.815000", "152815.305000", "152816.795000", "152818.285000", "152819.775000", "152821.265000", "152822.755000", "152824.245000", "152825.735000", "152827.225000", "152828.715000", "152830.205000", "152831.695000", "152833.185000", "152834.675000", "152836.165000", "152837.655000", "152839.145000", "152840.635000", "152842.125000", "152843.615000", "152845.105000", "152846.595000", "152848.085000", "152849.575000", "152851.065000", "152852.555000", "152854.045000", "152855.535000", "152857.025000", "152858.515000", "152900.005000", "152901.495000", "152902.985000", "152904.475000", "152905.965000", "152907.455000", "152908.945000", "152910.435000", "152911.925000", "152913.415000", "152914.905000", "152916.395000", "152917.885000", "152919.375000", "152920.865000", "152922.355000", "152923.845000", "152925.335000", "152926.825000", "152928.315000", "152929.805000", "152931.295000", "152932.785000", "152934.275000", "152935.765000", "152937.255000", "152938.745000", "152940.235000", "152941.725000", "152943.215000", "152944.705000", "152946.195000", "152947.685000", "152949.175000", "152950.665000", "152952.155000", "152953.645000", "152955.135000", "152956.625000", "152958.115000", "152959.605000", "153001.095000", "153002.585000", "153004.075000", "153005.565000", "153007.055000", "153008.545000", "153010.035000", "153011.525000", "153013.015000", "153014.505000", "153015.995000", "153017.485000", "153018.975000", "153020.465000", "153021.955000", "153023.445000", "153024.935000", "153026.425000", "153027.915000", "153029.405000", "153030.895000", "153032.385000", "153033.875000", "153035.365000", "153036.855000", "153038.345000", "153039.835000", "153041.325000", "153042.815000", "153044.305000", "153045.795000", "153047.285000", "153048.775000", "153050.265000", "153051.755000", "153053.245000"],
      "ContentTime": ["152150.162000", "152150.165000", "152150.167000", "152150.170000", "152150.172000", "152150.175000", "152150.177000", "152150.180000", "152150.182000", "152150.185000", "152150.187000", "152150.190000", "152150.192000", "152150.195000", "152150.197000", "152150.200000", "152150.202000", "152150.205000", "152150.207000", "152150.210000", "152150.212000", "152150.215000", "152150.217000", "152150.220000", "152150.222000", "152150.225000", "152150.227000", "152150.230000", "152150.232000", "152150.235000", "152150.237000", "152150.240000", "152150.242000", "152150.245000", "152150.248000", "152150.250000", "152150.253000", "152150.255000", "152150.258000", "152210.040000", "152210.042000", "152210.045000", "152210.047000", "152210.050000", "152210.052000", "152210.055000", "152210.057000", "152210.060000", "152210.063000", "152210.065000", "152210.068000", "152210.070000", "152210.073000", "152210.075000", "152210.078000", "152210.080000", "152210.083000", "152210.085000", "152210.088000", "152210.090000", "152230.044000", "152230.047000", "152230.050000", "152230.052000", "152230.055000", "152230.057000", "152230.060000", "152230.062000", "152230.065000", "152230.067000", "152230.070000", "152230.073000", "152230.075000", "152230.078000", "152230.080000", "152230.083000", "152230.085000", "152230.088000", "152230.090000", "152230.100000", "152250.038000", "152250.041000", "152250.044000", "152250.046000", "152250.049000", "152250.051000", "152250.054000", "152250.056000", "152250.059000", "152250.061000", "152250.064000", "152250.066000", "152250.069000", "152250.071000", "152250.074000", "152250.076000", "152250.079000", "152250.081000", "152250.084000", "152250.086000", "152330.074000", "152330.077000", "152330.079000", "152330.082000", "152330.090000", "152330.093000", "152330.095000", "152330.098000", "152330.100000", "152330.103000", "152330.105000", "152330.108000", "152330.110000", "152330.113000", "152330.115000", "152330.118000", "152330.121000", "152330.123000", "152330.126000", "152330.137000", "152330.140000", "152330.142000", "152330.145000", "152330.148000", "152330.150000", "152330.153000", "152330.155000", "152330.158000", "152330.160000", "152410.087000", "152410.090000", "152410.092000", "152410.095000", "152410.097000", "152410.107000", "152410.110000", "152410.112000", "152410.115000", "152410.117000", "152410.120000", "152410.123000", "152410.125000", "152410.128000", "152410.130000", "152410.133000", "152410.135000", "152410.138000", "152410.141000", "152410.143000", "152410.146000", "152410.148000", "152410.151000", "152410.153000", "152410.156000", "152410.158000", "152450.068000", "152450.070000", "152450.073000", "152450.076000", "152450.078000", "152450.081000", "152450.083000", "152450.086000", "152450.088000", "152450.091000", "152450.094000", "152450.096000", "152450.099000", "152450.101000", "152450.104000", "152450.106000", "152450.109000", "152450.112000", "152450.114000", "152450.117000", "152450.120000", "152450.122000", "152450.125000", "152450.127000", "152450.130000", "152450.133000", "152450.136000", "152530.069000", "152530.072000", "152530.074000", "152530.077000", "152530.080000", "152530.082000", "152530.085000", "152530.087000", "152530.090000", "152530.092000", "152530.095000", "152530.097000", "152530.100000", "152530.102000", "152530.105000", "152530.108000", "152530.110000", "152530.113000", "152530.115000", "152530.118000", "152530.121000", "152530.123000", "152530.126000", "152530.128000", "152530.131000", "152530.133000", "152530.136000", "152610.071000", "152610.074000", "152610.077000", "152610.079000", "152610.082000", "152610.085000", "152610.087000", "152610.090000", "152610.092000", "152610.095000", "152610.097000", "152610.100000", "152610.103000", "152610.105000", "152610.108000", "152610.110000", "152610.113000", "152610.115000", "152610.118000", "152610.120000", "152610.123000", "152610.126000", "152610.128000", "152610.131000", "152610.133000", "152610.136000", "152610.138000", "152650.063000", "152650.065000", "152650.068000", "152650.071000", "152650.073000", "152650.076000", "152650.079000", "152650.081000", "152650.084000", "152650.086000", "152650.089000", "152650.091000", "152650.094000", "152650.096000", "152650.099000", "152650.101000", "152650.104000", "152650.106000", "152650.109000", "152650.112000", "152650.114000", "152650.117000", "152650.119000", "152650.122000", "152650.125000", "152650.127000", "152650.130000", "152730.071000", "152730.073000", "152730.076000", "152730.079000", "152730.081000", "152730.084000", "152730.086000", "152730.089000", "152730.091000", "152730.094000", "152730.097000", "152730.099000", "152730.102000", "152730.104000", "152730.107000", "152730.109000", "152730.112000", "152730.114000", "152730.117000", "152730.119000", "152730.122000", "152730.125000", "152730.127000", "152730.130000", "152730.133000", "152730.135000", "152730.138000", "152810.067000", "152810.070000", "152810.073000", "152810.075000", "152810.078000", "152810.080000", "152810.083000", "152810.086000", "152810.088000", "152810.091000", "152810.093000", "152810.096000", "152810.098000", "152810.101000", "152810.104000", "152810.106000", "152810.109000", "152810.111000", "152810.114000", "152810.116000", "152810.119000", "152810.122000", "152810.124000", "152810.127000", "152810.129000", "152810.132000", "152810.134000", "152850.059000", "152850.062000", "152850.064000", "152850.067000", "152850.070000", "152850.072000", "152850.075000", "152850.077000", "152850.080000", "152850.083000", "152850.085000", "152850.088000", "152850.090000", "152850.093000", "152850.096000", "152850.107000", "152850.109000", "152850.112000", "152850.114000", "152850.117000", "152850.119000", "152850.122000", "152850.125000", "152850.127000", "152850.130000", "152850.132000", "152930.084000", "152930.087000", "152930.089000", "152930.092000", "152930.095000", "152930.097000", "152930.100000", "152930.102000", "152930.105000", "152930.107000", "152930.110000", "152930.113000", "152930.115000", "152930.119000", "152930.122000", "152930.124000", "152930.127000", "152930.130000", "152930.132000", "152930.135000", "152930.137000", "152930.140000", "152930.142000", "152930.145000", "152930.147000", "152930.150000", "152930.152000", "153010.056000", "153010.059000", "153010.062000", "153010.065000", "153010.067000", "153010.070000", "153010.072000", "153010.075000", "153010.077000", "153010.080000", "153010.083000", "153010.085000", "153010.088000", "153010.090000", "153010.093000", "153010.095000", "153010.098000", "153010.101000", "153010.103000", "153010.106000", "153010.108000", "153010.111000", "153010.114000", "153010.116000", "153010.119000", "153010.121000", "153010.124000", "153050.453000", "153050.456000", "153050.458000", "153050.461000", "153050.463000", "153050.466000", "153050.469000", "153050.471000", "153050.474000", "153050.476000", "153050.479000", "153050.481000", "153050.484000", "153050.487000", "153050.489000", "153050.492000", "153050.494000", "153050.497000", "153050.499000", "153050.502000", "153050.504000", "153050.507000", "153050.510000", "153050.512000", "153050.515000", "153050.518000", "153050.520000", "153056.123000", "153056.126000", "153056.128000", "153056.131000"],
      "InstanceCreationTime": ["152150.162000", "152150.165000", "152150.167000", "152150.170000", "152150.172000", "152150.175000", "152150.177000", "152150.180000", "152150.182000", "152150.185000", "152150.187000", "152150.190000", "152150.192000", "152150.195000", "152150.197000", "152150.200000", "152150.202000", "152150.205000", "152150.207000", "152150.210000", "152150.212000", "152150.215000", "152150.217000", "152150.220000", "152150.222000", "152150.225000", "152150.227000", "152150.230000", "152150.232000", "152150.235000", "152150.237000", "152150.240000", "152150.242000", "152150.245000", "152150.248000", "152150.250000", "152150.253000", "152150.255000", "152150.258000", "152210.040000", "152210.042000", "152210.045000", "152210.047000", "152210.050000", "152210.052000", "152210.055000", "152210.057000", "152210.060000", "152210.063000", "152210.065000", "152210.068000", "152210.070000", "152210.073000", "152210.075000", "152210.078000", "152210.080000", "152210.083000", "152210.085000", "152210.088000", "152210.090000", "152230.044000", "152230.047000", "152230.050000", "152230.052000", "152230.055000", "152230.057000", "152230.060000", "152230.062000", "152230.065000", "152230.067000", "152230.070000", "152230.073000", "152230.075000", "152230.078000", "152230.080000", "152230.083000", "152230.085000", "152230.088000", "152230.090000", "152230.100000", "152250.038000", "152250.041000", "152250.044000", "152250.046000", "152250.049000", "152250.051000", "152250.054000", "152250.056000", "152250.059000", "152250.061000", "152250.064000", "152250.066000", "152250.069000", "152250.071000", "152250.074000", "152250.076000", "152250.079000", "152250.081000", "152250.084000", "152250.086000", "152330.074000", "152330.077000", "152330.079000", "152330.082000", "152330.090000", "152330.093000", "152330.095000", "152330.098000", "152330.100000", "152330.103000", "152330.105000", "152330.108000", "152330.110000", "152330.113000", "152330.115000", "152330.118000", "152330.121000", "152330.123000", "152330.126000", "152330.137000", "152330.140000", "152330.142000", "152330.145000", "152330.148000", "152330.150000", "152330.153000", "152330.155000", "152330.158000", "152330.160000", "152410.087000", "152410.090000", "152410.092000", "152410.095000", "152410.097000", "152410.107000", "152410.110000", "152410.112000", "152410.115000", "152410.117000", "152410.120000", "152410.123000", "152410.125000", "152410.128000", "152410.130000", "152410.133000", "152410.135000", "152410.138000", "152410.141000", "152410.143000", "152410.146000", "152410.148000", "152410.151000", "152410.153000", "152410.156000", "152410.158000", "152450.068000", "152450.070000", "152450.073000", "152450.076000", "152450.078000", "152450.081000", "152450.083000", "152450.086000", "152450.088000", "152450.091000", "152450.094000", "152450.096000", "152450.099000", "152450.101000", "152450.104000", "152450.106000", "152450.109000", "152450.112000", "152450.114000", "152450.117000", "152450.120000", "152450.122000", "152450.125000", "152450.127000", "152450.130000", "152450.133000", "152450.136000", "152530.069000", "152530.072000", "152530.074000", "152530.077000", "152530.080000", "152530.082000", "152530.085000", "152530.087000", "152530.090000", "152530.092000", "152530.095000", "152530.097000", "152530.100000", "152530.102000", "152530.105000", "152530.108000", "152530.110000", "152530.113000", "152530.115000", "152530.118000", "152530.121000", "152530.123000", "152530.126000", "152530.128000", "152530.131000", "152530.133000", "152530.136000", "152610.071000", "152610.074000", "152610.077000", "152610.079000", "152610.082000", "152610.085000", "152610.087000", "152610.090000", "152610.092000", "152610.095000", "152610.097000", "152610.100000", "152610.103000", "152610.105000", "152610.108000", "152610.110000", "152610.113000", "152610.115000", "152610.118000", "152610.120000", "152610.123000", "152610.126000", "152610.128000", "152610.131000", "152610.133000", "152610.136000", "152610.138000", "152650.063000", "152650.065000", "152650.068000", "152650.071000", "152650.073000", "152650.076000", "152650.079000", "152650.081000", "152650.084000", "152650.086000", "152650.089000", "152650.091000", "152650.094000", "152650.096000", "152650.099000", "152650.101000", "152650.104000", "152650.106000", "152650.109000", "152650.112000", "152650.114000", "152650.117000", "152650.119000", "152650.122000", "152650.125000", "152650.127000", "152650.130000", "152730.071000", "152730.073000", "152730.076000", "152730.079000", "152730.081000", "152730.084000", "152730.086000", "152730.089000", "152730.091000", "152730.094000", "152730.097000", "152730.099000", "152730.102000", "152730.104000", "152730.107000", "152730.109000", "152730.112000", "152730.114000", "152730.117000", "152730.119000", "152730.122000", "152730.125000", "152730.127000", "152730.130000", "152730.133000", "152730.135000", "152730.138000", "152810.067000", "152810.070000", "152810.073000", "152810.075000", "152810.078000", "152810.080000", "152810.083000", "152810.086000", "152810.088000", "152810.091000", "152810.093000", "152810.096000", "152810.098000", "152810.101000", "152810.104000", "152810.106000", "152810.109000", "152810.111000", "152810.114000", "152810.116000", "152810.119000", "152810.122000", "152810.124000", "152810.127000", "152810.129000", "152810.132000", "152810.134000", "152850.059000", "152850.062000", "152850.064000", "152850.067000", "152850.070000", "152850.072000", "152850.075000", "152850.077000", "152850.080000", "152850.083000", "152850.085000", "152850.088000", "152850.090000", "152850.093000", "152850.096000", "152850.107000", "152850.109000", "152850.112000", "152850.114000", "152850.117000", "152850.119000", "152850.122000", "152850.125000", "152850.127000", "152850.130000", "152850.132000", "152930.084000", "152930.087000", "152930.089000", "152930.092000", "152930.095000", "152930.097000", "152930.100000", "152930.102000", "152930.105000", "152930.107000", "152930.110000", "152930.113000", "152930.115000", "152930.119000", "152930.122000", "152930.124000", "152930.127000", "152930.130000", "152930.132000", "152930.135000", "152930.137000", "152930.140000", "152930.142000", "152930.145000", "152930.147000", "152930.150000", "152930.152000", "153010.056000", "153010.059000", "153010.062000", "153010.065000", "153010.067000", "153010.070000", "153010.072000", "153010.075000", "153010.077000", "153010.080000", "153010.083000", "153010.085000", "153010.088000", "153010.090000", "153010.093000", "153010.095000", "153010.098000", "153010.101000", "153010.103000", "153010.106000", "153010.108000", "153010.111000", "153010.114000", "153010.116000", "153010.119000", "153010.121000", "153010.124000", "153050.453000", "153050.456000", "153050.458000", "153050.461000", "153050.463000", "153050.466000", "153050.469000", "153050.471000", "153050.474000", "153050.476000", "153050.479000", "153050.481000", "153050.484000", "153050.487000", "153050.489000", "153050.492000", "153050.494000", "153050.497000", "153050.499000", "153050.502000", "153050.504000", "153050.507000", "153050.510000", "153050.512000", "153050.515000", "153050.518000", "153050.520000", "153056.123000", "153056.126000", "153056.128000", "153056.131000"],
