{
  "AcquisitionMatrixPE": 104,
  "AcquisitionNumber": 1,
  "AcquisitionTime": "15:33:29.030000",
  "BandwidthPerPixelPhaseEncode": 17.17,
  "BaseResolution": 104,
  "BodyPartExamined": "BRAIN",
  "CoilCombinationMethod": "Sum of Squares",
  "ConsistencyInfo": "N4_VE11C_LATEST_20160120",
  "ConversionSoftware": "dcm2niix",
  "ConversionSoftwareVersion": "v1.0.20211006",
  "DerivedVendorReportedEchoSpacing": 0.000560011,
  "DeviceSerialNumber": "167006",
  "DwellTime": 2.1e-06,
  "EchoTime": 0.037,
  "EchoTime1": 0.037,
  "EchoTime2": 0.001,
  "EchoTrainLength": 104,
  "EffectiveEchoSpacing": 0.000560011,
  "FlipAngle": 52,
  "HeudiconvVersion": "0.11.3.post9+gc939bf8",
  "ImageComments": "Unaliased MB4/PE3/LB",
  "ImageOrientationPatientDICOM": [0.999469, -0.0321037, 0.00553107, 0.032108, 0.942091, -0.333817],
  "ImageOrientationText": "Tra>Cor(-19.5)>Sag(-0.3)",
  "ImageType": [
    "ORIGINAL",
    "PRIMARY",
    "P",
    "MB",
    "ND",
    "MOSAIC",
    "PHASE"
],
  "ImagingFrequency": 123.259,
  "InPlanePhaseEncodingDirectionDICOM": "COL",
  "InstitutionAddress": "Chemin Queen-Mary 4565,Montreal,District,CA,H3W 1W5",
  "InstitutionName": "IUGM",
  "InstitutionalDepartmentName": "Department",
  "MRAcquisitionType": "2D",
  "MagneticFieldStrength": 3,
  "Manufacturer": "Siemens",
  "ManufacturersModelName": "Prisma_fit",
  "MatrixCoilMode": "SENSE",
  "Modality": "MR",
  "MultibandAccelerationFactor": 4,
  "PartialFourier": 1,
  "PatientPosition": "HFS",
  "PercentPhaseFOV": 100,
  "PercentSampling": 100,
  "PhaseEncodingDirection": "j",
  "PhaseEncodingSteps": 104,
  "PhaseResolution": 1,
  "PixelBandwidth": 2290,
  "ProcedureStepDescription": "games^mariostars",
  "ProtocolName": "func_task-mariostars_run-02",
  "PulseSequenceDetails": "%CustomerSeq%\\cmrr_mbep2d_bold",
  "ReceiveCoilActiveElements": "HC1-7;NC1,2",
  "ReceiveCoilName": "HeadNeck_64",
  "ReconMatrixPE": 104,
  "RepetitionTime": 1.49,
  "SAR": 0.0530937,
  "ScanOptions": "FS",
  "ScanningSequence": "EP",
  "SequenceName": "epfid2d1_104",
  "SequenceVariant": "SK\\SS",
  "SeriesDescription": "func_task-mariostars_run-02",
  "SeriesNumber": 15,
  "ShimSetting": [620, -7258, -8814, 564, 20, -194, -91, -9],
  "SliceThickness": 2,
  "SliceTiming": [0, 0.7825, 0.0975, 0.88, 0.195, 0.98, 0.2925, 1.0775, 0.39, 1.175, 0.49, 1.2725, 0.5875, 1.37, 0.685, 0, 0.7825, 0.0975, 0.88, 0.195, 0.98, 0.2925, 1.0775, 0.39, 1.175, 0.49, 1.2725, 0.5875, 1.37, 0.685, 0, 0.7825, 0.0975, 0.88, 0.195, 0.98, 0.2925, 1.0775, 0.39, 1.175, 0.49, 1.2725, 0.5875, 1.37, 0.685, 0, 0.7825, 0.0975, 0.88, 0.195, 0.98, 0.2925, 1.0775, 0.39, 1.175, 0.49, 1.2725, 0.5875, 1.37, 0.685],
  "SoftwareVersions": "syngo MR E11",
  "SpacingBetweenSlices": 2,
  "StationName": "MRC35049",
  "TaskName": "mariostars",
  "TotalReadoutTime": 0.0576811,
  "TxRefAmp": 263.65,
  "WipMemBlock": "b6a65723-916d-43cc-908f-1aab4d38e87d||Sequence: R016 ve11c/master r/e634e98; Dec 19 2017 11:00:25 by eja",
  "dcmmeta_affine": [
    [-1.9989384412765503, 0.06421606987714767, -0.01101201493293047, 103.38607025146484],
    [0.06420745700597763, 1.8841816186904907, -0.6676353812217712, -68.53265380859375],
    [0.011062143370509148, 0.6676345467567444, 1.8852431774139404, -64.35456085205078],
    [0.0, 0.0, 0.0, 1.0]
],
  "dcmmeta_reorient_transform": [
    [0.0, -1.0, 0.0, 103.0],
    [1.0, 0.0, 0.0, 0.0],
    [0.0, 0.0, 1.0, 0.0],
    [0.0, 0.0, 0.0, 1.0]
],
  "dcmmeta_shape": [104, 104, 60, 572],
  "dcmmeta_slice_dim": 2,
  "dcmmeta_version": 0.6,
  "global": {
    "const": {
      "AcquisitionMatrix": [104, 0, 0, 104],
      "AngioFlag": "N",
      "BitsAllocated": 16,
      "BitsStored": 16,
      "BodyPartExamined": "BRAIN",
      "Columns": 832,
      "EchoNumbers": 1,
      "EchoTime": 37.0,
      "EchoTrainLength": 104,
      "FlipAngle": 52.0,
      "HighBit": 15,
      "ImageOrientationPatient": [0.99946923808835, -0.0321037281316, 0.00553107179033, 0.03210803638962, 0.94209081361254, -0.3338172747269],
      "ImagePositionPatient": [-860.98858117068, -788.00865010917, 243.40415372588],
      "ImageType": [
        "ORIGINAL",
        "PRIMARY",
        "P",
        "MB",
        "ND",
        "MOSAIC"
],
      "ImagedNucleus": "1H",
      "ImagingFrequency": 123.258811,
      "InPlanePhaseEncodingDirection": "COL",
      "LargestImagePixelValue": 4095,
      "MRAcquisitionType": "2D",
      "MagneticFieldStrength": 3.0,
      "Manufacturer": "SIEMENS",
      "ManufacturerModelName": "Prisma_fit",
      "Modality": "MR",
      "NumberOfAverages": 1.0,
      "NumberOfPhaseEncodingSteps": 104,
      "PercentPhaseFieldOfView": 100.0,
      "PercentSampling": 100.0,
      "PerformedProcedureStepStartTime": "142653.359000",
      "PhotometricInterpretation": "MONOCHROME2",
      "PixelBandwidth": 2290.0,
      "PixelRepresentation": 0,
      "PixelSpacing": [2.0, 2.0],
      "ProtocolName": "func_task-mariostars_run-02",
      "RepetitionTime": 1490.0,
      "RescaleIntercept": -4096.0,
      "RescaleSlope": 2.0,
      "RescaleType": "US",
      "Rows": 832,
      "SAR": 0.05309373076208,
      "SamplesPerPixel": 1,
      "ScanOptions": "FS",
      "ScanningSequence": "EP",
      "SequenceName": "epfid2d1_104",
      "SequenceVariant": [
        "SK",
        "SS"
],
      "SeriesDescription": "func_task-mariostars_run-02",
      "SeriesNumber": 15,
      "SeriesTime": "153436.509000",
      "SliceLocation": -38.353828974463,
      "SliceThickness": 2.0,
      "SmallestImagePixelValue": 0,
      "SoftwareVersions": "syngo MR E11",
      "SpacingBetweenSlices": 2.0000000483801,
      "SpecificCharacterSet": "ISO_IR 100",
      "StudyID": "1",
      "StudyTime": "142653.286000",
      "TransmitCoilName": "Body",
      "VariableFlipAngleFlag": "N",
      "WindowCenterWidthExplanation": "Algo1",
      "dBdt": 0.0},
    "slices": {}
  },
  "time": {
    "samples": {
      "AcquisitionNumber": [1, 2, 3, 4, 5, 6, 7, 8, 9, 10, 11, 12, 13, 14, 15, 16, 17, 18, 19, 20, 21, 22, 23, 24, 25, 26, 27, 28, 29, 30, 31, 32, 33, 34, 35, 36, 37, 38, 39, 40, 41, 42, 43, 44, 45, 46, 47, 48, 49, 50, 51, 52, 53, 54, 55, 56, 57, 58, 59, 60, 61, 62, 63, 64, 65, 66, 67, 68, 69, 70, 71, 72, 73, 74, 75, 76, 77, 78, 79, 80, 81, 82, 83, 84, 85, 86, 87, 88, 89, 90, 91, 92, 93, 94, 95, 96, 97, 98, 99, 100, 101, 102, 103, 104, 105, 106, 107, 108, 109, 110, 111, 112, 113, 114, 115, 116, 117, 118, 119, 120, 121, 122, 123, 124, 125, 126, 127, 128, 129, 130, 131, 132, 133, 134, 135, 136, 137, 138, 139, 140, 141, 142, 143, 144, 145, 146, 147, 148, 149, 150, 151, 152, 153, 154, 155, 156, 157, 158, 159, 160, 161, 162, 163, 164, 165, 166, 167, 168, 169, 170, 171, 172, 173, 174, 175, 176, 177, 178, 179, 180, 181, 182, 183, 184, 185, 186, 187, 188, 189, 190, 191, 192, 193, 194, 195, 196, 197, 198, 199, 200, 201, 202, 203, 204, 205, 206, 207, 208, 209, 210, 211, 212, 213, 214, 215, 216, 217, 218, 219, 220, 221, 222, 223, 224, 225, 226, 227, 228, 229, 230, 231, 232, 233, 234, 235, 236, 237, 238, 239, 240, 241, 242, 243, 244, 245, 246, 247, 248, 249, 250, 251, 252, 253, 254, 255, 256, 257, 258, 259, 260, 261, 262, 263, 264, 265, 266, 267, 268, 269, 270, 271, 272, 273, 274, 275, 276, 277, 278, 279, 280, 281, 282, 283, 284, 285, 286, 287, 288, 289, 290, 291, 292, 293, 294, 295, 296, 297, 298, 299, 300, 301, 302, 303, 304, 305, 306, 307, 308, 309, 310, 311, 312, 313, 314, 315, 316, 317, 318, 319, 320, 321, 322, 323, 324, 325, 326, 327, 328, 329, 330, 331, 332, 333, 334, 335, 336, 337, 338, 339, 340, 341, 342, 343, 344, 345, 346, 347, 348, 349, 350, 351, 352, 353, 354, 355, 356, 357, 358, 359, 360, 361, 362, 363, 364, 365, 366, 367, 368, 369, 370, 371, 372, 373, 374, 375, 376, 377, 378, 379, 380, 381, 382, 383, 384, 385, 386, 387, 388, 389, 390, 391, 392, 393, 394, 395, 396, 397, 398, 399, 400, 401, 402, 403, 404, 405, 406, 407, 408, 409, 410, 411, 412, 413, 414, 415, 416, 417, 418, 419, 420, 421, 422, 423, 424, 425, 426, 427, 428, 429, 430, 431, 432, 433, 434, 435, 436, 437, 438, 439, 440, 441, 442, 443, 444, 445, 446, 447, 448, 449, 450, 451, 452, 453, 454, 455, 456, 457, 458, 459, 460, 461, 462, 463, 464, 465, 466, 467, 468, 469, 470, 471, 472, 473, 474, 475, 476, 477, 478, 479, 480, 481, 482, 483, 484, 485, 486, 487, 488, 489, 490, 491, 492, 493, 494, 495, 496, 497, 498, 499, 500, 501, 502, 503, 504, 505, 506, 507, 508, 509, 510, 511, 512, 513, 514, 515, 516, 517, 518, 519, 520, 521, 522, 523, 524, 525, 526, 527, 528, 529, 530, 531, 532, 533, 534, 535, 536, 537, 538, 539, 540, 541, 542, 543, 544, 545, 546, 547, 548, 549, 550, 551, 552, 553, 554, 555, 556, 557, 558, 559, 560, 561, 562, 563, 564, 565, 566, 567, 568, 569, 570, 571, 572],
      "AcquisitionTime": ["153329.030000", "153330.520000", "153332.010000", "153333.500000", "153334.990000", "153336.480000", "153337.970000", "153339.460000", "153340.950000", "153342.440000", "153343.930000", "153345.420000", "153346.910000", "153348.400000", "153349.890000", "153351.380000", "153352.870000", "153354.360000", "153355.850000", "153357.340000", "153358.830000", "153400.320000", "153401.810000", "153403.300000", "153404.790000", "153406.280000", "153407.770000", "153409.260000", "153410.750000", "153412.240000", "153413.730000", "153415.220000", "153416.710000", "153418.200000", "153419.690000", "153421.180000", "153422.670000", "153424.160000", "153425.650000", "153427.140000", "153428.630000", "153430.120000", "153431.610000", "153433.100000", "153434.590000", "153436.080000", "153437.570000", "153439.060000", "153440.550000", "153442.040000", "153443.530000", "153445.020000", "153446.510000", "153448.000000", "153449.490000", "153450.980000", "153452.470000", "153453.960000", "153455.450000", "153456.940000", "153458.430000", "153459.920000", "153501.410000", "153502.900000", "153504.390000", "153505.880000", "153507.370000", "153508.860000", "153510.350000", "153511.840000", "153513.330000", "153514.820000", "153516.310000", "153517.800000", "153519.290000", "153520.780000", "153522.270000", "153523.760000", "153525.250000", "153526.740000", "153528.230000", "153529.720000", "153531.210000", "153532.700000", "153534.190000", "153535.680000", "153537.170000", "153538.660000", "153540.150000", "153541.640000", "153543.130000", "153544.620000", "153546.110000", "153547.600000", "153549.090000", "153550.580000", "153552.070000", "153553.560000", "153555.050000", "153556.540000", "153558.030000", "153559.520000", "153601.010000", "153602.500000", "153603.990000", "153605.480000", "153606.970000", "153608.460000", "153609.950000", "153611.440000", "153612.930000", "153614.420000", "153615.910000", "153617.400000", "153618.890000", "153620.380000", "153621.870000", "153623.360000", "153624.850000", "153626.340000", "153627.830000", "153629.320000", "153630.810000", "153632.300000", "153633.790000", "153635.280000", "153636.770000", "153638.260000", "153639.750000", "153641.240000", "153642.730000", "153644.220000", "153645.710000", "153647.200000", "153648.690000", "153650.180000", "153651.670000", "153653.160000", "153654.650000", "153656.140000", "153657.630000", "153659.120000", "153700.610000", "153702.100000", "153703.590000", "153705.080000", "153706.570000", "153708.060000", "153709.550000", "153711.040000", "153712.530000", "153714.020000", "153715.510000", "153717.000000", "153718.490000", "153719.980000", "153721.470000", "153722.960000", "153724.450000", "153725.940000", "153727.430000", "153728.920000", "153730.410000", "153731.900000", "153733.390000", "153734.880000", "153736.370000", "153737.860000", "153739.350000", "153740.840000", "153742.330000", "153743.820000", "153745.310000", "153746.800000", "153748.290000", "153749.780000", "153751.270000", "153752.760000", "153754.250000", "153755.740000", "153757.230000", "153758.720000", "153800.210000", "153801.700000", "153803.190000", "153804.680000", "153806.170000", "153807.660000", "153809.150000", "153810.640000", "153812.130000", "153813.620000", "153815.110000", "153816.600000", "153818.090000", "153819.580000", "153821.070000", "153822.560000", "153824.050000", "153825.540000", "153827.030000", "153828.520000", "153830.010000", "153831.500000", "153832.990000", "153834.480000", "153835.970000", "153837.460000", "153838.950000", "153840.440000", "153841.930000", "153843.420000", "153844.910000", "153846.400000", "153847.890000", "153849.380000", "153850.870000", "153852.360000", "153853.850000", "153855.340000", "153856.830000", "153858.320000", "153859.810000", "153901.300000", "153902.790000", "153904.280000", "153905.770000", "153907.260000", "153908.750000", "153910.240000", "153911.730000", "153913.220000", "153914.710000", "153916.200000", "153917.690000", "153919.180000", "153920.670000", "153922.160000", "153923.650000", "153925.140000", "153926.630000", "153928.120000", "153929.610000", "153931.100000", "153932.590000", "153934.080000", "153935.570000", "153937.060000", "153938.550000", "153940.040000", "153941.530000", "153943.020000", "153944.510000", "153946.000000", "153947.490000", "153948.980000", "153950.470000", "153951.960000", "153953.450000", "153954.940000", "153956.430000", "153957.920000", "153959.410000", "154000.900000", "154002.390000", "154003.880000", "154005.370000", "154006.860000", "154008.350000", "154009.840000", "154011.330000", "154012.820000", "154014.310000", "154015.800000", "154017.290000", "154018.780000", "154020.270000", "154021.760000", "154023.250000", "154024.740000", "154026.230000", "154027.720000", "154029.210000", "154030.700000", "154032.190000", "154033.680000", "154035.170000", "154036.660000", "154038.150000", "154039.640000", "154041.130000", "154042.620000", "154044.110000", "154045.600000", "154047.090000", "154048.580000", "154050.070000", "154051.560000", "154053.050000", "154054.540000", "154056.030000", "154057.520000", "154059.010000", "154100.500000", "154101.990000", "154103.480000", "154104.970000", "154106.460000", "154107.950000", "154109.440000", "154110.930000", "154112.420000", "154113.910000", "154115.400000", "154116.890000", "154118.380000", "154119.870000", "154121.360000", "154122.850000", "154124.340000", "154125.830000", "154127.320000", "154128.810000", "154130.300000", "154131.790000", "154133.280000", "154134.770000", "154136.260000", "154137.750000", "154139.240000", "154140.730000", "154142.220000", "154143.710000", "154145.200000", "154146.690000", "154148.180000", "154149.670000", "154151.160000", "154152.650000", "154154.140000", "154155.630000", "154157.120000", "154158.610000", "154200.100000", "154201.590000", "154203.080000", "154204.570000", "154206.060000", "154207.550000", "154209.040000", "154210.530000", "154212.020000", "154213.510000", "154215.000000", "154216.490000", "154217.980000", "154219.470000", "154220.960000", "154222.450000", "154223.940000", "154225.430000", "154226.920000", "154228.410000", "154229.900000", "154231.390000", "154232.880000", "154234.370000", "154235.860000", "154237.350000", "154238.840000", "154240.330000", "154241.820000", "154243.310000", "154244.800000", "154246.290000", "154247.780000", "154249.270000", "154250.760000", "154252.250000", "154253.740000", "154255.230000", "154256.720000", "154258.210000", "154259.700000", "154301.190000", "154302.680000", "154304.170000", "154305.660000", "154307.150000", "154308.640000", "154310.130000", "154311.620000", "154313.110000", "154314.600000", "154316.090000", "154317.580000", "154319.070000", "154320.560000", "154322.050000", "154323.540000", "154325.030000", "154326.520000", "154328.010000", "154329.500000", "154330.990000", "154332.480000", "154333.970000", "154335.460000", "154336.950000", "154338.440000", "154339.930000", "154341.420000", "154342.910000", "154344.400000", "154345.890000", "154347.380000", "154348.870000", "154350.360000", "154351.850000", "154353.340000", "154354.830000", "154356.320000", "154357.810000", "154359.300000", "154400.790000", "154402.280000", "154403.770000", "154405.260000", "154406.750000", "154408.240000", "154409.730000", "154411.220000", "154412.710000", "154414.200000", "154415.690000", "154417.180000", "154418.670000", "154420.160000", "154421.650000", "154423.140000", "154424.630000", "154426.120000", "154427.610000", "154429.100000", "154430.590000", "154432.080000", "154433.570000", "154435.060000", "154436.550000", "154438.040000", "154439.530000", "154441.020000", "154442.510000", "154444.000000", "154445.490000", "154446.980000", "154448.470000", "154449.960000", "154451.450000", "154452.940000", "154454.430000", "154455.920000", "154457.410000", "154458.900000", "154500.390000", "154501.880000", "154503.370000", "154504.860000", "154506.350000", "154507.840000", "154509.330000", "154510.820000", "154512.310000", "154513.800000", "154515.290000", "154516.780000", "154518.270000", "154519.760000", "154521.250000", "154522.740000", "154524.230000", "154525.720000", "154527.210000", "154528.700000", "154530.190000", "154531.680000", "154533.170000", "154534.660000", "154536.150000", "154537.640000", "154539.130000", "154540.620000", "154542.110000", "154543.600000", "154545.090000", "154546.580000", "154548.070000", "154549.560000", "154551.050000", "154552.540000", "154554.030000", "154555.520000", "154557.010000", "154558.500000", "154559.990000", "154601.480000", "154602.970000", "154604.460000", "154605.950000", "154607.440000", "154608.930000", "154610.420000", "154611.910000", "154613.400000", "154614.890000", "154616.380000", "154617.870000", "154619.360000", "154620.850000", "154622.340000", "154623.830000", "154625.320000", "154626.810000", "154628.300000", "154629.790000", "154631.280000", "154632.770000", "154634.260000", "154635.750000", "154637.240000", "154638.730000", "154640.220000", "154641.710000", "154643.200000", "154644.690000", "154646.180000", "154647.670000", "154649.160000", "154650.650000", "154652.140000", "154653.630000", "154655.120000", "154656.610000", "154658.100000", "154659.590000", "154701.080000", "154702.570000", "154704.060000", "154705.550000", "154707.040000", "154708.530000", "154710.020000", "154711.510000", "154713.000000", "154714.490000", "154715.980000", "154717.470000", "154718.960000", "154720.450000", "154721.940000", "154723.430000", "154724.920000", "154726.410000", "154727.900000", "154729.390000", "154730.880000", "154732.370000", "154733.860000", "154735.350000", "154736.840000", "154738.330000", "154739.820000"],
      "ContentTime": ["153436.511000", "153436.514000", "153436.516000", "153436.519000", "153436.521000", "153436.524000", "153436.526000", "153436.529000", "153436.531000", "153436.534000", "153436.536000", "153436.539000", "153436.541000", "153436.544000", "153456.491000", "153456.494000", "153456.497000", "153456.499000", "153456.502000", "153456.504000", "153456.507000", "153456.509000", "153456.512000", "153456.514000", "153456.520000", "153456.522000", "153456.525000", "153456.527000", "153456.530000", "153456.532000", "153456.535000", "153456.537000", "153456.540000", "153456.542000", "153516.492000", "153516.494000", "153516.497000", "153516.506000", "153516.508000", "153516.511000", "153516.513000", "153516.516000", "153516.518000", "153516.521000", "153516.523000", "153516.526000", "153516.529000", "153516.531000", "153516.534000", "153516.544000", "153516.547000", "153516.549000", "153516.552000", "153516.555000", "153516.557000", "153536.508000", "153536.510000", "153536.513000", "153536.516000", "153536.518000", "153536.521000", "153536.523000", "153536.526000", "153536.528000", "153536.531000", "153536.533000", "153536.536000", "153536.538000", "153536.541000", "153536.544000", "153536.546000", "153536.548000", "153536.551000", "153536.554000", "153536.556000", "153556.495000", "153556.498000", "153556.500000", "153556.503000", "153556.505000", "153556.512000", "153556.514000", "153556.517000", "153556.519000", "153556.522000", "153556.524000", "153556.527000", "153556.530000", "153556.532000", "153556.535000", "153556.537000", "153556.540000", "153556.542000", "153556.545000", "153556.547000", "153636.554000", "153636.557000", "153636.560000", "153636.562000", "153636.565000", "153636.568000", "153636.570000", "153636.573000", "153636.575000", "153636.578000", "153636.581000", "153636.583000", "153636.586000", "153636.588000", "153636.591000", "153636.593000", "153636.596000", "153636.598000", "153636.601000", "153636.603000", "153636.606000", "153636.608000", "153636.611000", "153636.613000", "153636.616000", "153636.619000", "153636.621000", "153636.624000", "153636.626000", "153636.629000", "153716.528000", "153716.530000", "153716.533000", "153716.536000", "153716.538000", "153716.541000", "153716.543000", "153716.546000", "153716.548000", "153716.551000", "153716.553000", "153716.556000", "153716.559000", "153716.561000", "153716.564000", "153716.572000", "153716.575000", "153716.584000", "153716.587000", "153716.589000", "153716.592000", "153716.594000", "153716.597000", "153716.600000", "153716.602000", "153716.605000", "153716.607000", "153756.530000", "153756.533000", "153756.536000", "153756.538000", "153756.541000", "153756.543000", "153756.546000", "153756.548000", "153756.551000", "153756.554000", "153756.556000", "153756.559000", "153756.561000", "153756.564000", "153756.566000", "153756.569000", "153756.571000", "153756.574000", "153756.577000", "153756.579000", "153756.582000", "153756.584000", "153756.587000", "153756.590000", "153756.592000", "153756.595000", "153756.597000", "153836.532000", "153836.535000", "153836.538000", "153836.540000", "153836.543000", "153836.545000", "153836.548000", "153836.551000", "153836.553000", "153836.556000", "153836.558000", "153836.561000", "153836.563000", "153836.566000", "153836.568000", "153836.571000", "153836.574000", "153836.576000", "153836.579000", "153836.582000", "153836.584000", "153836.587000", "153836.594000", "153836.596000", "153836.599000", "153836.601000", "153836.604000", "153916.523000", "153916.526000", "153916.529000", "153916.531000", "153916.534000", "153916.536000", "153916.539000", "153916.542000", "153916.544000", "153916.547000", "153916.549000", "153916.552000", "153916.554000", "153916.557000", "153916.560000", "153916.562000", "153916.565000", "153916.567000", "153916.570000", "153916.572000", "153916.575000", "153916.577000", "153916.580000", "153916.583000", "153916.585000", "153916.588000", "153956.526000", "153956.528000", "153956.531000", "153956.534000", "153956.536000", "153956.539000", "153956.541000", "153956.544000", "153956.546000", "153956.549000", "153956.552000", "153956.554000", "153956.557000", "153956.559000", "153956.562000", "153956.564000", "153956.567000", "153956.570000", "153956.572000", "153956.575000", "153956.577000", "153956.580000", "153956.582000", "153956.585000", "153956.588000", "153956.590000", "153956.593000", "154036.528000", "154036.530000", "154036.533000", "154036.536000", "154036.538000", "154036.541000", "154036.543000", "154036.546000", "154036.549000", "154036.551000", "154036.554000", "154036.556000", "154036.559000", "154036.561000", "154036.564000", "154036.566000", "154036.569000", "154036.572000", "154036.574000", "154036.577000", "154036.584000", "154036.587000", "154036.589000", "154036.592000", "154036.595000", "154036.597000", "154036.600000", "154116.524000", "154116.527000", "154116.529000", "154116.532000", "154116.535000", "154116.537000", "154116.540000", "154116.542000", "154116.545000", "154116.547000", "154116.550000", "154116.552000", "154116.555000", "154116.558000", "154116.560000", "154116.563000", "154116.565000", "154116.568000", "154116.571000", "154116.573000", "154116.576000", "154116.579000", "154116.581000", "154116.584000", "154116.586000", "154116.589000", "154116.591000", "154136.460000", "154136.462000", "154136.465000", "154136.467000", "154136.470000", "154136.473000", "154136.475000", "154136.478000", "154136.480000", "154136.483000", "154136.486000", "154136.488000", "154136.491000", "154216.531000", "154216.534000", "154216.537000", "154216.539000", "154216.542000", "154216.545000", "154216.547000", "154216.550000", "154216.552000", "154216.555000", "154216.558000", "154216.560000", "154216.563000", "154216.565000", "154216.568000", "154216.571000", "154216.573000", "154216.576000", "154216.578000", "154216.581000", "154216.584000", "154216.586000", "154216.589000", "154216.591000", "154216.594000", "154216.597000", "154216.599000", "154256.534000", "154256.537000", "154256.539000", "154256.542000", "154256.544000", "154256.547000", "154256.550000", "154256.552000", "154256.555000", "154256.557000", "154256.560000", "154256.562000", "154256.565000", "154256.567000", "154256.570000", "154256.573000", "154256.575000", "154256.578000", "154256.580000", "154256.583000", "154256.585000", "154256.588000", "154256.591000", "154256.593000", "154256.596000", "154256.598000", "154256.601000", "154336.513000", "154336.515000", "154336.518000", "154336.520000", "154336.523000", "154336.526000", "154336.528000", "154336.531000", "154336.533000", "154336.536000", "154336.538000", "154336.547000", "154336.549000", "154336.552000", "154336.554000", "154336.557000", "154336.559000", "154336.562000", "154336.565000", "154336.567000", "154336.570000", "154336.572000", "154336.575000", "154336.577000", "154336.580000", "154336.583000", "154336.585000", "154416.532000", "154416.535000", "154416.537000", "154416.540000", "154416.542000", "154416.545000", "154416.548000", "154416.550000", "154416.553000", "154416.555000", "154416.558000", "154416.561000", "154416.563000", "154416.566000", "154416.568000", "154416.571000", "154416.573000", "154416.576000", "154416.579000", "154416.581000", "154416.584000", "154416.586000", "154416.589000", "154416.591000", "154416.594000", "154416.596000", "154416.599000", "154456.519000", "154456.521000", "154456.524000", "154456.526000", "154456.529000", "154456.532000", "154456.534000", "154456.537000", "154456.539000", "154456.542000", "154456.545000", "154456.547000", "154456.550000", "154456.552000", "154456.555000", "154456.557000", "154456.560000", "154456.563000", "154456.565000", "154456.568000", "154456.571000", "154456.573000", "154456.576000", "154456.578000", "154456.581000", "154456.584000", "154456.586000", "154536.544000", "154536.547000", "154536.549000", "154536.552000", "154536.558000", "154536.560000", "154536.563000", "154536.565000", "154536.568000", "154536.571000", "154536.573000", "154536.576000", "154536.578000", "154536.581000", "154536.583000", "154536.586000", "154536.597000", "154536.600000", "154536.602000", "154536.605000", "154536.608000", "154536.610000", "154536.613000", "154536.615000", "154536.618000", "154536.621000", "154616.524000", "154616.527000", "154616.529000", "154616.532000", "154616.535000", "154616.537000", "154616.540000", "154616.543000", "154616.546000", "154616.549000", "154616.551000", "154616.554000", "154616.556000", "154616.559000", "154616.562000", "154616.564000", "154616.567000", "154616.569000", "154616.572000", "154616.574000", "154616.577000", "154616.580000", "154616.582000", "154616.585000", "154616.591000", "154616.594000", "154616.597000", "154656.534000", "154656.537000", "154656.539000", "154656.542000", "154656.544000", "154656.547000", "154656.550000", "154656.552000", "154656.555000", "154656.557000", "154656.560000", "154656.562000", "154656.565000", "154656.568000", "154656.570000", "154656.573000", "154656.575000", "154656.578000", "154656.581000", "154656.583000", "154656.586000", "154656.588000", "154656.591000", "154656.594000", "154656.596000", "154656.599000", "154656.601000", "154736.548000", "154736.551000", "154736.553000", "154736.556000", "154736.559000", "154736.561000", "154736.564000", "154736.567000", "154736.570000", "154736.572000", "154736.575000", "154736.578000", "154736.580000", "154736.583000", "154736.585000", "154736.588000", "154736.591000", "154736.593000", "154736.596000", "154736.598000", "154736.601000", "154736.604000", "154736.606000", "154736.609000", "154736.611000", "154736.614000", "154736.616000", "154742.759000", "154742.761000", "154742.764000", "154742.766000"],
