{
  "AcquisitionMatrixPE": 104,
  "AcquisitionNumber": 1,
  "AcquisitionTime": "15:20:44.765000",
  "BandwidthPerPixelPhaseEncode": 17.17,
  "BaseResolution": 104,
  "BodyPartExamined": "BRAIN",
  "CoilCombinationMethod": "Sum of Squares",
  "ConsistencyInfo": "N4_VE11C_LATEST_20160120",
  "ConversionSoftware": "dcm2niix",
  "ConversionSoftwareVersion": "v1.0.20220505",
  "DerivedVendorReportedEchoSpacing": 0.000560011,
  "DeviceSerialNumber": "167006",
  "DwellTime": 2.1e-06,
  "EchoTime": 0.037,
  "EchoTrainLength": 104,
  "EffectiveEchoSpacing": 0.000560011,
  "FlipAngle": 52,
  "HeudiconvVersion": "0.5.3.post811+g6206e14",
  "ImageComments": "Unaliased MB4/PE3/LB",
  "ImageOrientationPatientDICOM": [0.999326, -0.0366999, -0.000735476, 0.0343733, 0.94263, -0.332066],
  "ImageOrientationText": "Tra>Cor(-19.4)>Sag(-0.7)",
  "ImageType": [
    "ORIGINAL",
    "PRIMARY",
    "M",
    "MB",
    "ND",
    "MOSAIC"
],
  "ImagingFrequency": 123.259,
  "InPlanePhaseEncodingDirectionDICOM": "COL",
  "InstitutionAddress": "Chemin Queen-Mary 4565,Montreal,District,CA,H3W 1W5",
  "InstitutionName": "IUGM",
  "InstitutionalDepartmentName": "Department",
  "MRAcquisitionType": "2D",
  "MagneticFieldStrength": 3,
  "Manufacturer": "Siemens",
  "ManufacturersModelName": "Prisma_fit",
  "MatrixCoilMode": "SENSE",
  "Modality": "MR",
  "MultibandAccelerationFactor": 4,
  "PartialFourier": 1,
  "PatientPosition": "HFS",
  "PercentPhaseFOV": 100,
  "PercentSampling": 100,
  "PhaseEncodingDirection": "j",
  "PhaseEncodingSteps": 104,
  "PhaseResolution": 1,
  "PixelBandwidth": 2290,
  "ProcedureStepDescription": "games^mariostars",
  "ProtocolName": "func_task-mariostars_run-01",
  "PulseSequenceDetails": "%CustomerSeq%\\cmrr_mbep2d_bold",
  "ReceiveCoilActiveElements": "HC1-7;NC1,2",
  "ReceiveCoilName": "HeadNeck_64",
  "ReconMatrixPE": 104,
  "RepetitionTime": 1.49,
  "SAR": 0.0555803,
  "ScanOptions": "FS",
  "ScanningSequence": "EP",
  "SequenceName": "epfid2d1_104",
  "SequenceVariant": "SK\\SS",
  "SeriesDescription": "func_task-mariostars_run-01",
  "SeriesNumber": 11,
  "ShimSetting": [621, -7255, -8815, 596, 9, -219, -64, -16],
  "SliceThickness": 2,
  "SliceTiming": [0, 0.7825, 0.0975, 0.8825, 0.195, 0.98, 0.2925, 1.0775, 0.3925, 1.175, 0.49, 1.2725, 0.5875, 1.3725, 0.685, 0, 0.7825, 0.0975, 0.8825, 0.195, 0.98, 0.2925, 1.0775, 0.3925, 1.175, 0.49, 1.2725, 0.5875, 1.3725, 0.685, 0, 0.7825, 0.0975, 0.8825, 0.195, 0.98, 0.2925, 1.0775, 0.3925, 1.175, 0.49, 1.2725, 0.5875, 1.3725, 0.685, 0, 0.7825, 0.0975, 0.8825, 0.195, 0.98, 0.2925, 1.0775, 0.3925, 1.175, 0.49, 1.2725, 0.5875, 1.3725, 0.685],
  "SoftwareVersions": "syngo MR E11",
  "SpacingBetweenSlices": 2,
  "StationName": "MRC35049",
  "TaskName": "mariostars",
  "TotalReadoutTime": 0.0576811,
  "TxRefAmp": 264.332,
  "WipMemBlock": "a69c0c1c-314e-4f5c-9590-61c7c350f17c||Sequence: R016 ve11c/master r/e634e98; Dec 19 2017 11:00:25 by eja",
  "dcmmeta_affine": [
    [-1.9986521005630493, 0.06874662637710571, -0.025760086253285408, 103.80712127685547],
    [0.07339970767498016, 1.8852595090866089, -0.6636331677436829, -69.14779663085938],
    [-0.0014709524111822248, 0.6641312837600708, 1.886512041091919, -62.57364273071289],
    [0.0, 0.0, 0.0, 1.0]
],
  "dcmmeta_reorient_transform": [
    [0.0, -1.0, 0.0, 103.0],
    [1.0, 0.0, 0.0, 0.0],
    [0.0, 0.0, 1.0, 0.0],
    [0.0, 0.0, 0.0, 1.0]
],
  "dcmmeta_shape": [104, 104, 60, 462],
  "dcmmeta_slice_dim": 2,
  "dcmmeta_version": 0.6,
  "global": {
    "const": {
      "AcquisitionMatrix": [104, 0, 0, 104],
      "AngioFlag": "N",
      "BitsAllocated": 16,
      "BitsStored": 16,
      "BodyPartExamined": "BRAIN",
      "Columns": 832,
      "EchoNumbers": 1,
      "EchoTime": 37.0,
      "EchoTrainLength": 104,
      "FlipAngle": 52.0,
      "HighBit": 15,
      "ImageOrientationPatient": [0.99932606280452, -0.0366998538734, -0.0007354762309, 0.03437331387301, 0.9426297697641, -0.3320656447871],
      "ImagePositionPatient": [-863.42117287863, -784.5509145236, 248.11109466815],
      "ImageType": [
        "ORIGINAL",
        "PRIMARY",
        "M",
        "MB",
        "ND",
        "MOSAIC"
],
      "ImagedNucleus": "1H",
      "ImagingFrequency": 123.258773,
      "InPlanePhaseEncodingDirection": "COL",
      "MRAcquisitionType": "2D",
      "MagneticFieldStrength": 3.0,
      "Manufacturer": "SIEMENS",
      "ManufacturerModelName": "Prisma_fit",
      "Modality": "MR",
      "NumberOfAverages": 1.0,
      "NumberOfPhaseEncodingSteps": 104,
      "PercentPhaseFieldOfView": 100.0,
      "PercentSampling": 100.0,
      "PerformedProcedureStepStartTime": "144031.521000",
      "PhotometricInterpretation": "MONOCHROME2",
      "PixelBandwidth": 2290.0,
      "PixelRepresentation": 0,
      "PixelSpacing": [2.0, 2.0],
      "ProtocolName": "func_task-mariostars_run-01",
      "RepetitionTime": 1490.0,
      "Rows": 832,
      "SAR": 0.05558034497231,
      "SamplesPerPixel": 1,
      "ScanOptions": "FS",
      "ScanningSequence": "EP",
      "SequenceName": "epfid2d1_104",
      "SequenceVariant": [
        "SK",
        "SS"
],
      "SeriesDescription": "func_task-mariostars_run-01",
      "SeriesNumber": 11,
      "SeriesTime": "152202.682000",
      "SliceLocation": -37.415620111062,
      "SliceThickness": 2.0,
      "SmallestImagePixelValue": 0,
      "SoftwareVersions": "syngo MR E11",
      "SpacingBetweenSlices": 2.0000000493607,
      "SpecificCharacterSet": "ISO_IR 100",
      "StudyID": "1",
      "StudyTime": "144031.434000",
      "TransmitCoilName": "Body",
      "VariableFlipAngleFlag": "N",
      "WindowCenterWidthExplanation": "Algo1",
      "dBdt": 0.0},
    "slices": {}
  },
  "time": {
    "samples": {
      "AcquisitionNumber": [1, 2, 3, 4, 5, 6, 7, 8, 9, 10, 11, 12, 13, 14, 15, 16, 17, 18, 19, 20, 21, 22, 23, 24, 25, 26, 27, 28, 29, 30, 31, 32, 33, 34, 35, 36, 37, 38, 39, 40, 41, 42, 43, 44, 45, 46, 47, 48, 49, 50, 51, 52, 53, 54, 55, 56, 57, 58, 59, 60, 61, 62, 63, 64, 65, 66, 67, 68, 69, 70, 71, 72, 73, 74, 75, 76, 77, 78, 79, 80, 81, 82, 83, 84, 85, 86, 87, 88, 89, 90, 91, 92, 93, 94, 95, 96, 97, 98, 99, 100, 101, 102, 103, 104, 105, 106, 107, 108, 109, 110, 111, 112, 113, 114, 115, 116, 117, 118, 119, 120, 121, 122, 123, 124, 125, 126, 127, 128, 129, 130, 131, 132, 133, 134, 135, 136, 137, 138, 139, 140, 141, 142, 143, 144, 145, 146, 147, 148, 149, 150, 151, 152, 153, 154, 155, 156, 157, 158, 159, 160, 161, 162, 163, 164, 165, 166, 167, 168, 169, 170, 171, 172, 173, 174, 175, 176, 177, 178, 179, 180, 181, 182, 183, 184, 185, 186, 187, 188, 189, 190, 191, 192, 193, 194, 195, 196, 197, 198, 199, 200, 201, 202, 203, 204, 205, 206, 207, 208, 209, 210, 211, 212, 213, 214, 215, 216, 217, 218, 219, 220, 221, 222, 223, 224, 225, 226, 227, 228, 229, 230, 231, 232, 233, 234, 235, 236, 237, 238, 239, 240, 241, 242, 243, 244, 245, 246, 247, 248, 249, 250, 251, 252, 253, 254, 255, 256, 257, 258, 259, 260, 261, 262, 263, 264, 265, 266, 267, 268, 269, 270, 271, 272, 273, 274, 275, 276, 277, 278, 279, 280, 281, 282, 283, 284, 285, 286, 287, 288, 289, 290, 291, 292, 293, 294, 295, 296, 297, 298, 299, 300, 301, 302, 303, 304, 305, 306, 307, 308, 309, 310, 311, 312, 313, 314, 315, 316, 317, 318, 319, 320, 321, 322, 323, 324, 325, 326, 327, 328, 329, 330, 331, 332, 333, 334, 335, 336, 337, 338, 339, 340, 341, 342, 343, 344, 345, 346, 347, 348, 349, 350, 351, 352, 353, 354, 355, 356, 357, 358, 359, 360, 361, 362, 363, 364, 365, 366, 367, 368, 369, 370, 371, 372, 373, 374, 375, 376, 377, 378, 379, 380, 381, 382, 383, 384, 385, 386, 387, 388, 389, 390, 391, 392, 393, 394, 395, 396, 397, 398, 399, 400, 401, 402, 403, 404, 405, 406, 407, 408, 409, 410, 411, 412, 413, 414, 415, 416, 417, 418, 419, 420, 421, 422, 423, 424, 425, 426, 427, 428, 429, 430, 431, 432, 433, 434, 435, 436, 437, 438, 439, 440, 441, 442, 443, 444, 445, 446, 447, 448, 449, 450, 451, 452, 453, 454, 455, 456, 457, 458, 459, 460, 461, 462],
      "AcquisitionTime": ["152044.765000", "152046.255000", "152047.745000", "152049.235000", "152050.725000", "152052.215000", "152053.705000", "152055.195000", "152056.685000", "152058.175000", "152059.665000", "152101.155000", "152102.645000", "152104.135000", "152105.625000", "152107.115000", "152108.605000", "152110.095000", "152111.585000", "152113.075000", "152114.565000", "152116.055000", "152117.545000", "152119.035000", "152120.525000", "152122.015000", "152123.505000", "152124.995000", "152126.485000", "152127.975000", "152129.465000", "152130.955000", "152132.445000", "152133.935000", "152135.425000", "152136.915000", "152138.405000", "152139.895000", "152141.385000", "152142.875000", "152144.365000", "152145.855000", "152147.345000", "152148.835000", "152150.325000", "152151.815000", "152153.305000", "152154.795000", "152156.285000", "152157.775000", "152159.265000", "152200.755000", "152202.245000", "152203.735000", "152205.225000", "152206.715000", "152208.205000", "152209.695000", "152211.185000", "152212.675000", "152214.165000", "152215.655000", "152217.145000", "152218.635000", "152220.125000", "152221.615000", "152223.105000", "152224.595000", "152226.085000", "152227.575000", "152229.065000", "152230.555000", "152232.045000", "152233.535000", "152235.025000", "152236.515000", "152238.005000", "152239.495000", "152240.985000", "152242.475000", "152243.965000", "152245.455000", "152246.945000", "152248.435000", "152249.925000", "152251.415000", "152252.905000", "152254.395000", "152255.885000", "152257.375000", "152258.865000", "152300.355000", "152301.845000", "152303.335000", "152304.825000", "152306.315000", "152307.805000", "152309.295000", "152310.785000", "152312.275000", "152313.765000", "152315.255000", "152316.745000", "152318.235000", "152319.725000", "152321.215000", "152322.705000", "152324.195000", "152325.685000", "152327.175000", "152328.665000", "152330.155000", "152331.645000", "152333.135000", "152334.625000", "152336.115000", "152337.605000", "152339.095000", "152340.585000", "152342.075000", "152343.565000", "152345.055000", "152346.545000", "152348.035000", "152349.525000", "152351.015000", "152352.505000", "152353.995000", "152355.485000", "152356.975000", "152358.465000", "152359.955000", "152401.445000", "152402.935000", "152404.425000", "152405.915000", "152407.405000", "152408.895000", "152410.385000", "152411.875000", "152413.365000", "152414.855000", "152416.345000", "152417.835000", "152419.325000", "152420.815000", "152422.305000", "152423.795000", "152425.285000", "152426.775000", "152428.265000", "152429.755000", "152431.245000", "152432.735000", "152434.225000", "152435.715000", "152437.205000", "152438.695000", "152440.185000", "152441.675000", "152443.165000", "152444.655000", "152446.145000", "152447.635000", "152449.125000", "152450.615000", "152452.105000", "152453.595000", "152455.085000", "152456.575000", "152458.065000", "152459.555000", "152501.045000", "152502.535000", "152504.025000", "152505.515000", "152507.005000", "152508.495000", "152509.985000", "152511.475000", "152512.965000", "152514.455000", "152515.945000", "152517.435000", "152518.925000", "152520.415000", "152521.905000", "152523.395000", "152524.885000", "152526.375000", "152527.865000", "152529.355000", "152530.845000", "152532.335000", "152533.825000", "152535.315000", "152536.805000", "152538.295000", "152539.785000", "152541.275000", "152542.765000", "152544.255000", "152545.745000", "152547.235000", "152548.725000", "152550.215000", "152551.705000", "152553.195000", "152554.685000", "152556.175000", "152557.665000", "152559.155000", "152600.645000", "152602.135000", "152603.625000", "152605.115000", "152606.605000", "152608.095000", "152609.585000", "152611.075000", "152612.565000", "152614.055000", "152615.545000", "152617.035000", "152618.525000", "152620.015000", "152621.505000", "152622.995000", "152624.485000", "152625.975000", "152627.465000", "152628.955000", "152630.445000", "152631.935000", "152633.425000", "152634.915000", "152636.405000", "152637.895000", "152639.385000", "152640.875000", "152642.365000", "152643.855000", "152645.345000", "152646.835000", "152648.325000", "152649.815000", "152651.305000", "152652.795000", "152654.285000", "152655.775000", "152657.265000", "152658.755000", "152700.245000", "152701.735000", "152703.225000", "152704.715000", "152706.205000", "152707.695000", "152709.185000", "152710.675000", "152712.165000", "152713.655000", "152715.145000", "152716.635000", "152718.125000", "152719.615000", "152721.105000", "152722.595000", "152724.085000", "152725.575000", "152727.065000", "152728.555000", "152730.045000", "152731.535000", "152733.025000", "152734.515000", "152736.005000", "152737.495000", "152738.985000", "152740.475000", "152741.965000", "152743.455000", "152744.945000", "152746.435000", "152747.925000", "152749.415000", "152750.905000", "152752.395000", "152753.885000", "152755.375000", "152756.865000", "152758.355000", "152759.845000", "152801.335000", "152802.825000", "152804.315000", "152805.805000", "152807.295000", "152808.785000", "152810.275000", "152811.765000", "152813.255000", "152814.745000", "152816.235000", "152817.725000", "152819.215000", "152820.705000", "152822.195000", "152823.685000", "152825.175000", "152826.665000", "152828.155000", "152829.645000", "152831.135000", "152832.625000", "152834.115000", "152835.605000", "152837.095000", "152838.585000", "152840.075000", "152841.565000", "152843.055000", "152844.545000", "152846.035000", "152847.525000", "152849.015000", "152850.505000", "152851.995000", "152853.485000", "152854.975000", "152856.465000", "152857.955000", "152859.445000", "152900.935000", "152902.425000", "152903.915000", "152905.405000", "152906.895000", "152908.385000", "152909.875000", "152911.365000", "152912.855000", "152914.345000", "152915.835000", "152917.325000", "152918.815000", "152920.305000", "152921.795000", "152923.285000", "152924.775000", "152926.265000", "152927.755000", "152929.245000", "152930.735000", "152932.225000", "152933.715000", "152935.205000", "152936.695000", "152938.185000", "152939.675000", "152941.165000", "152942.655000", "152944.145000", "152945.635000", "152947.125000", "152948.615000", "152950.105000", "152951.595000", "152953.085000", "152954.575000", "152956.065000", "152957.555000", "152959.045000", "153000.535000", "153002.025000", "153003.515000", "153005.005000", "153006.495000", "153007.985000", "153009.475000", "153010.965000", "153012.455000", "153013.945000", "153015.435000", "153016.925000", "153018.415000", "153019.905000", "153021.395000", "153022.885000", "153024.375000", "153025.865000", "153027.355000", "153028.845000", "153030.335000", "153031.825000", "153033.315000", "153034.805000", "153036.295000", "153037.785000", "153039.275000", "153040.765000", "153042.255000", "153043.745000", "153045.235000", "153046.725000", "153048.215000", "153049.705000", "153051.195000", "153052.685000", "153054.175000", "153055.665000", "153057.155000", "153058.645000", "153100.135000", "153101.625000", "153103.115000", "153104.605000", "153106.095000", "153107.585000", "153109.075000", "153110.565000", "153112.055000", "153113.545000", "153115.035000", "153116.525000", "153118.015000", "153119.505000", "153120.995000", "153122.485000", "153123.975000", "153125.465000", "153126.955000", "153128.445000", "153129.935000", "153131.425000", "153132.915000", "153134.405000", "153135.895000", "153137.385000", "153138.875000", "153140.365000", "153141.855000", "153143.345000", "153144.835000", "153146.325000", "153147.815000", "153149.305000", "153150.795000", "153152.285000", "153153.775000", "153155.265000", "153156.755000", "153158.245000", "153159.735000", "153201.225000", "153202.715000", "153204.205000", "153205.695000", "153207.185000", "153208.675000", "153210.165000", "153211.655000"],
      "ContentTime": ["152202.685000", "152202.688000", "152202.692000", "152202.702000", "152202.705000", "152202.708000", "152202.712000", "152202.715000", "152202.718000", "152202.722000", "152202.725000", "152202.728000", "152202.732000", "152202.735000", "152202.738000", "152202.742000", "152202.745000", "152202.748000", "152202.752000", "152202.755000", "152202.758000", "152202.762000", "152202.765000", "152202.768000", "152222.634000", "152222.638000", "152222.641000", "152222.645000", "152222.648000", "152222.651000", "152222.655000", "152222.658000", "152222.667000", "152222.670000", "152222.674000", "152222.677000", "152222.680000", "152222.684000", "152222.687000", "152222.690000", "152222.693000", "152222.697000", "152222.700000", "152222.703000", "152242.634000", "152242.638000", "152242.648000", "152242.651000", "152242.655000", "152242.658000", "152242.661000", "152242.665000", "152242.668000", "152242.671000", "152242.674000", "152242.678000", "152242.681000", "152242.684000", "152242.687000", "152242.691000", "152242.694000", "152242.697000", "152242.701000", "152242.704000", "152302.634000", "152302.638000", "152302.641000", "152302.644000", "152302.648000", "152302.651000", "152302.654000", "152302.658000", "152302.661000", "152302.665000", "152302.669000", "152302.672000", "152302.675000", "152302.679000", "152302.682000", "152302.686000", "152302.689000", "152302.692000", "152302.695000", "152302.699000", "152322.634000", "152322.638000", "152322.641000", "152322.644000", "152322.648000", "152322.651000", "152322.654000", "152322.657000", "152322.661000", "152322.664000", "152322.667000", "152322.671000", "152322.674000", "152322.677000", "152322.681000", "152322.684000", "152322.687000", "152322.690000", "152322.694000", "152322.697000", "152322.700000", "152402.635000", "152402.639000", "152402.642000", "152402.646000", "152402.649000", "152402.652000", "152402.656000", "152402.659000", "152402.662000", "152402.665000", "152402.669000", "152402.672000", "152402.675000", "152402.679000", "152402.682000", "152402.685000", "152402.688000", "152402.692000", "152402.695000", "152402.698000", "152402.702000", "152402.705000", "152402.708000", "152402.711000", "152402.715000", "152402.718000", "152402.721000", "152442.634000", "152442.638000", "152442.641000", "152442.644000", "152442.648000", "152442.651000", "152442.655000", "152442.665000", "152442.669000", "152442.672000", "152442.675000", "152442.679000", "152442.682000", "152442.685000", "152442.689000", "152442.692000", "152442.695000", "152442.699000", "152442.702000", "152442.705000", "152442.709000", "152442.712000", "152442.715000", "152442.719000", "152442.722000", "152442.725000", "152442.729000", "152502.634000", "152502.638000", "152502.641000", "152502.645000", "152502.648000", "152502.653000", "152502.656000", "152502.660000", "152502.663000", "152502.667000", "152502.670000", "152502.673000", "152502.677000", "152542.634000", "152542.638000", "152542.641000", "152542.644000", "152542.648000", "152542.651000", "152542.654000", "152542.658000", "152542.661000", "152542.664000", "152542.668000", "152542.671000", "152542.674000", "152542.678000", "152542.681000", "152542.684000", "152542.687000", "152542.691000", "152542.694000", "152542.697000", "152542.701000", "152542.704000", "152542.707000", "152542.711000", "152542.714000", "152542.717000", "152542.720000", "152622.635000", "152622.639000", "152622.642000", "152622.646000", "152622.649000", "152622.652000", "152622.655000", "152622.659000", "152622.662000", "152622.665000", "152622.669000", "152622.672000", "152622.675000", "152622.679000", "152622.682000", "152622.685000", "152622.689000", "152622.692000", "152622.695000", "152622.699000", "152622.702000", "152622.705000", "152622.709000", "152622.712000", "152622.715000", "152622.718000", "152622.722000", "152702.649000", "152702.653000", "152702.656000", "152702.659000", "152702.663000", "152702.666000", "152702.669000", "152702.673000", "152702.676000", "152702.679000", "152702.683000", "152702.686000", "152702.689000", "152702.692000", "152702.696000", "152702.699000", "152702.702000", "152702.706000", "152702.709000", "152702.712000", "152702.722000", "152702.725000", "152702.728000", "152702.732000", "152702.735000", "152702.738000", "152702.742000", "152742.634000", "152742.638000", "152742.641000", "152742.650000", "152742.653000", "152742.657000", "152742.660000", "152742.664000", "152742.667000", "152742.670000", "152742.674000", "152742.677000", "152742.680000", "152742.684000", "152742.687000", "152742.690000", "152742.694000", "152742.697000", "152742.700000", "152742.704000", "152742.707000", "152742.710000", "152742.714000", "152742.717000", "152742.720000", "152742.723000", "152742.727000", "152822.634000", "152822.638000", "152822.641000", "152822.645000", "152822.648000", "152822.652000", "152822.655000", "152822.658000", "152822.662000", "152822.665000", "152822.668000", "152822.672000", "152822.675000", "152822.678000", "152822.681000", "152822.685000", "152822.688000", "152822.691000", "152822.695000", "152822.698000", "152822.701000", "152822.704000", "152822.708000", "152822.711000", "152822.714000", "152822.717000", "152822.721000", "152902.635000", "152902.639000", "152902.642000", "152902.645000", "152902.649000", "152902.652000", "152902.656000", "152902.659000", "152902.662000", "152902.666000", "152902.669000", "152902.673000", "152902.686000", "152902.689000", "152902.693000", "152902.696000", "152902.700000", "152902.703000", "152902.706000", "152902.710000", "152902.713000", "152902.716000", "152902.720000", "152902.723000", "152902.726000", "152902.730000", "152942.634000", "152942.638000", "152942.641000", "152942.644000", "152942.648000", "152942.651000", "152942.655000", "152942.658000", "152942.661000", "152942.665000", "152942.668000", "152942.671000", "152942.675000", "152942.678000", "152942.681000", "152942.684000", "152942.688000", "152942.691000", "152942.694000", "152942.698000", "152942.701000", "152942.704000", "152942.708000", "152942.711000", "152942.714000", "152942.717000", "152942.721000", "153022.635000", "153022.638000", "153022.641000", "153022.645000", "153022.648000", "153022.651000", "153022.655000", "153022.658000", "153022.661000", "153022.665000", "153022.668000", "153022.671000", "153022.675000", "153022.679000", "153022.683000", "153022.686000", "153022.689000", "153022.692000", "153022.696000", "153022.699000", "153022.702000", "153022.706000", "153022.709000", "153022.712000", "153022.716000", "153022.719000", "153022.722000", "153102.635000", "153102.639000", "153102.642000", "153102.646000", "153102.649000", "153102.652000", "153102.655000", "153102.659000", "153102.662000", "153102.665000", "153102.669000", "153102.672000", "153102.675000", "153102.679000", "153102.682000", "153102.685000", "153102.688000", "153102.692000", "153102.695000", "153102.698000", "153102.702000", "153102.705000", "153102.708000", "153102.711000", "153102.715000", "153102.732000", "153102.736000", "153142.634000", "153142.638000", "153142.641000", "153142.645000", "153142.648000", "153142.651000", "153142.654000", "153142.658000", "153142.661000", "153142.665000", "153142.668000", "153142.671000", "153142.675000", "153142.678000", "153142.681000", "153142.684000", "153142.688000", "153142.691000", "153142.694000", "153142.698000", "153142.701000", "153142.704000", "153142.708000", "153142.711000", "153142.714000", "153142.717000", "153142.721000", "153214.797000", "153214.800000", "153214.804000", "153214.807000", "153214.810000", "153214.814000", "153214.817000", "153214.820000", "153214.824000", "153214.827000", "153214.830000", "153214.833000", "153214.837000", "153214.840000", "153214.843000", "153214.847000", "153214.850000", "153214.853000", "153214.857000", "153214.860000", "153214.863000"],
