{
  "AcquisitionMatrixPE": 104,
  "AcquisitionNumber": 1,
  "AcquisitionTime": "15:58:52.390000",
  "BandwidthPerPixelPhaseEncode": 17.17,
  "BaseResolution": 104,
  "BodyPartExamined": "BRAIN",
  "CoilCombinationMethod": "Sum of Squares",
  "ConsistencyInfo": "N4_VE11C_LATEST_20160120",
  "ConversionSoftware": "dcm2niix",
  "ConversionSoftwareVersion": "v1.0.20220505",
  "DerivedVendorReportedEchoSpacing": 0.000560011,
  "DeviceSerialNumber": "167006",
  "DwellTime": 2.1e-06,
  "EchoTime": 0.037,
  "EchoTrainLength": 104,
  "EffectiveEchoSpacing": 0.000560011,
  "FlipAngle": 52,
  "HeudiconvVersion": "0.5.3.post811+g6206e14",
  "ImageComments": "Unaliased MB4/PE3/LB",
  "ImageOrientationPatientDICOM": [0.999326, -0.0366999, -0.000735476, 0.0343733, 0.94263, -0.332066],
  "ImageOrientationText": "Tra>Cor(-19.4)>Sag(-0.7)",
  "ImageType": [
    "ORIGINAL",
    "PRIMARY",
    "M",
    "MB",
    "ND",
    "MOSAIC"
],
  "ImagingFrequency": 123.259,
  "InPlanePhaseEncodingDirectionDICOM": "COL",
  "InstitutionAddress": "Chemin Queen-Mary 4565,Montreal,District,CA,H3W 1W5",
  "InstitutionName": "IUGM",
  "InstitutionalDepartmentName": "Department",
  "MRAcquisitionType": "2D",
  "MagneticFieldStrength": 3,
  "Manufacturer": "Siemens",
  "ManufacturersModelName": "Prisma_fit",
  "MatrixCoilMode": "SENSE",
  "Modality": "MR",
  "MultibandAccelerationFactor": 4,
  "PartialFourier": 1,
  "PatientPosition": "HFS",
  "PercentPhaseFOV": 100,
  "PercentSampling": 100,
  "PhaseEncodingDirection": "j",
  "PhaseEncodingSteps": 104,
  "PhaseResolution": 1,
  "PixelBandwidth": 2290,
  "ProcedureStepDescription": "games^mariostars",
  "ProtocolName": "func_task-mariostars_run-04",
  "PulseSequenceDetails": "%CustomerSeq%\\cmrr_mbep2d_bold",
  "ReceiveCoilActiveElements": "HC1-7;NC1,2",
  "ReceiveCoilName": "HeadNeck_64",
  "ReconMatrixPE": 104,
  "RepetitionTime": 1.49,
  "SAR": 0.0555803,
  "ScanOptions": "FS",
  "ScanningSequence": "EP",
  "SequenceName": "epfid2d1_104",
  "SequenceVariant": "SK\\SS",
  "SeriesDescription": "func_task-mariostars_run-04",
  "SeriesNumber": 20,
  "ShimSetting": [621, -7255, -8815, 596, 9, -219, -64, -16],
  "SliceThickness": 2,
  "SliceTiming": [0, 0.785, 0.1, 0.8825, 0.1975, 0.98, 0.295, 1.08, 0.3925, 1.1775, 0.49, 1.275, 0.59, 1.3725, 0.6875, 0, 0.785, 0.1, 0.8825, 0.1975, 0.98, 0.295, 1.08, 0.3925, 1.1775, 0.49, 1.275, 0.59, 1.3725, 0.6875, 0, 0.785, 0.1, 0.8825, 0.1975, 0.98, 0.295, 1.08, 0.3925, 1.1775, 0.49, 1.275, 0.59, 1.3725, 0.6875, 0, 0.785, 0.1, 0.8825, 0.1975, 0.98, 0.295, 1.08, 0.3925, 1.1775, 0.49, 1.275, 0.59, 1.3725, 0.6875],
  "SoftwareVersions": "syngo MR E11",
  "SpacingBetweenSlices": 2,
  "StationName": "MRC35049",
  "TaskName": "mariostars",
  "TotalReadoutTime": 0.0576811,
  "TxRefAmp": 264.332,
  "WipMemBlock": "580f664e-3e58-4f90-8cf4-b982f7a74801||Sequence: R016 ve11c/master r/e634e98; Dec 19 2017 11:00:25 by eja",
  "dcmmeta_affine": [
    [-1.9986521005630493, 0.06874662637710571, -0.025760086253285408, 103.80712127685547],
    [0.07339970767498016, 1.8852595090866089, -0.6636331677436829, -69.14779663085938],
    [-0.0014709524111822248, 0.6641312837600708, 1.886512041091919, -62.57364273071289],
    [0.0, 0.0, 0.0, 1.0]
],
  "dcmmeta_reorient_transform": [
    [0.0, -1.0, 0.0, 103.0],
    [1.0, 0.0, 0.0, 0.0],
    [0.0, 0.0, 1.0, 0.0],
    [0.0, 0.0, 0.0, 1.0]
],
  "dcmmeta_shape": [104, 104, 60, 464],
  "dcmmeta_slice_dim": 2,
  "dcmmeta_version": 0.6,
  "global": {
    "const": {
      "AcquisitionMatrix": [104, 0, 0, 104],
      "AngioFlag": "N",
      "BitsAllocated": 16,
      "BitsStored": 16,
      "BodyPartExamined": "BRAIN",
      "Columns": 832,
      "EchoNumbers": 1,
      "EchoTime": 37.0,
      "EchoTrainLength": 104,
      "FlipAngle": 52.0,
      "HighBit": 15,
      "ImageOrientationPatient": [0.99932606280452, -0.0366998538734, -0.0007354762309, 0.03437331387301, 0.9426297697641, -0.3320656447871],
      "ImagePositionPatient": [-863.42117287863, -784.5509145236, 248.11109466815],
      "ImageType": [
        "ORIGINAL",
        "PRIMARY",
        "M",
        "MB",
        "ND",
        "MOSAIC"
],
      "ImagedNucleus": "1H",
      "ImagingFrequency": 123.25879,
      "InPlanePhaseEncodingDirection": "COL",
      "MRAcquisitionType": "2D",
      "MagneticFieldStrength": 3.0,
      "Manufacturer": "SIEMENS",
      "ManufacturerModelName": "Prisma_fit",
      "Modality": "MR",
      "NumberOfAverages": 1.0,
      "NumberOfPhaseEncodingSteps": 104,
      "PercentPhaseFieldOfView": 100.0,
      "PercentSampling": 100.0,
      "PerformedProcedureStepStartTime": "144031.521000",
      "PhotometricInterpretation": "MONOCHROME2",
      "PixelBandwidth": 2290.0,
      "PixelRepresentation": 0,
      "PixelSpacing": [2.0, 2.0],
      "ProtocolName": "func_task-mariostars_run-04",
      "RepetitionTime": 1490.0,
      "Rows": 832,
      "SAR": 0.05558034497231,
      "SamplesPerPixel": 1,
      "ScanOptions": "FS",
      "ScanningSequence": "EP",
      "SequenceName": "epfid2d1_104",
      "SequenceVariant": [
        "SK",
        "SS"
],
      "SeriesDescription": "func_task-mariostars_run-04",
      "SeriesNumber": 20,
      "SeriesTime": "160022.674000",
      "SliceLocation": -37.415620111062,
      "SliceThickness": 2.0,
      "SmallestImagePixelValue": 0,
      "SoftwareVersions": "syngo MR E11",
      "SpacingBetweenSlices": 2.0000000493607,
      "SpecificCharacterSet": "ISO_IR 100",
      "StudyID": "1",
      "StudyTime": "144031.434000",
      "TransmitCoilName": "Body",
      "VariableFlipAngleFlag": "N",
      "WindowCenterWidthExplanation": "Algo1",
      "dBdt": 0.0},
    "slices": {}
  },
  "time": {
    "samples": {
      "AcquisitionNumber": [1, 2, 3, 4, 5, 6, 7, 8, 9, 10, 11, 12, 13, 14, 15, 16, 17, 18, 19, 20, 21, 22, 23, 24, 25, 26, 27, 28, 29, 30, 31, 32, 33, 34, 35, 36, 37, 38, 39, 40, 41, 42, 43, 44, 45, 46, 47, 48, 49, 50, 51, 52, 53, 54, 55, 56, 57, 58, 59, 60, 61, 62, 63, 64, 65, 66, 67, 68, 69, 70, 71, 72, 73, 74, 75, 76, 77, 78, 79, 80, 81, 82, 83, 84, 85, 86, 87, 88, 89, 90, 91, 92, 93, 94, 95, 96, 97, 98, 99, 100, 101, 102, 103, 104, 105, 106, 107, 108, 109, 110, 111, 112, 113, 114, 115, 116, 117, 118, 119, 120, 121, 122, 123, 124, 125, 126, 127, 128, 129, 130, 131, 132, 133, 134, 135, 136, 137, 138, 139, 140, 141, 142, 143, 144, 145, 146, 147, 148, 149, 150, 151, 152, 153, 154, 155, 156, 157, 158, 159, 160, 161, 162, 163, 164, 165, 166, 167, 168, 169, 170, 171, 172, 173, 174, 175, 176, 177, 178, 179, 180, 181, 182, 183, 184, 185, 186, 187, 188, 189, 190, 191, 192, 193, 194, 195, 196, 197, 198, 199, 200, 201, 202, 203, 204, 205, 206, 207, 208, 209, 210, 211, 212, 213, 214, 215, 216, 217, 218, 219, 220, 221, 222, 223, 224, 225, 226, 227, 228, 229, 230, 231, 232, 233, 234, 235, 236, 237, 238, 239, 240, 241, 242, 243, 244, 245, 246, 247, 248, 249, 250, 251, 252, 253, 254, 255, 256, 257, 258, 259, 260, 261, 262, 263, 264, 265, 266, 267, 268, 269, 270, 271, 272, 273, 274, 275, 276, 277, 278, 279, 280, 281, 282, 283, 284, 285, 286, 287, 288, 289, 290, 291, 292, 293, 294, 295, 296, 297, 298, 299, 300, 301, 302, 303, 304, 305, 306, 307, 308, 309, 310, 311, 312, 313, 314, 315, 316, 317, 318, 319, 320, 321, 322, 323, 324, 325, 326, 327, 328, 329, 330, 331, 332, 333, 334, 335, 336, 337, 338, 339, 340, 341, 342, 343, 344, 345, 346, 347, 348, 349, 350, 351, 352, 353, 354, 355, 356, 357, 358, 359, 360, 361, 362, 363, 364, 365, 366, 367, 368, 369, 370, 371, 372, 373, 374, 375, 376, 377, 378, 379, 380, 381, 382, 383, 384, 385, 386, 387, 388, 389, 390, 391, 392, 393, 394, 395, 396, 397, 398, 399, 400, 401, 402, 403, 404, 405, 406, 407, 408, 409, 410, 411, 412, 413, 414, 415, 416, 417, 418, 419, 420, 421, 422, 423, 424, 425, 426, 427, 428, 429, 430, 431, 432, 433, 434, 435, 436, 437, 438, 439, 440, 441, 442, 443, 444, 445, 446, 447, 448, 449, 450, 451, 452, 453, 454, 455, 456, 457, 458, 459, 460, 461, 462, 463, 464],
      "AcquisitionTime": ["155852.390000", "155853.880000", "155855.370000", "155856.860000", "155858.350000", "155859.840000", "155901.330000", "155902.820000", "155904.310000", "155905.800000", "155907.290000", "155908.780000", "155910.270000", "155911.760000", "155913.250000", "155914.740000", "155916.230000", "155917.720000", "155919.210000", "155920.700000", "155922.190000", "155923.680000", "155925.170000", "155926.660000", "155928.150000", "155929.640000", "155931.130000", "155932.620000", "155934.110000", "155935.600000", "155937.090000", "155938.580000", "155940.070000", "155941.560000", "155943.050000", "155944.540000", "155946.030000", "155947.520000", "155949.010000", "155950.500000", "155951.990000", "155953.480000", "155954.970000", "155956.460000", "155957.950000", "155959.440000", "160000.930000", "160002.420000", "160003.910000", "160005.400000", "160006.890000", "160008.380000", "160009.870000", "160011.360000", "160012.850000", "160014.340000", "160015.830000", "160017.320000", "160018.810000", "160020.300000", "160021.790000", "160023.280000", "160024.770000", "160026.260000", "160027.750000", "160029.240000", "160030.730000", "160032.220000", "160033.710000", "160035.200000", "160036.690000", "160038.180000", "160039.670000", "160041.160000", "160042.650000", "160044.140000", "160045.630000", "160047.120000", "160048.610000", "160050.100000", "160051.590000", "160053.080000", "160054.570000", "160056.060000", "160057.550000", "160059.040000", "160100.530000", "160102.020000", "160103.510000", "160105.000000", "160106.490000", "160107.980000", "160109.470000", "160110.960000", "160112.450000", "160113.940000", "160115.430000", "160116.920000", "160118.410000", "160119.900000", "160121.390000", "160122.880000", "160124.370000", "160125.860000", "160127.350000", "160128.840000", "160130.330000", "160131.820000", "160133.310000", "160134.800000", "160136.290000", "160137.780000", "160139.270000", "160140.760000", "160142.250000", "160143.740000", "160145.230000", "160146.720000", "160148.210000", "160149.700000", "160151.190000", "160152.680000", "160154.170000", "160155.660000", "160157.150000", "160158.640000", "160200.130000", "160201.620000", "160203.110000", "160204.600000", "160206.090000", "160207.580000", "160209.070000", "160210.560000", "160212.050000", "160213.540000", "160215.030000", "160216.520000", "160218.010000", "160219.500000", "160220.990000", "160222.480000", "160223.970000", "160225.460000", "160226.950000", "160228.440000", "160229.930000", "160231.420000", "160232.910000", "160234.400000", "160235.890000", "160237.380000", "160238.870000", "160240.360000", "160241.850000", "160243.340000", "160244.830000", "160246.320000", "160247.810000", "160249.300000", "160250.790000", "160252.280000", "160253.770000", "160255.260000", "160256.750000", "160258.240000", "160259.730000", "160301.220000", "160302.710000", "160304.200000", "160305.690000", "160307.180000", "160308.670000", "160310.160000", "160311.650000", "160313.140000", "160314.630000", "160316.120000", "160317.610000", "160319.100000", "160320.590000", "160322.080000", "160323.570000", "160325.060000", "160326.550000", "160328.040000", "160329.530000", "160331.020000", "160332.510000", "160334.000000", "160335.490000", "160336.980000", "160338.470000", "160339.960000", "160341.450000", "160342.940000", "160344.430000", "160345.920000", "160347.410000", "160348.900000", "160350.390000", "160351.880000", "160353.370000", "160354.860000", "160356.350000", "160357.840000", "160359.330000", "160400.820000", "160402.310000", "160403.800000", "160405.290000", "160406.780000", "160408.270000", "160409.760000", "160411.250000", "160412.740000", "160414.230000", "160415.720000", "160417.210000", "160418.700000", "160420.190000", "160421.680000", "160423.170000", "160424.660000", "160426.150000", "160427.640000", "160429.130000", "160430.620000", "160432.110000", "160433.600000", "160435.090000", "160436.580000", "160438.070000", "160439.560000", "160441.050000", "160442.540000", "160444.030000", "160445.520000", "160447.010000", "160448.500000", "160449.990000", "160451.480000", "160452.970000", "160454.460000", "160455.950000", "160457.440000", "160458.930000", "160500.420000", "160501.910000", "160503.400000", "160504.890000", "160506.380000", "160507.870000", "160509.360000", "160510.850000", "160512.340000", "160513.830000", "160515.320000", "160516.810000", "160518.300000", "160519.790000", "160521.280000", "160522.770000", "160524.260000", "160525.750000", "160527.240000", "160528.730000", "160530.220000", "160531.710000", "160533.200000", "160534.690000", "160536.180000", "160537.670000", "160539.160000", "160540.650000", "160542.140000", "160543.630000", "160545.120000", "160546.610000", "160548.100000", "160549.590000", "160551.080000", "160552.570000", "160554.060000", "160555.550000", "160557.040000", "160558.530000", "160600.020000", "160601.510000", "160603.000000", "160604.490000", "160605.980000", "160607.470000", "160608.960000", "160610.450000", "160611.940000", "160613.430000", "160614.920000", "160616.410000", "160617.900000", "160619.390000", "160620.880000", "160622.370000", "160623.860000", "160625.350000", "160626.840000", "160628.330000", "160629.820000", "160631.310000", "160632.800000", "160634.290000", "160635.780000", "160637.270000", "160638.760000", "160640.250000", "160641.740000", "160643.230000", "160644.720000", "160646.210000", "160647.700000", "160649.190000", "160650.680000", "160652.170000", "160653.660000", "160655.150000", "160656.640000", "160658.130000", "160659.620000", "160701.110000", "160702.600000", "160704.090000", "160705.580000", "160707.070000", "160708.560000", "160710.050000", "160711.540000", "160713.030000", "160714.520000", "160716.010000", "160717.500000", "160718.990000", "160720.480000", "160721.970000", "160723.460000", "160724.950000", "160726.440000", "160727.930000", "160729.420000", "160730.910000", "160732.400000", "160733.890000", "160735.380000", "160736.870000", "160738.360000", "160739.850000", "160741.340000", "160742.830000", "160744.320000", "160745.810000", "160747.300000", "160748.790000", "160750.280000", "160751.770000", "160753.260000", "160754.750000", "160756.240000", "160757.730000", "160759.220000", "160800.710000", "160802.200000", "160803.690000", "160805.180000", "160806.670000", "160808.160000", "160809.650000", "160811.140000", "160812.630000", "160814.120000", "160815.610000", "160817.100000", "160818.590000", "160820.080000", "160821.570000", "160823.060000", "160824.550000", "160826.040000", "160827.530000", "160829.020000", "160830.510000", "160832.000000", "160833.490000", "160834.980000", "160836.470000", "160837.960000", "160839.450000", "160840.940000", "160842.430000", "160843.920000", "160845.410000", "160846.900000", "160848.390000", "160849.880000", "160851.370000", "160852.860000", "160854.350000", "160855.840000", "160857.330000", "160858.820000", "160900.310000", "160901.800000", "160903.290000", "160904.780000", "160906.270000", "160907.760000", "160909.250000", "160910.740000", "160912.230000", "160913.720000", "160915.210000", "160916.700000", "160918.190000", "160919.680000", "160921.170000", "160922.660000", "160924.150000", "160925.640000", "160927.130000", "160928.620000", "160930.110000", "160931.600000", "160933.090000", "160934.580000", "160936.070000", "160937.560000", "160939.050000", "160940.540000", "160942.030000", "160943.520000", "160945.010000", "160946.500000", "160947.990000", "160949.480000", "160950.970000", "160952.460000", "160953.950000", "160955.440000", "160956.930000", "160958.420000", "160959.910000", "161001.400000", "161002.890000", "161004.380000", "161005.870000", "161007.360000", "161008.850000", "161010.340000", "161011.830000", "161013.320000", "161014.810000", "161016.300000", "161017.790000", "161019.280000", "161020.770000", "161022.260000"],
      "ContentTime": ["160022.677000", "160022.681000", "160022.684000", "160022.687000", "160022.690000", "160022.694000", "160022.697000", "160022.700000", "160022.704000", "160022.707000", "160022.710000", "160022.713000", "160022.717000", "160022.720000", "160022.723000", "160022.726000", "160022.730000", "160022.733000", "160022.736000", "160022.740000", "160022.743000", "160022.746000", "160022.749000", "160022.753000", "160022.756000", "160022.759000", "160022.762000", "160022.766000", "160022.769000", "160022.772000", "160022.776000", "160022.784000", "160022.787000", "160022.791000", "160022.794000", "160022.797000", "160022.801000", "160042.634000", "160042.638000", "160042.641000", "160042.645000", "160042.648000", "160042.651000", "160042.654000", "160042.658000", "160042.661000", "160042.664000", "160042.668000", "160042.671000", "160042.674000", "160042.677000", "160042.681000", "160042.706000", "160042.709000", "160042.712000", "160042.716000", "160042.719000", "160102.635000", "160102.639000", "160102.642000", "160102.645000", "160102.649000", "160102.652000", "160102.655000", "160102.658000", "160102.662000", "160102.665000", "160102.668000", "160102.671000", "160102.675000", "160102.678000", "160102.681000", "160102.685000", "160102.688000", "160102.691000", "160102.695000", "160102.698000", "160102.701000", "160122.635000", "160122.639000", "160122.642000", "160122.645000", "160122.649000", "160122.652000", "160122.655000", "160122.659000", "160122.662000", "160122.665000", "160122.669000", "160122.672000", "160122.675000", "160122.679000", "160122.682000", "160122.685000", "160122.689000", "160122.692000", "160122.704000", "160122.707000", "160202.634000", "160202.638000", "160202.641000", "160202.644000", "160202.648000", "160202.651000", "160202.654000", "160202.658000", "160202.661000", "160202.664000", "160202.668000", "160202.671000", "160202.674000", "160202.678000", "160202.681000", "160202.685000", "160202.688000", "160202.691000", "160202.694000", "160202.698000", "160202.701000", "160202.704000", "160202.708000", "160202.711000", "160202.714000", "160202.718000", "160202.721000", "160202.724000", "160202.728000", "160242.634000", "160242.638000", "160242.641000", "160242.645000", "160242.648000", "160242.651000", "160242.654000", "160242.658000", "160242.661000", "160242.664000", "160242.668000", "160242.671000", "160242.674000", "160242.678000", "160242.681000", "160242.684000", "160242.688000", "160242.691000", "160242.694000", "160242.698000", "160242.701000", "160242.704000", "160242.707000", "160242.711000", "160242.725000", "160242.728000", "160242.732000", "160322.635000", "160322.639000", "160322.643000", "160322.646000", "160322.650000", "160322.653000", "160322.656000", "160322.660000", "160322.663000", "160322.666000", "160322.670000", "160322.673000", "160322.676000", "160322.680000", "160322.683000", "160322.686000", "160322.690000", "160322.693000", "160322.696000", "160322.700000", "160322.703000", "160322.706000", "160322.710000", "160322.713000", "160322.716000", "160322.719000", "160322.723000", "160402.634000", "160402.638000", "160402.641000", "160402.644000", "160402.648000", "160402.651000", "160402.655000", "160402.658000", "160402.661000", "160402.664000", "160402.668000", "160402.671000", "160402.674000", "160402.678000", "160402.681000", "160402.684000", "160402.688000", "160402.691000", "160402.694000", "160402.698000", "160402.701000", "160402.704000", "160402.708000", "160402.712000", "160402.716000", "160402.719000", "160442.634000", "160442.638000", "160442.641000", "160442.645000", "160442.648000", "160442.651000", "160442.654000", "160442.658000", "160442.661000", "160442.665000", "160442.668000", "160442.671000", "160442.674000", "160442.678000", "160442.681000", "160442.685000", "160442.688000", "160442.691000", "160442.694000", "160442.698000", "160442.701000", "160442.705000", "160442.708000", "160442.711000", "160442.715000", "160442.718000", "160442.721000", "160502.634000", "160502.638000", "160502.641000", "160502.644000", "160502.648000", "160502.651000", "160502.654000", "160502.658000", "160502.661000", "160502.664000", "160502.673000", "160502.676000", "160502.680000", "160502.683000", "160542.635000", "160542.639000", "160542.642000", "160542.646000", "160542.649000", "160542.652000", "160542.656000", "160542.659000", "160542.662000", "160542.666000", "160542.669000", "160542.672000", "160542.676000", "160542.680000", "160542.684000", "160542.687000", "160542.691000", "160542.694000", "160542.698000", "160542.702000", "160542.705000", "160542.708000", "160542.712000", "160542.715000", "160542.718000", "160542.722000", "160622.634000", "160622.638000", "160622.641000", "160622.645000", "160622.648000", "160622.651000", "160622.655000", "160622.658000", "160622.661000", "160622.665000", "160622.668000", "160622.671000", "160622.675000", "160622.678000", "160622.681000", "160622.685000", "160622.688000", "160622.691000", "160622.695000", "160622.698000", "160622.701000", "160622.705000", "160622.708000", "160622.711000", "160622.714000", "160622.718000", "160622.721000", "160702.634000", "160702.638000", "160702.641000", "160702.644000", "160702.648000", "160702.651000", "160702.654000", "160702.658000", "160702.661000", "160702.664000", "160702.668000", "160702.671000", "160702.674000", "160702.678000", "160702.681000", "160702.684000", "160702.687000", "160702.691000", "160702.694000", "160702.697000", "160702.701000", "160702.704000", "160702.707000", "160702.711000", "160702.714000", "160702.717000", "160702.721000", "160742.634000", "160742.638000", "160742.641000", "160742.659000", "160742.662000", "160742.665000", "160742.669000", "160742.672000", "160742.675000", "160742.679000", "160742.682000", "160742.685000", "160742.689000", "160742.692000", "160742.695000", "160742.699000", "160742.702000", "160742.705000", "160742.708000", "160742.712000", "160742.715000", "160742.718000", "160742.722000", "160742.725000", "160742.728000", "160742.731000", "160742.735000", "160822.635000", "160822.639000", "160822.642000", "160822.646000", "160822.649000", "160822.652000", "160822.655000", "160822.659000", "160822.662000", "160822.665000", "160822.669000", "160822.672000", "160822.676000", "160822.679000", "160822.682000", "160822.686000", "160822.689000", "160822.692000", "160822.695000", "160822.699000", "160822.702000", "160822.705000", "160822.709000", "160822.712000", "160822.715000", "160822.719000", "160822.722000", "160902.634000", "160902.638000", "160902.641000", "160902.645000", "160902.648000", "160902.651000", "160902.655000", "160902.658000", "160902.661000", "160902.665000", "160902.668000", "160902.671000", "160902.675000", "160902.678000", "160902.681000", "160902.684000", "160902.688000", "160902.691000", "160902.694000", "160902.698000", "160902.701000", "160902.704000", "160902.708000", "160902.711000", "160902.714000", "160902.717000", "160902.721000", "160942.634000", "160942.638000", "160942.641000", "160942.644000", "160942.648000", "160942.651000", "160942.654000", "160942.658000", "160942.661000", "160942.665000", "160942.668000", "160942.671000", "160942.674000", "160942.678000", "160942.681000", "160942.684000", "160942.688000", "160942.691000", "160942.694000", "160942.697000", "160942.701000", "160942.704000", "160942.718000", "160942.722000", "160942.725000", "160942.728000", "160942.732000", "161022.635000", "161022.639000", "161022.642000", "161022.646000", "161022.649000", "161022.652000", "161022.657000", "161022.660000", "161022.663000", "161022.667000", "161022.670000", "161022.673000", "161022.677000", "161022.680000", "161022.683000", "161022.686000", "161022.690000", "161022.693000", "161022.696000", "161022.700000", "161022.703000", "161022.706000", "161022.710000", "161022.713000", "161022.716000", "161022.720000", "161024.600000", "161024.604000"],
