{
  "AcquisitionMatrixPE": 104,
  "AcquisitionNumber": 1,
  "AcquisitionTime": "16:26:38.757500",
  "BandwidthPerPixelPhaseEncode": 17.17,
  "BaseResolution": 104,
  "BodyPartExamined": "BRAIN",
  "CoilCombinationMethod": "Sum of Squares",
  "ConsistencyInfo": "N4_VE11C_LATEST_20160120",
  "ConversionSoftware": "dcm2niix",
  "ConversionSoftwareVersion": "v1.0.20220505",
  "DerivedVendorReportedEchoSpacing": 0.000560011,
  "DeviceSerialNumber": "167006",
  "DwellTime": 2.1e-06,
  "EchoTime": 0.037,
  "EchoTrainLength": 104,
  "EffectiveEchoSpacing": 0.000560011,
  "FlipAngle": 52,
  "HeudiconvVersion": "0.5.3.post811+g6206e14",
  "ImageComments": "Unaliased MB4/PE3/LB",
  "ImageOrientationPatientDICOM": [0.998945, 0.000734633, 0.0459167, 0.0230181, 0.857189, -0.514487],
  "ImageOrientationText": "Tra>Cor(-31.0)>Sag(2.3)",
  "ImageType": [
    "ORIGINAL",
    "PRIMARY",
    "M",
    "MB",
    "ND",
    "MOSAIC"
],
  "ImagingFrequency": 123.259,
  "InPlanePhaseEncodingDirectionDICOM": "COL",
  "InstitutionAddress": "Chemin Queen-Mary 4565,Montreal,District,CA,H3W 1W5",
  "InstitutionName": "IUGM",
  "InstitutionalDepartmentName": "Department",
  "MRAcquisitionType": "2D",
  "MagneticFieldStrength": 3,
  "Manufacturer": "Siemens",
  "ManufacturersModelName": "Prisma_fit",
  "MatrixCoilMode": "SENSE",
  "Modality": "MR",
  "MultibandAccelerationFactor": 4,
  "PartialFourier": 1,
  "PatientPosition": "HFS",
  "PercentPhaseFOV": 100,
  "PercentSampling": 100,
  "PhaseEncodingDirection": "j",
  "PhaseEncodingSteps": 104,
  "PhaseResolution": 1,
  "PixelBandwidth": 2290,
  "ProcedureStepDescription": "games^mariostars",
  "ProtocolName": "func_task-mariostars_run-02",
  "PulseSequenceDetails": "%CustomerSeq%\\cmrr_mbep2d_bold",
  "ReceiveCoilActiveElements": "HC1-7;NC1,2",
  "ReceiveCoilName": "HeadNeck_64",
  "ReconMatrixPE": 104,
  "RepetitionTime": 1.49,
  "SAR": 0.075757,
  "ScanOptions": "FS",
  "ScanningSequence": "EP",
  "SequenceName": "epfid2d1_104",
  "SequenceVariant": "SK\\SS",
  "SeriesDescription": "func_task-mariostars_run-02",
  "SeriesNumber": 14,
  "ShimSetting": [621, -7192, -8868, 269, 29, -157, -22, 23],
  "SliceThickness": 2,
  "SliceTiming": [0, 0.7825, 0.0975, 0.8825, 0.195, 0.98, 0.2925, 1.0775, 0.3925, 1.175, 0.49, 1.2725, 0.5875, 1.3725, 0.685, 0, 0.7825, 0.0975, 0.8825, 0.195, 0.98, 0.2925, 1.0775, 0.3925, 1.175, 0.49, 1.2725, 0.5875, 1.3725, 0.685, 0, 0.7825, 0.0975, 0.8825, 0.195, 0.98, 0.2925, 1.0775, 0.3925, 1.175, 0.49, 1.2725, 0.5875, 1.3725, 0.685, 0, 0.7825, 0.0975, 0.8825, 0.195, 0.98, 0.2925, 1.0775, 0.3925, 1.175, 0.49, 1.2725, 0.5875, 1.3725, 0.685],
  "SoftwareVersions": "syngo MR E11",
  "SpacingBetweenSlices": 2,
  "StationName": "MRC35049",
  "TaskName": "mariostars",
  "TotalReadoutTime": 0.0576811,
  "TxRefAmp": 305.929,
  "WipMemBlock": "8647c6b0-2675-4dda-a4ba-f8b9aea416e6||Sequence: R017 ve11c/master r/75a17815+; Jun 28 2022 16:32:11 by eja",
  "dcmmeta_affine": [
    [-1.9978899955749512, 0.04603622853755951, 0.07947447896003723, 103.39401245117188],
    [-0.0014692663680762053, 1.7143781185150146, -1.0300027132034302, -50.52874755859375],
    [0.09183337539434433, 1.0289745330810547, 1.7125356197357178, -94.49066925048828],
    [0.0, 0.0, 0.0, 1.0]
],
  "dcmmeta_reorient_transform": [
    [0.0, -1.0, 0.0, 103.0],
    [1.0, 0.0, 0.0, 0.0],
    [0.0, 0.0, 1.0, 0.0],
    [0.0, 0.0, 0.0, 1.0]
],
  "dcmmeta_shape": [104, 104, 60, 452],
  "dcmmeta_slice_dim": 2,
  "dcmmeta_version": 0.6,
  "global": {
    "const": {
      "AcquisitionMatrix": [104, 0, 0, 104],
      "AngioFlag": "N",
      "BitsAllocated": 16,
      "BitsStored": 16,
      "BodyPartExamined": "BRAIN",
      "Columns": 832,
      "EchoNumbers": 1,
      "EchoTime": 37.0,
      "EchoTrainLength": 104,
      "FlipAngle": 52.0,
      "HighBit": 15,
      "ImageOrientationPatient": [0.99894500253636, 0.00073463317998, 0.0459166878348, 0.02301811465518, 0.85718903613826, -0.5144872425261],
      "ImagePositionPatient": [-852.12489114294, -750.62062550217, 352.61306493697],
      "ImageType": [
        "ORIGINAL",
        "PRIMARY",
        "M",
        "MB",
        "ND",
        "MOSAIC"
],
      "ImagedNucleus": "1H",
      "ImagingFrequency": 123.258803,
      "InPlanePhaseEncodingDirection": "COL",
      "MRAcquisitionType": "2D",
      "MagneticFieldStrength": 3.0,
      "Manufacturer": "SIEMENS",
      "ManufacturerModelName": "Prisma_fit",
      "Modality": "MR",
      "NumberOfAverages": 1.0,
      "NumberOfPhaseEncodingSteps": 104,
      "PercentPhaseFieldOfView": 100.0,
      "PercentSampling": 100.0,
      "PerformedProcedureStepStartTime": "161149.332000",
      "PhotometricInterpretation": "MONOCHROME2",
      "PixelBandwidth": 2290.0,
      "PixelRepresentation": 0,
      "PixelSpacing": [2.0, 2.0],
      "ProtocolName": "func_task-mariostars_run-02",
      "RepetitionTime": 1490.0,
      "Rows": 832,
      "SAR": 0.07575695261402,
      "SamplesPerPixel": 1,
      "ScanOptions": "FS",
      "ScanningSequence": "EP",
      "SequenceName": "epfid2d1_104",
      "SequenceVariant": [
        "SK",
        "SS"
],
      "SeriesDescription": "func_task-mariostars_run-02",
      "SeriesNumber": 14,
      "SeriesTime": "162753.247000",
      "SliceLocation": -50.778351286741,
      "SliceThickness": 2.0,
      "SmallestImagePixelValue": 0,
      "SoftwareVersions": "syngo MR E11",
      "SpacingBetweenSlices": 1.9999999791526,
      "SpecificCharacterSet": "ISO_IR 100",
      "StudyID": "1",
      "StudyTime": "161149.246000",
      "TransmitCoilName": "Body",
      "VariableFlipAngleFlag": "N",
      "WindowCenterWidthExplanation": "Algo1",
      "dBdt": 0.0},
    "slices": {}
  },
  "time": {
    "samples": {
      "AcquisitionNumber": [1, 2, 3, 4, 5, 6, 7, 8, 9, 10, 11, 12, 13, 14, 15, 16, 17, 18, 19, 20, 21, 22, 23, 24, 25, 26, 27, 28, 29, 30, 31, 32, 33, 34, 35, 36, 37, 38, 39, 40, 41, 42, 43, 44, 45, 46, 47, 48, 49, 50, 51, 52, 53, 54, 55, 56, 57, 58, 59, 60, 61, 62, 63, 64, 65, 66, 67, 68, 69, 70, 71, 72, 73, 74, 75, 76, 77, 78, 79, 80, 81, 82, 83, 84, 85, 86, 87, 88, 89, 90, 91, 92, 93, 94, 95, 96, 97, 98, 99, 100, 101, 102, 103, 104, 105, 106, 107, 108, 109, 110, 111, 112, 113, 114, 115, 116, 117, 118, 119, 120, 121, 122, 123, 124, 125, 126, 127, 128, 129, 130, 131, 132, 133, 134, 135, 136, 137, 138, 139, 140, 141, 142, 143, 144, 145, 146, 147, 148, 149, 150, 151, 152, 153, 154, 155, 156, 157, 158, 159, 160, 161, 162, 163, 164, 165, 166, 167, 168, 169, 170, 171, 172, 173, 174, 175, 176, 177, 178, 179, 180, 181, 182, 183, 184, 185, 186, 187, 188, 189, 190, 191, 192, 193, 194, 195, 196, 197, 198, 199, 200, 201, 202, 203, 204, 205, 206, 207, 208, 209, 210, 211, 212, 213, 214, 215, 216, 217, 218, 219, 220, 221, 222, 223, 224, 225, 226, 227, 228, 229, 230, 231, 232, 233, 234, 235, 236, 237, 238, 239, 240, 241, 242, 243, 244, 245, 246, 247, 248, 249, 250, 251, 252, 253, 254, 255, 256, 257, 258, 259, 260, 261, 262, 263, 264, 265, 266, 267, 268, 269, 270, 271, 272, 273, 274, 275, 276, 277, 278, 279, 280, 281, 282, 283, 284, 285, 286, 287, 288, 289, 290, 291, 292, 293, 294, 295, 296, 297, 298, 299, 300, 301, 302, 303, 304, 305, 306, 307, 308, 309, 310, 311, 312, 313, 314, 315, 316, 317, 318, 319, 320, 321, 322, 323, 324, 325, 326, 327, 328, 329, 330, 331, 332, 333, 334, 335, 336, 337, 338, 339, 340, 341, 342, 343, 344, 345, 346, 347, 348, 349, 350, 351, 352, 353, 354, 355, 356, 357, 358, 359, 360, 361, 362, 363, 364, 365, 366, 367, 368, 369, 370, 371, 372, 373, 374, 375, 376, 377, 378, 379, 380, 381, 382, 383, 384, 385, 386, 387, 388, 389, 390, 391, 392, 393, 394, 395, 396, 397, 398, 399, 400, 401, 402, 403, 404, 405, 406, 407, 408, 409, 410, 411, 412, 413, 414, 415, 416, 417, 418, 419, 420, 421, 422, 423, 424, 425, 426, 427, 428, 429, 430, 431, 432, 433, 434, 435, 436, 437, 438, 439, 440, 441, 442, 443, 444, 445, 446, 447, 448, 449, 450, 451, 452],
      "AcquisitionTime": ["162638.757500", "162640.247500", "162641.737500", "162643.227500", "162644.717500", "162646.207500", "162647.697500", "162649.187500", "162650.677500", "162652.167500", "162653.657500", "162655.147500", "162656.637500", "162658.127500", "162659.617500", "162701.107500", "162702.597500", "162704.087500", "162705.577500", "162707.067500", "162708.557500", "162710.047500", "162711.537500", "162713.027500", "162714.517500", "162716.007500", "162717.497500", "162718.987500", "162720.477500", "162721.967500", "162723.457500", "162724.947500", "162726.437500", "162727.927500", "162729.417500", "162730.907500", "162732.397500", "162733.887500", "162735.377500", "162736.867500", "162738.357500", "162739.847500", "162741.337500", "162742.827500", "162744.317500", "162745.807500", "162747.297500", "162748.787500", "162750.277500", "162751.767500", "162753.257500", "162754.747500", "162756.237500", "162757.727500", "162759.217500", "162800.707500", "162802.197500", "162803.687500", "162805.177500", "162806.667500", "162808.157500", "162809.647500", "162811.137500", "162812.627500", "162814.117500", "162815.607500", "162817.097500", "162818.587500", "162820.077500", "162821.567500", "162823.057500", "162824.547500", "162826.037500", "162827.527500", "162829.017500", "162830.507500", "162831.997500", "162833.487500", "162834.977500", "162836.467500", "162837.957500", "162839.447500", "162840.937500", "162842.427500", "162843.917500", "162845.407500", "162846.897500", "162848.387500", "162849.877500", "162851.367500", "162852.857500", "162854.347500", "162855.837500", "162857.327500", "162858.817500", "162900.307500", "162901.797500", "162903.287500", "162904.777500", "162906.267500", "162907.757500", "162909.247500", "162910.737500", "162912.227500", "162913.717500", "162915.207500", "162916.697500", "162918.187500", "162919.677500", "162921.167500", "162922.657500", "162924.147500", "162925.637500", "162927.127500", "162928.617500", "162930.107500", "162931.597500", "162933.087500", "162934.577500", "162936.067500", "162937.557500", "162939.047500", "162940.537500", "162942.027500", "162943.517500", "162945.007500", "162946.497500", "162947.987500", "162949.477500", "162950.967500", "162952.457500", "162953.947500", "162955.437500", "162956.927500", "162958.417500", "162959.907500", "163001.397500", "163002.887500", "163004.377500", "163005.867500", "163007.357500", "163008.847500", "163010.337500", "163011.827500", "163013.317500", "163014.807500", "163016.297500", "163017.787500", "163019.277500", "163020.767500", "163022.257500", "163023.747500", "163025.237500", "163026.727500", "163028.217500", "163029.707500", "163031.197500", "163032.687500", "163034.177500", "163035.667500", "163037.157500", "163038.647500", "163040.137500", "163041.627500", "163043.117500", "163044.607500", "163046.097500", "163047.587500", "163049.077500", "163050.567500", "163052.057500", "163053.547500", "163055.037500", "163056.527500", "163058.017500", "163059.507500", "163100.997500", "163102.487500", "163103.977500", "163105.467500", "163106.957500", "163108.447500", "163109.937500", "163111.427500", "163112.917500", "163114.407500", "163115.897500", "163117.387500", "163118.877500", "163120.367500", "163121.857500", "163123.347500", "163124.837500", "163126.327500", "163127.817500", "163129.307500", "163130.797500", "163132.287500", "163133.777500", "163135.267500", "163136.757500", "163138.247500", "163139.737500", "163141.227500", "163142.717500", "163144.207500", "163145.697500", "163147.187500", "163148.677500", "163150.167500", "163151.657500", "163153.147500", "163154.637500", "163156.127500", "163157.617500", "163159.107500", "163200.597500", "163202.087500", "163203.577500", "163205.067500", "163206.557500", "163208.047500", "163209.537500", "163211.027500", "163212.517500", "163214.007500", "163215.497500", "163216.987500", "163218.477500", "163219.967500", "163221.457500", "163222.947500", "163224.437500", "163225.927500", "163227.417500", "163228.907500", "163230.397500", "163231.887500", "163233.377500", "163234.867500", "163236.357500", "163237.847500", "163239.337500", "163240.827500", "163242.317500", "163243.807500", "163245.297500", "163246.787500", "163248.277500", "163249.767500", "163251.257500", "163252.747500", "163254.237500", "163255.727500", "163257.217500", "163258.707500", "163300.197500", "163301.687500", "163303.177500", "163304.667500", "163306.157500", "163307.647500", "163309.137500", "163310.627500", "163312.117500", "163313.607500", "163315.097500", "163316.587500", "163318.077500", "163319.567500", "163321.057500", "163322.547500", "163324.037500", "163325.527500", "163327.017500", "163328.507500", "163329.997500", "163331.487500", "163332.977500", "163334.467500", "163335.957500", "163337.447500", "163338.937500", "163340.427500", "163341.917500", "163343.407500", "163344.897500", "163346.387500", "163347.877500", "163349.367500", "163350.857500", "163352.347500", "163353.837500", "163355.327500", "163356.817500", "163358.307500", "163359.797500", "163401.287500", "163402.777500", "163404.267500", "163405.757500", "163407.247500", "163408.737500", "163410.227500", "163411.717500", "163413.207500", "163414.697500", "163416.187500", "163417.677500", "163419.167500", "163420.657500", "163422.147500", "163423.637500", "163425.127500", "163426.617500", "163428.107500", "163429.597500", "163431.087500", "163432.577500", "163434.067500", "163435.557500", "163437.047500", "163438.537500", "163440.027500", "163441.517500", "163443.007500", "163444.497500", "163445.987500", "163447.477500", "163448.967500", "163450.457500", "163451.947500", "163453.437500", "163454.927500", "163456.417500", "163457.907500", "163459.397500", "163500.887500", "163502.377500", "163503.867500", "163505.357500", "163506.847500", "163508.337500", "163509.827500", "163511.317500", "163512.807500", "163514.297500", "163515.787500", "163517.277500", "163518.767500", "163520.257500", "163521.747500", "163523.237500", "163524.727500", "163526.217500", "163527.707500", "163529.197500", "163530.687500", "163532.177500", "163533.667500", "163535.157500", "163536.647500", "163538.137500", "163539.627500", "163541.117500", "163542.607500", "163544.097500", "163545.587500", "163547.077500", "163548.567500", "163550.057500", "163551.547500", "163553.037500", "163554.527500", "163556.017500", "163557.507500", "163558.997500", "163600.487500", "163601.977500", "163603.467500", "163604.957500", "163606.447500", "163607.937500", "163609.427500", "163610.917500", "163612.407500", "163613.897500", "163615.387500", "163616.877500", "163618.367500", "163619.857500", "163621.347500", "163622.837500", "163624.327500", "163625.817500", "163627.307500", "163628.797500", "163630.287500", "163631.777500", "163633.267500", "163634.757500", "163636.247500", "163637.737500", "163639.227500", "163640.717500", "163642.207500", "163643.697500", "163645.187500", "163646.677500", "163648.167500", "163649.657500", "163651.147500", "163652.637500", "163654.127500", "163655.617500", "163657.107500", "163658.597500", "163700.087500", "163701.577500", "163703.067500", "163704.557500", "163706.047500", "163707.537500", "163709.027500", "163710.517500", "163712.007500", "163713.497500", "163714.987500", "163716.477500", "163717.967500", "163719.457500", "163720.947500", "163722.437500", "163723.927500", "163725.417500", "163726.907500", "163728.397500", "163729.887500", "163731.377500", "163732.867500", "163734.357500", "163735.847500", "163737.337500", "163738.827500", "163740.317500", "163741.807500", "163743.297500", "163744.787500", "163746.277500", "163747.767500", "163749.257500", "163750.747500"],
      "ContentTime": ["162753.250000", "162753.267000", "162753.271000", "162753.274000", "162753.278000", "162753.281000", "162753.284000", "162753.288000", "162753.291000", "162753.295000", "162753.298000", "162753.301000", "162753.305000", "162753.308000", "162753.312000", "162753.315000", "162753.318000", "162753.322000", "162753.325000", "162753.328000", "162753.332000", "162753.335000", "162753.339000", "162813.215000", "162813.219000", "162813.223000", "162813.226000", "162813.229000", "162813.233000", "162813.236000", "162813.239000", "162813.243000", "162813.246000", "162813.250000", "162813.253000", "162813.256000", "162813.260000", "162813.263000", "162813.267000", "162813.270000", "162813.273000", "162813.277000", "162813.280000", "162813.284000", "162833.215000", "162833.219000", "162833.222000", "162833.226000", "162833.229000", "162833.233000", "162833.236000", "162833.239000", "162833.243000", "162833.246000", "162833.250000", "162833.253000", "162833.256000", "162833.260000", "162833.263000", "162833.266000", "162833.270000", "162833.273000", "162833.277000", "162833.280000", "162853.215000", "162853.219000", "162853.222000", "162853.226000", "162853.229000", "162853.233000", "162853.236000", "162853.239000", "162853.243000", "162853.246000", "162853.249000", "162853.253000", "162853.256000", "162853.259000", "162853.263000", "162853.274000", "162853.293000", "162853.296000", "162853.300000", "162853.303000", "162933.215000", "162933.219000", "162933.231000", "162933.234000", "162933.238000", "162933.241000", "162933.244000", "162933.248000", "162933.261000", "162933.264000", "162933.268000", "162933.271000", "162933.274000", "162933.278000", "162933.281000", "162933.284000", "162933.288000", "162933.291000", "162933.294000", "162933.298000", "162933.301000", "162933.304000", "162933.308000", "162933.311000", "162933.315000", "162933.318000", "162933.322000", "162933.325000", "162933.329000", "162933.332000", "162933.336000", "162933.339000", "163013.215000", "163013.219000", "163013.223000", "163013.226000", "163013.229000", "163013.233000", "163013.236000", "163013.240000", "163013.243000", "163013.246000", "163013.250000", "163013.253000", "163013.257000", "163013.260000", "163013.263000", "163013.267000", "163013.270000", "163013.274000", "163013.277000", "163013.280000", "163013.284000", "163013.287000", "163013.290000", "163013.294000", "163013.297000", "163013.300000", "163013.304000", "163053.215000", "163053.219000", "163053.223000", "163053.226000", "163053.230000", "163053.233000", "163053.237000", "163053.240000", "163053.243000", "163053.247000", "163053.250000", "163053.254000", "163053.257000", "163053.261000", "163053.264000", "163053.267000", "163053.271000", "163053.274000", "163053.278000", "163053.287000", "163053.291000", "163053.294000", "163053.298000", "163053.301000", "163053.304000", "163053.308000", "163053.311000", "163133.215000", "163133.344000", "163133.347000", "163133.355000", "163133.359000", "163133.362000", "163133.366000", "163133.369000", "163133.372000", "163133.376000", "163133.397000", "163133.401000", "163133.404000", "163133.407000", "163133.411000", "163133.414000", "163133.418000", "163133.421000", "163133.424000", "163133.428000", "163133.431000", "163133.435000", "163133.438000", "163133.441000", "163133.445000", "163133.448000", "163133.452000", "163213.215000", "163213.219000", "163213.223000", "163213.226000", "163213.230000", "163213.233000", "163213.237000", "163213.240000", "163213.243000", "163213.247000", "163213.251000", "163213.263000", "163213.266000", "163213.270000", "163213.273000", "163213.277000", "163213.280000", "163213.284000", "163213.287000", "163213.290000", "163213.294000", "163213.297000", "163213.301000", "163213.304000", "163213.308000", "163213.311000", "163253.215000", "163253.219000", "163253.223000", "163253.226000", "163253.230000", "163253.233000", "163253.236000", "163253.240000", "163253.243000", "163253.247000", "163253.250000", "163253.254000", "163253.257000", "163253.261000", "163253.264000", "163253.267000", "163253.280000", "163253.284000", "163253.287000", "163253.290000", "163253.294000", "163253.297000", "163253.301000", "163253.304000", "163253.308000", "163253.311000", "163253.315000", "163333.216000", "163333.220000", "163333.224000", "163333.227000", "163333.231000", "163333.234000", "163333.238000", "163333.241000", "163333.244000", "163333.248000", "163333.251000", "163333.255000", "163333.258000", "163333.262000", "163333.265000", "163333.269000", "163333.272000", "163333.276000", "163333.279000", "163333.283000", "163333.286000", "163333.290000", "163333.293000", "163333.297000", "163333.300000", "163333.303000", "163333.307000", "163413.215000", "163413.219000", "163413.223000", "163413.226000", "163413.230000", "163413.233000", "163413.245000", "163413.248000", "163413.252000", "163413.255000", "163413.258000", "163413.262000", "163413.266000", "163413.269000", "163413.272000", "163413.276000", "163413.279000", "163413.283000", "163413.286000", "163413.290000", "163413.293000", "163413.296000", "163413.300000", "163413.303000", "163413.307000", "163413.310000", "163413.314000", "163453.216000", "163453.219000", "163453.223000", "163453.226000", "163453.230000", "163453.234000", "163453.237000", "163453.241000", "163453.244000", "163453.248000", "163453.251000", "163453.255000", "163453.258000", "163453.262000", "163453.265000", "163453.269000", "163453.272000", "163453.276000", "163453.279000", "163453.283000", "163453.286000", "163453.289000", "163453.293000", "163453.296000", "163453.300000", "163453.303000", "163453.307000", "163533.215000", "163533.219000", "163533.223000", "163533.226000", "163533.230000", "163533.233000", "163533.237000", "163533.240000", "163533.243000", "163533.247000", "163533.250000", "163533.254000", "163533.257000", "163533.261000", "163533.264000", "163533.267000", "163533.271000", "163533.274000", "163533.278000", "163533.281000", "163533.290000", "163533.294000", "163533.297000", "163533.300000", "163533.304000", "163533.308000", "163533.311000", "163613.216000", "163613.220000", "163613.224000", "163613.228000", "163613.232000", "163613.236000", "163613.239000", "163613.242000", "163613.246000", "163613.258000", "163613.262000", "163613.266000", "163613.269000", "163613.272000", "163613.276000", "163613.279000", "163613.283000", "163613.286000", "163613.290000", "163613.293000", "163613.296000", "163613.300000", "163613.305000", "163613.308000", "163613.312000", "163613.315000", "163653.215000", "163653.219000", "163653.222000", "163653.226000", "163653.229000", "163653.238000", "163653.241000", "163653.245000", "163653.248000", "163653.252000", "163653.255000", "163653.258000", "163653.262000", "163653.265000", "163653.269000", "163653.272000", "163653.275000", "163653.279000", "163653.282000", "163653.286000", "163653.289000", "163653.292000", "163653.296000", "163653.299000", "163653.303000", "163653.306000", "163653.310000", "163733.215000", "163733.219000", "163733.223000", "163733.226000", "163733.229000", "163733.233000", "163733.236000", "163733.240000", "163733.243000", "163733.247000", "163733.250000", "163733.253000", "163733.257000", "163733.260000", "163733.264000", "163733.267000", "163733.270000", "163733.274000", "163733.277000", "163733.281000", "163733.290000", "163733.293000", "163733.297000", "163733.300000", "163733.304000", "163733.307000", "163733.311000", "163753.273000", "163753.277000", "163753.281000", "163753.284000", "163753.287000", "163753.291000", "163753.294000", "163753.298000", "163753.301000", "163753.305000", "163753.308000", "163753.311000", "163753.315000", "163753.318000"],
