{
  "AcquisitionMatrixPE": 104,
  "AcquisitionNumber": 1,
  "AcquisitionTime": "16:15:0.025000",
  "BandwidthPerPixelPhaseEncode": 17.17,
  "BaseResolution": 104,
  "BodyPartExamined": "BRAIN",
  "CoilCombinationMethod": "Sum of Squares",
  "ConsistencyInfo": "N4_VE11C_LATEST_20160120",
  "ConversionSoftware": "dcm2niix",
  "ConversionSoftwareVersion": "v1.0.20220505",
  "DerivedVendorReportedEchoSpacing": 0.000560011,
  "DeviceSerialNumber": "167006",
  "DwellTime": 2.1e-06,
  "EchoTime": 0.037,
  "EchoTrainLength": 104,
  "EffectiveEchoSpacing": 0.000560011,
  "FlipAngle": 52,
  "HeudiconvVersion": "0.5.3.post811+g6206e14",
  "ImageComments": "Unaliased MB4/PE3/LB",
  "ImageOrientationPatientDICOM": [0.998945, 0.000734633, 0.0459167, 0.0230181, 0.857189, -0.514487],
  "ImageOrientationText": "Tra>Cor(-31.0)>Sag(2.3)",
  "ImageType": [
    "ORIGINAL",
    "PRIMARY",
    "M",
    "MB",
    "ND",
    "MOSAIC"
],
  "ImagingFrequency": 123.259,
  "InPlanePhaseEncodingDirectionDICOM": "COL",
  "InstitutionAddress": "Chemin Queen-Mary 4565,Montreal,District,CA,H3W 1W5",
  "InstitutionName": "IUGM",
  "InstitutionalDepartmentName": "Department",
  "MRAcquisitionType": "2D",
  "MagneticFieldStrength": 3,
  "Manufacturer": "Siemens",
  "ManufacturersModelName": "Prisma_fit",
  "MatrixCoilMode": "SENSE",
  "Modality": "MR",
  "MultibandAccelerationFactor": 4,
  "PartialFourier": 1,
  "PatientPosition": "HFS",
  "PercentPhaseFOV": 100,
  "PercentSampling": 100,
  "PhaseEncodingDirection": "j",
  "PhaseEncodingSteps": 104,
  "PhaseResolution": 1,
  "PixelBandwidth": 2290,
  "ProcedureStepDescription": "games^mariostars",
  "ProtocolName": "func_task-mariostars_run-01",
  "PulseSequenceDetails": "%CustomerSeq%\\cmrr_mbep2d_bold",
  "ReceiveCoilActiveElements": "HC1-7;NC1,2",
  "ReceiveCoilName": "HeadNeck_64",
  "ReconMatrixPE": 104,
  "RepetitionTime": 1.49,
  "SAR": 0.075757,
  "ScanOptions": "FS",
  "ScanningSequence": "EP",
  "SequenceName": "epfid2d1_104",
  "SequenceVariant": "SK\\SS",
  "SeriesDescription": "func_task-mariostars_run-01",
  "SeriesNumber": 11,
  "ShimSetting": [621, -7192, -8868, 269, 29, -157, -22, 23],
  "SliceThickness": 2,
  "SliceTiming": [0, 0.785, 0.0975, 0.8825, 0.1975, 0.98, 0.295, 1.0775, 0.3925, 1.1775, 0.49, 1.275, 0.5875, 1.3725, 0.6875, 0, 0.785, 0.0975, 0.8825, 0.1975, 0.98, 0.295, 1.0775, 0.3925, 1.1775, 0.49, 1.275, 0.5875, 1.3725, 0.6875, 0, 0.785, 0.0975, 0.8825, 0.1975, 0.98, 0.295, 1.0775, 0.3925, 1.1775, 0.49, 1.275, 0.5875, 1.3725, 0.6875, 0, 0.785, 0.0975, 0.8825, 0.1975, 0.98, 0.295, 1.0775, 0.3925, 1.1775, 0.49, 1.275, 0.5875, 1.3725, 0.6875],
  "SoftwareVersions": "syngo MR E11",
  "SpacingBetweenSlices": 2,
  "StationName": "MRC35049",
  "TaskName": "mariostars",
  "TotalReadoutTime": 0.0576811,
  "TxRefAmp": 305.929,
  "WipMemBlock": "d0b196f4-ecbd-44a8-a178-90f33c3e6e45||Sequence: R017 ve11c/master r/75a17815+; Jun 28 2022 16:32:11 by eja",
  "dcmmeta_affine": [
    [-1.9978899955749512, 0.04603622853755951, 0.07947447896003723, 103.39401245117188],
    [-0.0014692663680762053, 1.7143781185150146, -1.0300027132034302, -50.52874755859375],
    [0.09183337539434433, 1.0289745330810547, 1.7125356197357178, -94.49066925048828],
    [0.0, 0.0, 0.0, 1.0]
],
  "dcmmeta_reorient_transform": [
    [0.0, -1.0, 0.0, 103.0],
    [1.0, 0.0, 0.0, 0.0],
    [0.0, 0.0, 1.0, 0.0],
    [0.0, 0.0, 0.0, 1.0]
],
  "dcmmeta_shape": [104, 104, 60, 420],
  "dcmmeta_slice_dim": 2,
  "dcmmeta_version": 0.6,
  "global": {
    "const": {
      "AcquisitionMatrix": [104, 0, 0, 104],
      "AngioFlag": "N",
      "BitsAllocated": 16,
      "BitsStored": 16,
      "BodyPartExamined": "BRAIN",
      "Columns": 832,
      "EchoNumbers": 1,
      "EchoTime": 37.0,
      "EchoTrainLength": 104,
      "FlipAngle": 52.0,
      "HighBit": 15,
      "ImageOrientationPatient": [0.99894500253636, 0.00073463317998, 0.0459166878348, 0.02301811465518, 0.85718903613826, -0.5144872425261],
      "ImagePositionPatient": [-852.12489114294, -750.62062550217, 352.61306493697],
      "ImageType": [
        "ORIGINAL",
        "PRIMARY",
        "M",
        "MB",
        "ND",
        "MOSAIC"
],
      "ImagedNucleus": "1H",
      "ImagingFrequency": 123.258791,
      "InPlanePhaseEncodingDirection": "COL",
      "MRAcquisitionType": "2D",
      "MagneticFieldStrength": 3.0,
      "Manufacturer": "SIEMENS",
      "ManufacturerModelName": "Prisma_fit",
      "Modality": "MR",
      "NumberOfAverages": 1.0,
      "NumberOfPhaseEncodingSteps": 104,
      "PercentPhaseFieldOfView": 100.0,
      "PercentSampling": 100.0,
      "PerformedProcedureStepStartTime": "161149.332000",
      "PhotometricInterpretation": "MONOCHROME2",
      "PixelBandwidth": 2290.0,
      "PixelRepresentation": 0,
      "PixelSpacing": [2.0, 2.0],
      "ProtocolName": "func_task-mariostars_run-01",
      "RepetitionTime": 1490.0,
      "Rows": 832,
      "SAR": 0.07575695261402,
      "SamplesPerPixel": 1,
      "ScanOptions": "FS",
      "ScanningSequence": "EP",
      "SequenceName": "epfid2d1_104",
      "SequenceVariant": [
        "SK",
        "SS"
],
      "SeriesDescription": "func_task-mariostars_run-01",
      "SeriesNumber": 11,
      "SeriesTime": "161608.624000",
      "SliceLocation": -50.778351286741,
      "SliceThickness": 2.0,
      "SmallestImagePixelValue": 0,
      "SoftwareVersions": "syngo MR E11",
      "SpacingBetweenSlices": 1.9999999791526,
      "SpecificCharacterSet": "ISO_IR 100",
      "StudyID": "1",
      "StudyTime": "161149.246000",
      "TransmitCoilName": "Body",
      "VariableFlipAngleFlag": "N",
      "WindowCenterWidthExplanation": "Algo1",
      "dBdt": 0.0},
    "slices": {}
  },
  "time": {
    "samples": {
      "AcquisitionNumber": [1, 2, 3, 4, 5, 6, 7, 8, 9, 10, 11, 12, 13, 14, 15, 16, 17, 18, 19, 20, 21, 22, 23, 24, 25, 26, 27, 28, 29, 30, 31, 32, 33, 34, 35, 36, 37, 38, 39, 40, 41, 42, 43, 44, 45, 46, 47, 48, 49, 50, 51, 52, 53, 54, 55, 56, 57, 58, 59, 60, 61, 62, 63, 64, 65, 66, 67, 68, 69, 70, 71, 72, 73, 74, 75, 76, 77, 78, 79, 80, 81, 82, 83, 84, 85, 86, 87, 88, 89, 90, 91, 92, 93, 94, 95, 96, 97, 98, 99, 100, 101, 102, 103, 104, 105, 106, 107, 108, 109, 110, 111, 112, 113, 114, 115, 116, 117, 118, 119, 120, 121, 122, 123, 124, 125, 126, 127, 128, 129, 130, 131, 132, 133, 134, 135, 136, 137, 138, 139, 140, 141, 142, 143, 144, 145, 146, 147, 148, 149, 150, 151, 152, 153, 154, 155, 156, 157, 158, 159, 160, 161, 162, 163, 164, 165, 166, 167, 168, 169, 170, 171, 172, 173, 174, 175, 176, 177, 178, 179, 180, 181, 182, 183, 184, 185, 186, 187, 188, 189, 190, 191, 192, 193, 194, 195, 196, 197, 198, 199, 200, 201, 202, 203, 204, 205, 206, 207, 208, 209, 210, 211, 212, 213, 214, 215, 216, 217, 218, 219, 220, 221, 222, 223, 224, 225, 226, 227, 228, 229, 230, 231, 232, 233, 234, 235, 236, 237, 238, 239, 240, 241, 242, 243, 244, 245, 246, 247, 248, 249, 250, 251, 252, 253, 254, 255, 256, 257, 258, 259, 260, 261, 262, 263, 264, 265, 266, 267, 268, 269, 270, 271, 272, 273, 274, 275, 276, 277, 278, 279, 280, 281, 282, 283, 284, 285, 286, 287, 288, 289, 290, 291, 292, 293, 294, 295, 296, 297, 298, 299, 300, 301, 302, 303, 304, 305, 306, 307, 308, 309, 310, 311, 312, 313, 314, 315, 316, 317, 318, 319, 320, 321, 322, 323, 324, 325, 326, 327, 328, 329, 330, 331, 332, 333, 334, 335, 336, 337, 338, 339, 340, 341, 342, 343, 344, 345, 346, 347, 348, 349, 350, 351, 352, 353, 354, 355, 356, 357, 358, 359, 360, 361, 362, 363, 364, 365, 366, 367, 368, 369, 370, 371, 372, 373, 374, 375, 376, 377, 378, 379, 380, 381, 382, 383, 384, 385, 386, 387, 388, 389, 390, 391, 392, 393, 394, 395, 396, 397, 398, 399, 400, 401, 402, 403, 404, 405, 406, 407, 408, 409, 410, 411, 412, 413, 414, 415, 416, 417, 418, 419, 420],
      "AcquisitionTime": ["161500.025000", "161501.515000", "161503.005000", "161504.495000", "161505.985000", "161507.475000", "161508.965000", "161510.455000", "161511.945000", "161513.435000", "161514.925000", "161516.415000", "161517.905000", "161519.395000", "161520.885000", "161522.375000", "161523.865000", "161525.355000", "161526.845000", "161528.335000", "161529.825000", "161531.315000", "161532.805000", "161534.295000", "161535.785000", "161537.275000", "161538.765000", "161540.255000", "161541.745000", "161543.235000", "161544.725000", "161546.215000", "161547.705000", "161549.195000", "161550.685000", "161552.175000", "161553.665000", "161555.155000", "161556.645000", "161558.135000", "161559.625000", "161601.115000", "161602.605000", "161604.095000", "161605.585000", "161607.075000", "161608.565000", "161610.055000", "161611.545000", "161613.035000", "161614.525000", "161616.015000", "161617.505000", "161618.995000", "161620.485000", "161621.975000", "161623.465000", "161624.955000", "161626.445000", "161627.935000", "161629.425000", "161630.915000", "161632.405000", "161633.895000", "161635.385000", "161636.875000", "161638.365000", "161639.855000", "161641.345000", "161642.835000", "161644.325000", "161645.815000", "161647.305000", "161648.795000", "161650.285000", "161651.775000", "161653.265000", "161654.755000", "161656.245000", "161657.735000", "161659.225000", "161700.715000", "161702.205000", "161703.695000", "161705.185000", "161706.675000", "161708.165000", "161709.655000", "161711.145000", "161712.635000", "161714.125000", "161715.615000", "161717.105000", "161718.595000", "161720.085000", "161721.575000", "161723.065000", "161724.555000", "161726.045000", "161727.535000", "161729.025000", "161730.515000", "161732.005000", "161733.495000", "161734.985000", "161736.475000", "161737.965000", "161739.455000", "161740.945000", "161742.435000", "161743.925000", "161745.415000", "161746.905000", "161748.395000", "161749.885000", "161751.375000", "161752.865000", "161754.355000", "161755.845000", "161757.335000", "161758.825000", "161800.315000", "161801.805000", "161803.295000", "161804.785000", "161806.275000", "161807.765000", "161809.255000", "161810.745000", "161812.235000", "161813.725000", "161815.215000", "161816.705000", "161818.195000", "161819.685000", "161821.175000", "161822.665000", "161824.155000", "161825.645000", "161827.135000", "161828.625000", "161830.115000", "161831.605000", "161833.095000", "161834.585000", "161836.075000", "161837.565000", "161839.055000", "161840.545000", "161842.035000", "161843.525000", "161845.015000", "161846.505000", "161847.995000", "161849.485000", "161850.975000", "161852.465000", "161853.955000", "161855.445000", "161856.935000", "161858.425000", "161859.915000", "161901.405000", "161902.895000", "161904.385000", "161905.875000", "161907.365000", "161908.855000", "161910.345000", "161911.835000", "161913.325000", "161914.815000", "161916.305000", "161917.795000", "161919.285000", "161920.775000", "161922.265000", "161923.755000", "161925.245000", "161926.735000", "161928.225000", "161929.715000", "161931.205000", "161932.695000", "161934.185000", "161935.675000", "161937.165000", "161938.655000", "161940.145000", "161941.635000", "161943.125000", "161944.615000", "161946.105000", "161947.595000", "161949.085000", "161950.575000", "161952.065000", "161953.555000", "161955.045000", "161956.535000", "161958.025000", "161959.515000", "162001.005000", "162002.495000", "162003.985000", "162005.475000", "162006.965000", "162008.455000", "162009.945000", "162011.435000", "162012.925000", "162014.415000", "162015.905000", "162017.395000", "162018.885000", "162020.375000", "162021.865000", "162023.355000", "162024.845000", "162026.335000", "162027.825000", "162029.315000", "162030.805000", "162032.295000", "162033.785000", "162035.275000", "162036.765000", "162038.255000", "162039.745000", "162041.235000", "162042.725000", "162044.215000", "162045.705000", "162047.195000", "162048.685000", "162050.175000", "162051.665000", "162053.155000", "162054.645000", "162056.135000", "162057.625000", "162059.115000", "162100.605000", "162102.095000", "162103.585000", "162105.075000", "162106.565000", "162108.055000", "162109.545000", "162111.035000", "162112.525000", "162114.015000", "162115.505000", "162116.995000", "162118.485000", "162119.975000", "162121.465000", "162122.955000", "162124.445000", "162125.935000", "162127.425000", "162128.915000", "162130.405000", "162131.895000", "162133.385000", "162134.875000", "162136.365000", "162137.855000", "162139.345000", "162140.835000", "162142.325000", "162143.815000", "162145.305000", "162146.795000", "162148.285000", "162149.775000", "162151.265000", "162152.755000", "162154.245000", "162155.735000", "162157.225000", "162158.715000", "162200.205000", "162201.695000", "162203.185000", "162204.675000", "162206.165000", "162207.655000", "162209.145000", "162210.635000", "162212.125000", "162213.615000", "162215.105000", "162216.595000", "162218.085000", "162219.575000", "162221.065000", "162222.555000", "162224.045000", "162225.535000", "162227.025000", "162228.515000", "162230.005000", "162231.495000", "162232.985000", "162234.475000", "162235.965000", "162237.455000", "162238.945000", "162240.435000", "162241.925000", "162243.415000", "162244.905000", "162246.395000", "162247.885000", "162249.375000", "162250.865000", "162252.355000", "162253.845000", "162255.335000", "162256.825000", "162258.315000", "162259.805000", "162301.295000", "162302.785000", "162304.275000", "162305.765000", "162307.255000", "162308.745000", "162310.235000", "162311.725000", "162313.215000", "162314.705000", "162316.195000", "162317.685000", "162319.175000", "162320.665000", "162322.155000", "162323.645000", "162325.135000", "162326.625000", "162328.115000", "162329.605000", "162331.095000", "162332.585000", "162334.075000", "162335.565000", "162337.055000", "162338.545000", "162340.035000", "162341.525000", "162343.015000", "162344.505000", "162345.995000", "162347.485000", "162348.975000", "162350.465000", "162351.955000", "162353.445000", "162354.935000", "162356.425000", "162357.915000", "162359.405000", "162400.895000", "162402.385000", "162403.875000", "162405.365000", "162406.855000", "162408.345000", "162409.835000", "162411.325000", "162412.815000", "162414.305000", "162415.795000", "162417.285000", "162418.775000", "162420.265000", "162421.755000", "162423.245000", "162424.735000", "162426.225000", "162427.715000", "162429.205000", "162430.695000", "162432.185000", "162433.675000", "162435.165000", "162436.655000", "162438.145000", "162439.635000", "162441.125000", "162442.615000", "162444.105000", "162445.595000", "162447.085000", "162448.575000", "162450.065000", "162451.555000", "162453.045000", "162454.535000", "162456.025000", "162457.515000", "162459.005000", "162500.495000", "162501.985000", "162503.475000", "162504.965000", "162506.455000", "162507.945000", "162509.435000", "162510.925000", "162512.415000", "162513.905000", "162515.395000", "162516.885000", "162518.375000", "162519.865000", "162521.355000", "162522.845000", "162524.335000"],
      "ContentTime": ["161608.627000", "161608.631000", "161608.634000", "161608.638000", "161608.641000", "161608.645000", "161608.648000", "161608.651000", "161608.655000", "161608.658000", "161608.661000", "161608.671000", "161608.675000", "161608.678000", "161608.681000", "161608.685000", "161608.688000", "161608.692000", "161608.695000", "161608.698000", "161608.702000", "161628.584000", "161628.588000", "161628.591000", "161628.595000", "161628.598000", "161628.614000", "161628.617000", "161628.621000", "161628.624000", "161628.628000", "161628.631000", "161628.634000", "161628.645000", "161628.648000", "161628.652000", "161628.655000", "161628.659000", "161628.662000", "161628.665000", "161628.676000", "161648.584000", "161648.588000", "161648.591000", "161648.595000", "161648.598000", "161648.602000", "161648.605000", "161648.608000", "161648.612000", "161648.615000", "161648.618000", "161648.622000", "161648.625000", "161648.629000", "161648.632000", "161648.635000", "161648.639000", "161648.642000", "161648.646000", "161648.649000", "161708.584000", "161708.588000", "161708.591000", "161708.595000", "161708.598000", "161708.602000", "161708.606000", "161708.609000", "161708.613000", "161708.616000", "161708.620000", "161708.623000", "161708.627000", "161708.630000", "161708.634000", "161708.637000", "161708.640000", "161708.644000", "161708.647000", "161708.651000", "161748.584000", "161748.588000", "161748.591000", "161748.595000", "161748.598000", "161748.602000", "161748.605000", "161748.609000", "161748.616000", "161748.619000", "161748.623000", "161748.626000", "161748.630000", "161748.633000", "161748.636000", "161748.640000", "161748.644000", "161748.647000", "161748.650000", "161748.654000", "161748.666000", "161748.669000", "161748.679000", "161748.683000", "161748.686000", "161748.690000", "161748.693000", "161748.697000", "161748.700000", "161748.704000", "161748.707000", "161828.585000", "161828.588000", "161828.592000", "161828.595000", "161828.599000", "161828.602000", "161828.606000", "161828.609000", "161828.613000", "161828.616000", "161828.619000", "161828.623000", "161828.626000", "161828.630000", "161828.633000", "161828.637000", "161828.640000", "161828.644000", "161828.647000", "161828.651000", "161828.654000", "161828.657000", "161828.661000", "161828.673000", "161828.676000", "161828.680000", "161828.683000", "161908.584000", "161908.588000", "161908.592000", "161908.596000", "161908.599000", "161908.602000", "161908.606000", "161908.609000", "161908.613000", "161908.616000", "161908.620000", "161908.623000", "161908.627000", "161908.630000", "161908.633000", "161908.637000", "161908.641000", "161908.644000", "161908.647000", "161908.651000", "161908.654000", "161908.658000", "161908.661000", "161908.665000", "161908.668000", "161908.672000", "161908.675000", "161948.583000", "161948.587000", "161948.591000", "161948.594000", "161948.598000", "161948.601000", "161948.604000", "161948.608000", "161948.611000", "161948.615000", "161948.618000", "161948.622000", "161948.625000", "161948.628000", "161948.632000", "161948.635000", "161948.639000", "161948.642000", "161948.646000", "161948.649000", "161948.652000", "161948.664000", "161948.668000", "161948.671000", "161948.675000", "161948.678000", "161948.682000", "162028.584000", "162028.588000", "162028.591000", "162028.595000", "162028.606000", "162028.610000", "162028.613000", "162028.617000", "162028.620000", "162028.624000", "162028.627000", "162028.631000", "162028.634000", "162028.638000", "162028.641000", "162028.645000", "162028.648000", "162028.652000", "162028.655000", "162028.659000", "162028.662000", "162028.665000", "162028.669000", "162028.672000", "162028.676000", "162028.679000", "162028.683000", "162108.584000", "162108.588000", "162108.592000", "162108.606000", "162108.610000", "162108.613000", "162108.628000", "162108.631000", "162108.635000", "162108.638000", "162108.641000", "162108.645000", "162108.648000", "162108.652000", "162108.655000", "162108.658000", "162108.662000", "162108.665000", "162108.669000", "162108.672000", "162108.676000", "162108.679000", "162108.683000", "162108.686000", "162108.690000", "162108.693000", "162108.697000", "162148.584000", "162148.588000", "162148.592000", "162148.595000", "162148.599000", "162148.602000", "162148.606000", "162148.609000", "162148.613000", "162148.616000", "162148.619000", "162148.623000", "162148.626000", "162148.630000", "162148.633000", "162148.637000", "162148.640000", "162148.643000", "162148.647000", "162148.660000", "162148.664000", "162148.667000", "162148.670000", "162148.674000", "162148.677000", "162148.681000", "162228.584000", "162228.588000", "162228.591000", "162228.595000", "162228.598000", "162228.602000", "162228.605000", "162228.609000", "162228.612000", "162228.616000", "162228.619000", "162228.622000", "162228.626000", "162228.637000", "162228.640000", "162228.643000", "162228.647000", "162228.650000", "162228.653000", "162228.657000", "162228.660000", "162228.664000", "162228.667000", "162228.671000", "162228.674000", "162228.678000", "162228.681000", "162308.584000", "162308.588000", "162308.591000", "162308.595000", "162308.598000", "162308.602000", "162308.605000", "162308.609000", "162308.612000", "162308.616000", "162308.619000", "162308.622000", "162308.626000", "162308.629000", "162308.633000", "162308.636000", "162308.640000", "162308.643000", "162308.647000", "162308.650000", "162308.653000", "162308.657000", "162308.675000", "162308.679000", "162308.682000", "162308.685000", "162308.689000", "162348.585000", "162348.588000", "162348.592000", "162348.595000", "162348.599000", "162348.602000", "162348.606000", "162348.609000", "162348.612000", "162348.616000", "162348.619000", "162348.623000", "162348.626000", "162348.630000", "162348.633000", "162348.636000", "162348.640000", "162348.643000", "162348.647000", "162348.650000", "162348.654000", "162348.657000", "162348.661000", "162348.664000", "162348.667000", "162348.671000", "162348.674000", "162428.584000", "162428.587000", "162428.591000", "162428.594000", "162428.598000", "162428.601000", "162428.605000", "162428.608000", "162428.611000", "162428.615000", "162428.618000", "162428.622000", "162428.625000", "162428.629000", "162428.632000", "162428.636000", "162428.639000", "162428.643000", "162428.651000", "162428.654000", "162428.657000", "162428.661000", "162428.664000", "162428.668000", "162428.671000", "162428.675000", "162428.678000", "162508.584000", "162508.588000", "162508.592000", "162508.595000", "162508.598000", "162508.602000", "162508.605000", "162508.609000", "162508.612000", "162508.627000", "162508.630000", "162508.634000", "162508.637000", "162508.641000", "162508.644000", "162508.648000", "162508.651000", "162508.654000", "162508.658000", "162508.661000", "162508.665000", "162508.668000", "162508.672000", "162508.675000", "162508.678000", "162508.682000", "162508.685000", "162526.269000", "162526.273000", "162526.276000", "162526.280000", "162526.284000", "162526.303000", "162526.307000", "162526.310000", "162526.314000", "162526.317000", "162526.320000", "162526.324000"],
      "InstanceCreationTime": ["161608.627000", "161608.631000", "161608.634000", "161608.638000", "161608.641000", "161608.645000", "161608.648000", "161608.651000", "161608.655000", "161608.658000", "161608.661000", "161608.671000", "161608.675000", "161608.678000", "161608.681000", "161608.685000", "161608.688000", "161608.692000", "161608.695000", "161608.698000", "161608.702000", "161628.584000", "161628.588000", "161628.591000", "161628.595000", "161628.598000", "161628.614000", "161628.617000", "161628.621000", "161628.624000", "161628.628000", "161628.631000", "161628.634000", "161628.645000", "161628.648000", "161628.652000", "161628.655000", "161628.659000", "161628.662000", "161628.665000", "161628.676000", "161648.584000", "161648.588000", "161648.591000", "161648.595000", "161648.598000", "161648.602000", "161648.605000", "161648.608000", "161648.612000", "161648.615000", "161648.618000", "161648.622000", "161648.625000", "161648.629000", "161648.632000", "161648.635000", "161648.639000", "161648.642000", "161648.646000", "161648.649000", "161708.584000", "161708.588000", "161708.591000", "161708.595000", "161708.598000", "161708.602000", "161708.606000", "161708.609000", "161708.613000", "161708.616000", "161708.620000", "161708.623000", "161708.627000", "161708.630000", "161708.634000", "161708.637000", "161708.640000", "161708.644000", "161708.647000", "161708.651000", "161748.584000", "161748.588000", "161748.591000", "161748.595000", "161748.598000", "161748.602000", "161748.605000", "161748.609000", "161748.616000", "161748.619000", "161748.623000", "161748.626000", "161748.630000", "161748.633000", "161748.636000", "161748.640000", "161748.644000", "161748.647000", "161748.650000", "161748.654000", "161748.666000", "161748.669000", "161748.679000", "161748.683000", "161748.686000", "161748.690000", "161748.693000", "161748.697000", "161748.700000", "161748.704000", "161748.707000", "161828.585000", "161828.588000", "161828.592000", "161828.595000", "161828.599000", "161828.602000", "161828.606000", "161828.609000", "161828.613000", "161828.616000", "161828.619000", "161828.623000", "161828.626000", "161828.630000", "161828.633000", "161828.637000", "161828.640000", "161828.644000", "161828.647000", "161828.651000", "161828.654000", "161828.657000", "161828.661000", "161828.673000", "161828.676000", "161828.680000", "161828.683000", "161908.584000", "161908.588000", "161908.592000", "161908.596000", "161908.599000", "161908.602000", "161908.606000", "161908.609000", "161908.613000", "161908.616000", "161908.620000", "161908.623000", "161908.627000", "161908.630000", "161908.633000", "161908.637000", "161908.641000", "161908.644000", "161908.647000", "161908.651000", "161908.654000", "161908.658000", "161908.661000", "161908.665000", "161908.668000", "161908.672000", "161908.675000", "161948.583000", "161948.587000", "161948.591000", "161948.594000", "161948.598000", "161948.601000", "161948.604000", "161948.608000", "161948.611000", "161948.615000", "161948.618000", "161948.622000", "161948.625000", "161948.628000", "161948.632000", "161948.635000", "161948.639000", "161948.642000", "161948.646000", "161948.649000", "161948.652000", "161948.664000", "161948.668000", "161948.671000", "161948.675000", "161948.678000", "161948.682000", "162028.584000", "162028.588000", "162028.591000", "162028.595000", "162028.606000", "162028.610000", "162028.613000", "162028.617000", "162028.620000", "162028.624000", "162028.627000", "162028.631000", "162028.634000", "162028.638000", "162028.641000", "162028.645000", "162028.648000", "162028.652000", "162028.655000", "162028.659000", "162028.662000", "162028.665000", "162028.669000", "162028.672000", "162028.676000", "162028.679000", "162028.683000", "162108.584000", "162108.588000", "162108.592000", "162108.606000", "162108.610000", "162108.613000", "162108.628000", "162108.631000", "162108.635000", "162108.638000", "162108.641000", "162108.645000", "162108.648000", "162108.652000", "162108.655000", "162108.658000", "162108.662000", "162108.665000", "162108.669000", "162108.672000", "162108.676000", "162108.679000", "162108.683000", "162108.686000", "162108.690000", "162108.693000", "162108.697000", "162148.584000", "162148.588000", "162148.592000", "162148.595000", "162148.599000", "162148.602000", "162148.606000", "162148.609000", "162148.613000", "162148.616000", "162148.619000", "162148.623000", "162148.626000", "162148.630000", "162148.633000", "162148.637000", "162148.640000", "162148.643000", "162148.647000", "162148.660000", "162148.664000", "162148.667000", "162148.670000", "162148.674000", "162148.677000", "162148.681000", "162228.584000", "162228.588000", "162228.591000", "162228.595000", "162228.598000", "162228.602000", "162228.605000", "162228.609000", "162228.612000", "162228.616000", "162228.619000", "162228.622000", "162228.626000", "162228.637000", "162228.640000", "162228.643000", "162228.647000", "162228.650000", "162228.653000", "162228.657000", "162228.660000", "162228.664000", "162228.667000", "162228.671000", "162228.674000", "162228.678000", "162228.681000", "162308.584000", "162308.588000", "162308.591000", "162308.595000", "162308.598000", "162308.602000", "162308.605000", "162308.609000", "162308.612000", "162308.616000", "162308.619000", "162308.622000", "162308.626000", "162308.629000", "162308.633000", "162308.636000", "162308.640000", "162308.643000", "162308.647000", "162308.650000", "162308.653000", "162308.657000", "162308.675000", "162308.679000", "162308.682000", "162308.685000", "162308.689000", "162348.585000", "162348.588000", "162348.592000", "162348.595000", "162348.599000", "162348.602000", "162348.606000", "162348.609000", "162348.612000", "162348.616000", "162348.619000", "162348.623000", "162348.626000", "162348.630000", "162348.633000", "162348.636000", "162348.640000", "162348.643000", "162348.647000", "162348.650000", "162348.654000", "162348.657000", "162348.661000", "162348.664000", "162348.667000", "162348.671000", "162348.674000", "162428.584000", "162428.587000", "162428.591000", "162428.594000", "162428.598000", "162428.601000", "162428.605000", "162428.608000", "162428.611000", "162428.615000", "162428.618000", "162428.622000", "162428.625000", "162428.629000", "162428.632000", "162428.636000", "162428.639000", "162428.643000", "162428.651000", "162428.654000", "162428.657000", "162428.661000", "162428.664000", "162428.668000", "162428.671000", "162428.675000", "162428.678000", "162508.584000", "162508.588000", "162508.592000", "162508.595000", "162508.598000", "162508.602000", "162508.605000", "162508.609000", "162508.612000", "162508.627000", "162508.630000", "162508.634000", "162508.637000", "162508.641000", "162508.644000", "162508.648000", "162508.651000", "162508.654000", "162508.658000", "162508.661000", "162508.665000", "162508.668000", "162508.672000", "162508.675000", "162508.678000", "162508.682000", "162508.685000", "162526.269000", "162526.273000", "162526.276000", "162526.280000", "162526.284000", "162526.303000", "162526.307000", "162526.310000", "162526.314000", "162526.317000", "162526.320000", "162526.324000"],
