{
  "AcquisitionMatrixPE": 104,
  "AcquisitionNumber": 1,
  "AcquisitionTime": "16:39:14.747500",
  "BandwidthPerPixelPhaseEncode": 17.17,
  "BaseResolution": 104,
  "BodyPartExamined": "BRAIN",
  "CoilCombinationMethod": "Sum of Squares",
  "ConsistencyInfo": "N4_VE11C_LATEST_20160120",
  "ConversionSoftware": "dcm2niix",
  "ConversionSoftwareVersion": "v1.0.20220505",
  "DerivedVendorReportedEchoSpacing": 0.000560011,
  "DeviceSerialNumber": "167006",
  "DwellTime": 2.1e-06,
  "EchoTime": 0.037,
  "EchoTime1": 0.037,
  "EchoTime2": 0.001,
  "EchoTrainLength": 104,
  "EffectiveEchoSpacing": 0.000560011,
  "FlipAngle": 52,
  "HeudiconvVersion": "0.5.3.post811+g6206e14",
  "ImageComments": "Unaliased MB4/PE3/LB",
  "ImageOrientationPatientDICOM": [0.998945, 0.000734633, 0.0459167, 0.0230181, 0.857189, -0.514487],
  "ImageOrientationText": "Tra>Cor(-31.0)>Sag(2.3)",
  "ImageType": [
    "ORIGINAL",
    "PRIMARY",
    "P",
    "MB",
    "ND",
    "MOSAIC",
    "PHASE"
],
  "ImagingFrequency": 123.259,
  "InPlanePhaseEncodingDirectionDICOM": "COL",
  "InstitutionAddress": "Chemin Queen-Mary 4565,Montreal,District,CA,H3W 1W5",
  "InstitutionName": "IUGM",
  "InstitutionalDepartmentName": "Department",
  "MRAcquisitionType": "2D",
  "MagneticFieldStrength": 3,
  "Manufacturer": "Siemens",
  "ManufacturersModelName": "Prisma_fit",
  "MatrixCoilMode": "SENSE",
  "Modality": "MR",
  "MultibandAccelerationFactor": 4,
  "PartialFourier": 1,
  "PatientPosition": "HFS",
  "PercentPhaseFOV": 100,
  "PercentSampling": 100,
  "PhaseEncodingDirection": "j",
  "PhaseEncodingSteps": 104,
  "PhaseResolution": 1,
  "PixelBandwidth": 2290,
  "ProcedureStepDescription": "games^mariostars",
  "ProtocolName": "func_task-mariostars_run-03",
  "PulseSequenceDetails": "%CustomerSeq%\\cmrr_mbep2d_bold",
  "ReceiveCoilActiveElements": "HC1-7;NC1,2",
  "ReceiveCoilName": "HeadNeck_64",
  "ReconMatrixPE": 104,
  "RepetitionTime": 1.49,
  "SAR": 0.075757,
  "ScanOptions": "FS",
  "ScanningSequence": "EP",
  "SequenceName": "epfid2d1_104",
  "SequenceVariant": "SK\\SS",
  "SeriesDescription": "func_task-mariostars_run-03",
  "SeriesNumber": 18,
  "ShimSetting": [621, -7192, -8868, 269, 29, -157, -22, 23],
  "SliceThickness": 2,
  "SliceTiming": [0, 0.785, 0.1, 0.8825, 0.1975, 0.98, 0.295, 1.08, 0.3925, 1.1775, 0.49, 1.275, 0.59, 1.3725, 0.6875, 0, 0.785, 0.1, 0.8825, 0.1975, 0.98, 0.295, 1.08, 0.3925, 1.1775, 0.49, 1.275, 0.59, 1.3725, 0.6875, 0, 0.785, 0.1, 0.8825, 0.1975, 0.98, 0.295, 1.08, 0.3925, 1.1775, 0.49, 1.275, 0.59, 1.3725, 0.6875, 0, 0.785, 0.1, 0.8825, 0.1975, 0.98, 0.295, 1.08, 0.3925, 1.1775, 0.49, 1.275, 0.59, 1.3725, 0.6875],
  "SoftwareVersions": "syngo MR E11",
  "SpacingBetweenSlices": 2,
  "StationName": "MRC35049",
  "TaskName": "mariostars",
  "TotalReadoutTime": 0.0576811,
  "TxRefAmp": 305.929,
  "WipMemBlock": "bbaf1a0f-6b43-43c4-a784-8a4d5abb2347||Sequence: R017 ve11c/master r/75a17815+; Jun 28 2022 16:32:11 by eja",
  "dcmmeta_affine": [
    [-1.9978899955749512, 0.04603622853755951, 0.07947447896003723, 103.39401245117188],
    [-0.0014692663680762053, 1.7143781185150146, -1.0300027132034302, -50.52874755859375],
    [0.09183337539434433, 1.0289745330810547, 1.7125356197357178, -94.49066925048828],
    [0.0, 0.0, 0.0, 1.0]
],
  "dcmmeta_reorient_transform": [
    [0.0, -1.0, 0.0, 103.0],
    [1.0, 0.0, 0.0, 0.0],
    [0.0, 0.0, 1.0, 0.0],
    [0.0, 0.0, 0.0, 1.0]
],
  "dcmmeta_shape": [104, 104, 60, 421],
  "dcmmeta_slice_dim": 2,
  "dcmmeta_version": 0.6,
  "global": {
    "const": {
      "AcquisitionMatrix": [104, 0, 0, 104],
      "AngioFlag": "N",
      "BitsAllocated": 16,
      "BitsStored": 16,
      "BodyPartExamined": "BRAIN",
      "Columns": 832,
      "EchoNumbers": 1,
      "EchoTime": 37.0,
      "EchoTrainLength": 104,
      "FlipAngle": 52.0,
      "HighBit": 15,
      "ImageOrientationPatient": [0.99894500253636, 0.00073463317998, 0.0459166878348, 0.02301811465518, 0.85718903613826, -0.5144872425261],
      "ImagePositionPatient": [-852.12489114294, -750.62062550217, 352.61306493697],
      "ImageType": [
        "ORIGINAL",
        "PRIMARY",
        "P",
        "MB",
        "ND",
        "MOSAIC"
],
      "ImagedNucleus": "1H",
      "ImagingFrequency": 123.258805,
      "InPlanePhaseEncodingDirection": "COL",
      "LargestImagePixelValue": 4095,
      "MRAcquisitionType": "2D",
      "MagneticFieldStrength": 3.0,
      "Manufacturer": "SIEMENS",
      "ManufacturerModelName": "Prisma_fit",
      "Modality": "MR",
      "NumberOfAverages": 1.0,
      "NumberOfPhaseEncodingSteps": 104,
      "PercentPhaseFieldOfView": 100.0,
      "PercentSampling": 100.0,
      "PerformedProcedureStepStartTime": "161149.332000",
      "PhotometricInterpretation": "MONOCHROME2",
      "PixelBandwidth": 2290.0,
      "PixelRepresentation": 0,
      "PixelSpacing": [2.0, 2.0],
      "ProtocolName": "func_task-mariostars_run-03",
      "RepetitionTime": 1490.0,
      "RescaleIntercept": -4096.0,
      "RescaleSlope": 2.0,
      "RescaleType": "US",
      "Rows": 832,
      "SAR": 0.07575695261402,
      "SamplesPerPixel": 1,
      "ScanOptions": "FS",
      "ScanningSequence": "EP",
      "SequenceName": "epfid2d1_104",
      "SequenceVariant": [
        "SK",
        "SS"
],
      "SeriesDescription": "func_task-mariostars_run-03",
      "SeriesNumber": 18,
      "SeriesTime": "164021.278000",
      "SliceLocation": -50.778351286741,
      "SliceThickness": 2.0,
      "SmallestImagePixelValue": 0,
      "SoftwareVersions": "syngo MR E11",
      "SpacingBetweenSlices": 1.9999999791526,
      "SpecificCharacterSet": "ISO_IR 100",
      "StudyID": "1",
      "StudyTime": "161149.246000",
      "TransmitCoilName": "Body",
      "VariableFlipAngleFlag": "N",
      "WindowCenterWidthExplanation": "Algo1",
      "dBdt": 0.0},
    "slices": {}
  },
  "time": {
    "samples": {
      "AcquisitionNumber": [1, 2, 3, 4, 5, 6, 7, 8, 9, 10, 11, 12, 13, 14, 15, 16, 17, 18, 19, 20, 21, 22, 23, 24, 25, 26, 27, 28, 29, 30, 31, 32, 33, 34, 35, 36, 37, 38, 39, 40, 41, 42, 43, 44, 45, 46, 47, 48, 49, 50, 51, 52, 53, 54, 55, 56, 57, 58, 59, 60, 61, 62, 63, 64, 65, 66, 67, 68, 69, 70, 71, 72, 73, 74, 75, 76, 77, 78, 79, 80, 81, 82, 83, 84, 85, 86, 87, 88, 89, 90, 91, 92, 93, 94, 95, 96, 97, 98, 99, 100, 101, 102, 103, 104, 105, 106, 107, 108, 109, 110, 111, 112, 113, 114, 115, 116, 117, 118, 119, 120, 121, 122, 123, 124, 125, 126, 127, 128, 129, 130, 131, 132, 133, 134, 135, 136, 137, 138, 139, 140, 141, 142, 143, 144, 145, 146, 147, 148, 149, 150, 151, 152, 153, 154, 155, 156, 157, 158, 159, 160, 161, 162, 163, 164, 165, 166, 167, 168, 169, 170, 171, 172, 173, 174, 175, 176, 177, 178, 179, 180, 181, 182, 183, 184, 185, 186, 187, 188, 189, 190, 191, 192, 193, 194, 195, 196, 197, 198, 199, 200, 201, 202, 203, 204, 205, 206, 207, 208, 209, 210, 211, 212, 213, 214, 215, 216, 217, 218, 219, 220, 221, 222, 223, 224, 225, 226, 227, 228, 229, 230, 231, 232, 233, 234, 235, 236, 237, 238, 239, 240, 241, 242, 243, 244, 245, 246, 247, 248, 249, 250, 251, 252, 253, 254, 255, 256, 257, 258, 259, 260, 261, 262, 263, 264, 265, 266, 267, 268, 269, 270, 271, 272, 273, 274, 275, 276, 277, 278, 279, 280, 281, 282, 283, 284, 285, 286, 287, 288, 289, 290, 291, 292, 293, 294, 295, 296, 297, 298, 299, 300, 301, 302, 303, 304, 305, 306, 307, 308, 309, 310, 311, 312, 313, 314, 315, 316, 317, 318, 319, 320, 321, 322, 323, 324, 325, 326, 327, 328, 329, 330, 331, 332, 333, 334, 335, 336, 337, 338, 339, 340, 341, 342, 343, 344, 345, 346, 347, 348, 349, 350, 351, 352, 353, 354, 355, 356, 357, 358, 359, 360, 361, 362, 363, 364, 365, 366, 367, 368, 369, 370, 371, 372, 373, 374, 375, 376, 377, 378, 379, 380, 381, 382, 383, 384, 385, 386, 387, 388, 389, 390, 391, 392, 393, 394, 395, 396, 397, 398, 399, 400, 401, 402, 403, 404, 405, 406, 407, 408, 409, 410, 411, 412, 413, 414, 415, 416, 417, 418, 419, 420, 421],
      "AcquisitionTime": ["163914.747500", "163916.237500", "163917.727500", "163919.217500", "163920.707500", "163922.197500", "163923.687500", "163925.177500", "163926.667500", "163928.157500", "163929.647500", "163931.137500", "163932.627500", "163934.117500", "163935.607500", "163937.097500", "163938.587500", "163940.077500", "163941.567500", "163943.057500", "163944.547500", "163946.037500", "163947.527500", "163949.017500", "163950.507500", "163951.997500", "163953.487500", "163954.977500", "163956.467500", "163957.957500", "163959.447500", "164000.937500", "164002.427500", "164003.917500", "164005.407500", "164006.897500", "164008.387500", "164009.877500", "164011.367500", "164012.857500", "164014.347500", "164015.837500", "164017.327500", "164018.817500", "164020.307500", "164021.797500", "164023.287500", "164024.777500", "164026.267500", "164027.757500", "164029.247500", "164030.737500", "164032.227500", "164033.717500", "164035.207500", "164036.697500", "164038.187500", "164039.677500", "164041.167500", "164042.657500", "164044.147500", "164045.637500", "164047.127500", "164048.617500", "164050.107500", "164051.597500", "164053.087500", "164054.577500", "164056.067500", "164057.557500", "164059.047500", "164100.537500", "164102.027500", "164103.517500", "164105.007500", "164106.497500", "164107.987500", "164109.477500", "164110.967500", "164112.457500", "164113.947500", "164115.437500", "164116.927500", "164118.417500", "164119.907500", "164121.397500", "164122.887500", "164124.377500", "164125.867500", "164127.357500", "164128.847500", "164130.337500", "164131.827500", "164133.317500", "164134.807500", "164136.297500", "164137.787500", "164139.277500", "164140.767500", "164142.257500", "164143.747500", "164145.237500", "164146.727500", "164148.217500", "164149.707500", "164151.197500", "164152.687500", "164154.177500", "164155.667500", "164157.157500", "164158.647500", "164200.137500", "164201.627500", "164203.117500", "164204.607500", "164206.097500", "164207.587500", "164209.077500", "164210.567500", "164212.057500", "164213.547500", "164215.037500", "164216.527500", "164218.017500", "164219.507500", "164220.997500", "164222.487500", "164223.977500", "164225.467500", "164226.957500", "164228.447500", "164229.937500", "164231.427500", "164232.917500", "164234.407500", "164235.897500", "164237.387500", "164238.877500", "164240.367500", "164241.857500", "164243.347500", "164244.837500", "164246.327500", "164247.817500", "164249.307500", "164250.797500", "164252.287500", "164253.777500", "164255.267500", "164256.757500", "164258.247500", "164259.737500", "164301.227500", "164302.717500", "164304.207500", "164305.697500", "164307.187500", "164308.677500", "164310.167500", "164311.657500", "164313.147500", "164314.637500", "164316.127500", "164317.617500", "164319.107500", "164320.597500", "164322.087500", "164323.577500", "164325.067500", "164326.557500", "164328.047500", "164329.537500", "164331.027500", "164332.517500", "164334.007500", "164335.497500", "164336.987500", "164338.477500", "164339.967500", "164341.457500", "164342.947500", "164344.437500", "164345.927500", "164347.417500", "164348.907500", "164350.397500", "164351.887500", "164353.377500", "164354.867500", "164356.357500", "164357.847500", "164359.337500", "164400.827500", "164402.317500", "164403.807500", "164405.297500", "164406.787500", "164408.277500", "164409.767500", "164411.257500", "164412.747500", "164414.237500", "164415.727500", "164417.217500", "164418.707500", "164420.197500", "164421.687500", "164423.177500", "164424.667500", "164426.157500", "164427.647500", "164429.137500", "164430.627500", "164432.117500", "164433.607500", "164435.097500", "164436.587500", "164438.077500", "164439.567500", "164441.057500", "164442.547500", "164444.037500", "164445.527500", "164447.017500", "164448.507500", "164449.997500", "164451.487500", "164452.977500", "164454.467500", "164455.957500", "164457.447500", "164458.937500", "164500.427500", "164501.917500", "164503.407500", "164504.897500", "164506.387500", "164507.877500", "164509.367500", "164510.857500", "164512.347500", "164513.837500", "164515.327500", "164516.817500", "164518.307500", "164519.797500", "164521.287500", "164522.777500", "164524.267500", "164525.757500", "164527.247500", "164528.737500", "164530.227500", "164531.717500", "164533.207500", "164534.697500", "164536.187500", "164537.677500", "164539.167500", "164540.657500", "164542.147500", "164543.637500", "164545.127500", "164546.617500", "164548.107500", "164549.597500", "164551.087500", "164552.577500", "164554.067500", "164555.557500", "164557.047500", "164558.537500", "164600.027500", "164601.517500", "164603.007500", "164604.497500", "164605.987500", "164607.477500", "164608.967500", "164610.457500", "164611.947500", "164613.437500", "164614.927500", "164616.417500", "164617.907500", "164619.397500", "164620.887500", "164622.377500", "164623.867500", "164625.357500", "164626.847500", "164628.337500", "164629.827500", "164631.317500", "164632.807500", "164634.297500", "164635.787500", "164637.277500", "164638.767500", "164640.257500", "164641.747500", "164643.237500", "164644.727500", "164646.217500", "164647.707500", "164649.197500", "164650.687500", "164652.177500", "164653.667500", "164655.157500", "164656.647500", "164658.137500", "164659.627500", "164701.117500", "164702.607500", "164704.097500", "164705.587500", "164707.077500", "164708.567500", "164710.057500", "164711.547500", "164713.037500", "164714.527500", "164716.017500", "164717.507500", "164718.997500", "164720.487500", "164721.977500", "164723.467500", "164724.957500", "164726.447500", "164727.937500", "164729.427500", "164730.917500", "164732.407500", "164733.897500", "164735.387500", "164736.877500", "164738.367500", "164739.857500", "164741.347500", "164742.837500", "164744.327500", "164745.817500", "164747.307500", "164748.797500", "164750.287500", "164751.777500", "164753.267500", "164754.757500", "164756.247500", "164757.737500", "164759.227500", "164800.717500", "164802.207500", "164803.697500", "164805.187500", "164806.677500", "164808.167500", "164809.657500", "164811.147500", "164812.637500", "164814.127500", "164815.617500", "164817.107500", "164818.597500", "164820.087500", "164821.577500", "164823.067500", "164824.557500", "164826.047500", "164827.537500", "164829.027500", "164830.517500", "164832.007500", "164833.497500", "164834.987500", "164836.477500", "164837.967500", "164839.457500", "164840.947500", "164842.437500", "164843.927500", "164845.417500", "164846.907500", "164848.397500", "164849.887500", "164851.377500", "164852.867500", "164854.357500", "164855.847500", "164857.337500", "164858.827500", "164900.317500", "164901.807500", "164903.297500", "164904.787500", "164906.277500", "164907.767500", "164909.257500", "164910.747500", "164912.237500", "164913.727500", "164915.217500", "164916.707500", "164918.197500", "164919.687500", "164921.177500", "164922.667500", "164924.157500", "164925.647500", "164927.137500", "164928.627500", "164930.117500", "164931.607500", "164933.097500", "164934.587500", "164936.077500", "164937.567500", "164939.057500", "164940.547500"],
      "ContentTime": ["164021.280000", "164021.283000", "164021.285000", "164021.288000", "164021.291000", "164021.293000", "164021.296000", "164021.298000", "164021.301000", "164021.303000", "164021.306000", "164021.319000", "164021.322000", "164021.325000", "164021.328000", "164021.331000", "164021.334000", "164041.236000", "164041.239000", "164041.255000", "164041.258000", "164041.260000", "164041.263000", "164041.266000", "164041.268000", "164041.271000", "164041.273000", "164041.276000", "164041.278000", "164041.281000", "164041.284000", "164041.286000", "164041.289000", "164041.291000", "164041.294000", "164041.297000", "164041.299000", "164101.243000", "164101.246000", "164101.248000", "164101.251000", "164101.253000", "164101.256000", "164101.259000", "164101.261000", "164101.267000", "164101.269000", "164101.272000", "164101.274000", "164101.277000", "164101.280000", "164101.282000", "164101.285000", "164101.288000", "164101.290000", "164101.293000", "164101.295000", "164101.298000", "164121.223000", "164121.225000", "164121.228000", "164121.231000", "164121.234000", "164121.236000", "164121.239000", "164121.241000", "164121.244000", "164121.246000", "164121.249000", "164121.252000", "164121.254000", "164121.257000", "164121.259000", "164121.262000", "164121.264000", "164121.267000", "164121.270000", "164121.272000", "164201.284000", "164201.287000", "164201.290000", "164201.293000", "164201.295000", "164201.298000", "164201.301000", "164201.303000", "164201.306000", "164201.308000", "164201.311000", "164201.314000", "164201.316000", "164201.319000", "164201.321000", "164201.324000", "164201.326000", "164201.329000", "164201.332000", "164201.334000", "164201.337000", "164201.339000", "164201.342000", "164201.345000", "164201.347000", "164201.350000", "164201.352000", "164201.355000", "164201.358000", "164201.360000", "164201.363000", "164201.366000", "164201.369000", "164241.268000", "164241.271000", "164241.274000", "164241.276000", "164241.279000", "164241.282000", "164241.288000", "164241.291000", "164241.294000", "164241.296000", "164241.299000", "164241.302000", "164241.305000", "164241.308000", "164241.310000", "164241.313000", "164241.316000", "164241.319000", "164241.321000", "164241.324000", "164241.326000", "164241.329000", "164241.331000", "164241.334000", "164241.337000", "164241.339000", "164321.274000", "164321.277000", "164321.280000", "164321.282000", "164321.285000", "164321.287000", "164321.290000", "164321.293000", "164321.295000", "164321.298000", "164321.300000", "164321.303000", "164321.305000", "164321.308000", "164321.311000", "164321.313000", "164321.316000", "164321.318000", "164321.321000", "164321.323000", "164321.326000", "164321.328000", "164321.331000", "164321.334000", "164321.336000", "164321.339000", "164321.341000", "164401.282000", "164401.285000", "164401.288000", "164401.290000", "164401.293000", "164401.296000", "164401.298000", "164401.301000", "164401.304000", "164401.306000", "164401.309000", "164401.311000", "164401.314000", "164401.317000", "164401.319000", "164401.322000", "164401.324000", "164401.327000", "164401.329000", "164401.332000", "164401.334000", "164401.337000", "164401.340000", "164401.342000", "164401.345000", "164401.347000", "164401.350000", "164441.264000", "164441.267000", "164441.270000", "164441.272000", "164441.275000", "164441.278000", "164441.280000", "164441.283000", "164441.285000", "164441.288000", "164441.291000", "164441.293000", "164441.296000", "164441.299000", "164441.302000", "164441.304000", "164441.307000", "164441.310000", "164441.312000", "164441.315000", "164441.317000", "164441.320000", "164441.323000", "164441.325000", "164441.328000", "164441.330000", "164441.333000", "164521.324000", "164521.327000", "164521.330000", "164521.333000", "164521.335000", "164521.338000", "164521.340000", "164521.343000", "164521.346000", "164521.348000", "164521.351000", "164521.354000", "164521.356000", "164521.359000", "164521.361000", "164521.364000", "164521.367000", "164521.369000", "164521.372000", "164521.375000", "164521.377000", "164521.380000", "164521.382000", "164521.385000", "164521.388000", "164521.390000", "164521.393000", "164601.274000", "164601.277000", "164601.279000", "164601.282000", "164601.284000", "164601.287000", "164601.290000", "164601.292000", "164601.295000", "164601.297000", "164601.300000", "164601.302000", "164601.305000", "164601.308000", "164601.310000", "164601.313000", "164601.315000", "164601.318000", "164601.320000", "164601.323000", "164601.326000", "164601.328000", "164601.331000", "164601.333000", "164601.336000", "164601.339000", "164601.341000", "164641.261000", "164641.264000", "164641.266000", "164641.269000", "164641.271000", "164641.274000", "164641.277000", "164641.279000", "164641.282000", "164641.284000", "164641.287000", "164641.290000", "164641.292000", "164641.295000", "164641.297000", "164641.300000", "164641.302000", "164641.305000", "164641.307000", "164641.310000", "164641.313000", "164641.315000", "164641.318000", "164641.321000", "164641.323000", "164641.326000", "164721.265000", "164721.268000", "164721.271000", "164721.274000", "164721.276000", "164721.279000", "164721.283000", "164721.285000", "164721.288000", "164721.291000", "164721.293000", "164721.296000", "164721.299000", "164721.301000", "164721.304000", "164721.306000", "164721.309000", "164721.312000", "164721.314000", "164721.317000", "164721.319000", "164721.322000", "164721.324000", "164721.327000", "164721.330000", "164721.332000", "164721.336000", "164802.512000", "164802.515000", "164802.518000", "164802.520000", "164802.523000", "164802.525000", "164802.528000", "164802.531000", "164802.533000", "164802.536000", "164802.539000", "164802.541000", "164802.544000", "164802.546000", "164802.549000", "164802.551000", "164802.554000", "164802.557000", "164802.559000", "164802.562000", "164802.565000", "164802.567000", "164802.570000", "164802.572000", "164802.575000", "164802.578000", "164802.580000", "164821.267000", "164821.270000", "164821.273000", "164821.275000", "164821.279000", "164821.281000", "164821.284000", "164821.286000", "164821.289000", "164821.292000", "164821.295000", "164821.297000", "164821.300000", "164821.302000", "164901.308000", "164901.311000", "164901.313000", "164901.316000", "164901.318000", "164901.321000", "164901.324000", "164901.326000", "164901.329000", "164901.331000", "164901.334000", "164901.336000", "164901.339000", "164901.342000", "164901.344000", "164901.347000", "164901.349000", "164901.352000", "164901.354000", "164901.357000", "164901.360000", "164901.362000", "164901.365000", "164901.367000", "164901.370000", "164901.372000", "164941.346000", "164941.351000", "164941.354000", "164941.356000", "164941.362000", "164941.365000", "164941.368000", "164941.371000", "164941.373000", "164941.378000", "164941.380000", "164941.383000", "164941.386000", "164941.389000", "164941.391000", "164941.394000", "164941.397000", "164941.400000", "164941.402000", "164941.405000", "164941.409000", "164941.412000", "164941.414000", "164941.417000", "164941.420000", "164941.423000", "164941.425000", "164944.166000", "164944.169000"],
      "InstanceCreationTime": ["164021.280000", "164021.283000", "164021.285000", "164021.288000", "164021.291000", "164021.293000", "164021.296000", "164021.298000", "164021.301000", "164021.303000", "164021.306000", "164021.319000", "164021.322000", "164021.325000", "164021.328000", "164021.331000", "164021.334000", "164041.236000", "164041.239000", "164041.255000", "164041.258000", "164041.260000", "164041.263000", "164041.266000", "164041.268000", "164041.271000", "164041.273000", "164041.276000", "164041.278000", "164041.281000", "164041.284000", "164041.286000", "164041.289000", "164041.291000", "164041.294000", "164041.297000", "164041.299000", "164101.243000", "164101.246000", "164101.248000", "164101.251000", "164101.253000", "164101.256000", "164101.259000", "164101.261000", "164101.267000", "164101.269000", "164101.272000", "164101.274000", "164101.277000", "164101.280000", "164101.282000", "164101.285000", "164101.288000", "164101.290000", "164101.293000", "164101.295000", "164101.298000", "164121.223000", "164121.225000", "164121.228000", "164121.231000", "164121.234000", "164121.236000", "164121.239000", "164121.241000", "164121.244000", "164121.246000", "164121.249000", "164121.252000", "164121.254000", "164121.257000", "164121.259000", "164121.262000", "164121.264000", "164121.267000", "164121.270000", "164121.272000", "164201.284000", "164201.287000", "164201.290000", "164201.293000", "164201.295000", "164201.298000", "164201.301000", "164201.303000", "164201.306000", "164201.308000", "164201.311000", "164201.314000", "164201.316000", "164201.319000", "164201.321000", "164201.324000", "164201.326000", "164201.329000", "164201.332000", "164201.334000", "164201.337000", "164201.339000", "164201.342000", "164201.345000", "164201.347000", "164201.350000", "164201.352000", "164201.355000", "164201.358000", "164201.360000", "164201.363000", "164201.366000", "164201.369000", "164241.268000", "164241.271000", "164241.274000", "164241.276000", "164241.279000", "164241.282000", "164241.288000", "164241.291000", "164241.294000", "164241.296000", "164241.299000", "164241.302000", "164241.305000", "164241.308000", "164241.310000", "164241.313000", "164241.316000", "164241.319000", "164241.321000", "164241.324000", "164241.326000", "164241.329000", "164241.331000", "164241.334000", "164241.337000", "164241.339000", "164321.274000", "164321.277000", "164321.280000", "164321.282000", "164321.285000", "164321.287000", "164321.290000", "164321.293000", "164321.295000", "164321.298000", "164321.300000", "164321.303000", "164321.305000", "164321.308000", "164321.311000", "164321.313000", "164321.316000", "164321.318000", "164321.321000", "164321.323000", "164321.326000", "164321.328000", "164321.331000", "164321.334000", "164321.336000", "164321.339000", "164321.341000", "164401.282000", "164401.285000", "164401.288000", "164401.290000", "164401.293000", "164401.296000", "164401.298000", "164401.301000", "164401.304000", "164401.306000", "164401.309000", "164401.311000", "164401.314000", "164401.317000", "164401.319000", "164401.322000", "164401.324000", "164401.327000", "164401.329000", "164401.332000", "164401.334000", "164401.337000", "164401.340000", "164401.342000", "164401.345000", "164401.347000", "164401.350000", "164441.264000", "164441.267000", "164441.270000", "164441.272000", "164441.275000", "164441.278000", "164441.280000", "164441.283000", "164441.285000", "164441.288000", "164441.291000", "164441.293000", "164441.296000", "164441.299000", "164441.302000", "164441.304000", "164441.307000", "164441.310000", "164441.312000", "164441.315000", "164441.317000", "164441.320000", "164441.323000", "164441.325000", "164441.328000", "164441.330000", "164441.333000", "164521.324000", "164521.327000", "164521.330000", "164521.333000", "164521.335000", "164521.338000", "164521.340000", "164521.343000", "164521.346000", "164521.348000", "164521.351000", "164521.354000", "164521.356000", "164521.359000", "164521.361000", "164521.364000", "164521.367000", "164521.369000", "164521.372000", "164521.375000", "164521.377000", "164521.380000", "164521.382000", "164521.385000", "164521.388000", "164521.390000", "164521.393000", "164601.274000", "164601.277000", "164601.279000", "164601.282000", "164601.284000", "164601.287000", "164601.290000", "164601.292000", "164601.295000", "164601.297000", "164601.300000", "164601.302000", "164601.305000", "164601.308000", "164601.310000", "164601.313000", "164601.315000", "164601.318000", "164601.320000", "164601.323000", "164601.326000", "164601.328000", "164601.331000", "164601.333000", "164601.336000", "164601.339000", "164601.341000", "164641.261000", "164641.264000", "164641.266000", "164641.269000", "164641.271000", "164641.274000", "164641.277000", "164641.279000", "164641.282000", "164641.284000", "164641.287000", "164641.290000", "164641.292000", "164641.295000", "164641.297000", "164641.300000", "164641.302000", "164641.305000", "164641.307000", "164641.310000", "164641.313000", "164641.315000", "164641.318000", "164641.321000", "164641.323000", "164641.326000", "164721.265000", "164721.268000", "164721.271000", "164721.274000", "164721.276000", "164721.279000", "164721.283000", "164721.285000", "164721.288000", "164721.291000", "164721.293000", "164721.296000", "164721.299000", "164721.301000", "164721.304000", "164721.306000", "164721.309000", "164721.312000", "164721.314000", "164721.317000", "164721.319000", "164721.322000", "164721.324000", "164721.327000", "164721.330000", "164721.332000", "164721.336000", "164802.512000", "164802.515000", "164802.518000", "164802.520000", "164802.523000", "164802.525000", "164802.528000", "164802.531000", "164802.533000", "164802.536000", "164802.539000", "164802.541000", "164802.544000", "164802.546000", "164802.549000", "164802.551000", "164802.554000", "164802.557000", "164802.559000", "164802.562000", "164802.565000", "164802.567000", "164802.570000", "164802.572000", "164802.575000", "164802.578000", "164802.580000", "164821.267000", "164821.270000", "164821.273000", "164821.275000", "164821.279000", "164821.281000", "164821.284000", "164821.286000", "164821.289000", "164821.292000", "164821.295000", "164821.297000", "164821.300000", "164821.302000", "164901.308000", "164901.311000", "164901.313000", "164901.316000", "164901.318000", "164901.321000", "164901.324000", "164901.326000", "164901.329000", "164901.331000", "164901.334000", "164901.336000", "164901.339000", "164901.342000", "164901.344000", "164901.347000", "164901.349000", "164901.352000", "164901.354000", "164901.357000", "164901.360000", "164901.362000", "164901.365000", "164901.367000", "164901.370000", "164901.372000", "164941.346000", "164941.351000", "164941.354000", "164941.356000", "164941.362000", "164941.365000", "164941.368000", "164941.371000", "164941.373000", "164941.378000", "164941.380000", "164941.383000", "164941.386000", "164941.389000", "164941.391000", "164941.394000", "164941.397000", "164941.400000", "164941.402000", "164941.405000", "164941.409000", "164941.412000", "164941.414000", "164941.417000", "164941.420000", "164941.423000", "164941.425000", "164944.166000", "164944.169000"],
