{
  "AcquisitionMatrixPE": 104,
  "AcquisitionNumber": 1,
  "AcquisitionTime": "16:39:14.747500",
  "BandwidthPerPixelPhaseEncode": 17.17,
  "BaseResolution": 104,
  "BodyPartExamined": "BRAIN",
  "CoilCombinationMethod": "Sum of Squares",
  "ConsistencyInfo": "N4_VE11C_LATEST_20160120",
  "ConversionSoftware": "dcm2niix",
  "ConversionSoftwareVersion": "v1.0.20220505",
  "DerivedVendorReportedEchoSpacing": 0.000560011,
  "DeviceSerialNumber": "167006",
  "DwellTime": 2.1e-06,
  "EchoTime": 0.037,
  "EchoTrainLength": 104,
  "EffectiveEchoSpacing": 0.000560011,
  "FlipAngle": 52,
  "HeudiconvVersion": "0.5.3.post811+g6206e14",
  "ImageComments": "Unaliased MB4/PE3/LB",
  "ImageOrientationPatientDICOM": [0.998945, 0.000734633, 0.0459167, 0.0230181, 0.857189, -0.514487],
  "ImageOrientationText": "Tra>Cor(-31.0)>Sag(2.3)",
  "ImageType": [
    "ORIGINAL",
    "PRIMARY",
    "M",
    "MB",
    "ND",
    "MOSAIC"
],
  "ImagingFrequency": 123.259,
  "InPlanePhaseEncodingDirectionDICOM": "COL",
  "InstitutionAddress": "Chemin Queen-Mary 4565,Montreal,District,CA,H3W 1W5",
  "InstitutionName": "IUGM",
  "InstitutionalDepartmentName": "Department",
  "MRAcquisitionType": "2D",
  "MagneticFieldStrength": 3,
  "Manufacturer": "Siemens",
  "ManufacturersModelName": "Prisma_fit",
  "MatrixCoilMode": "SENSE",
  "Modality": "MR",
  "MultibandAccelerationFactor": 4,
  "PartialFourier": 1,
  "PatientPosition": "HFS",
  "PercentPhaseFOV": 100,
  "PercentSampling": 100,
  "PhaseEncodingDirection": "j",
  "PhaseEncodingSteps": 104,
  "PhaseResolution": 1,
  "PixelBandwidth": 2290,
  "ProcedureStepDescription": "games^mariostars",
  "ProtocolName": "func_task-mariostars_run-03",
  "PulseSequenceDetails": "%CustomerSeq%\\cmrr_mbep2d_bold",
  "ReceiveCoilActiveElements": "HC1-7;NC1,2",
  "ReceiveCoilName": "HeadNeck_64",
  "ReconMatrixPE": 104,
  "RepetitionTime": 1.49,
  "SAR": 0.075757,
  "ScanOptions": "FS",
  "ScanningSequence": "EP",
  "SequenceName": "epfid2d1_104",
  "SequenceVariant": "SK\\SS",
  "SeriesDescription": "func_task-mariostars_run-03",
  "SeriesNumber": 17,
  "ShimSetting": [621, -7192, -8868, 269, 29, -157, -22, 23],
  "SliceThickness": 2,
  "SliceTiming": [0, 0.785, 0.1, 0.8825, 0.1975, 0.98, 0.295, 1.08, 0.3925, 1.1775, 0.49, 1.275, 0.59, 1.3725, 0.6875, 0, 0.785, 0.1, 0.8825, 0.1975, 0.98, 0.295, 1.08, 0.3925, 1.1775, 0.49, 1.275, 0.59, 1.3725, 0.6875, 0, 0.785, 0.1, 0.8825, 0.1975, 0.98, 0.295, 1.08, 0.3925, 1.1775, 0.49, 1.275, 0.59, 1.3725, 0.6875, 0, 0.785, 0.1, 0.8825, 0.1975, 0.98, 0.295, 1.08, 0.3925, 1.1775, 0.49, 1.275, 0.59, 1.3725, 0.6875],
  "SoftwareVersions": "syngo MR E11",
  "SpacingBetweenSlices": 2,
  "StationName": "MRC35049",
  "TaskName": "mariostars",
  "TotalReadoutTime": 0.0576811,
  "TxRefAmp": 305.929,
  "WipMemBlock": "bbaf1a0f-6b43-43c4-a784-8a4d5abb2347||Sequence: R017 ve11c/master r/75a17815+; Jun 28 2022 16:32:11 by eja",
  "dcmmeta_affine": [
    [-1.9978899955749512, 0.04603622853755951, 0.07947447896003723, 103.39401245117188],
    [-0.0014692663680762053, 1.7143781185150146, -1.0300027132034302, -50.52874755859375],
    [0.09183337539434433, 1.0289745330810547, 1.7125356197357178, -94.49066925048828],
    [0.0, 0.0, 0.0, 1.0]
],
  "dcmmeta_reorient_transform": [
    [0.0, -1.0, 0.0, 103.0],
    [1.0, 0.0, 0.0, 0.0],
    [0.0, 0.0, 1.0, 0.0],
    [0.0, 0.0, 0.0, 1.0]
],
  "dcmmeta_shape": [104, 104, 60, 421],
  "dcmmeta_slice_dim": 2,
  "dcmmeta_version": 0.6,
  "global": {
    "const": {
      "AcquisitionMatrix": [104, 0, 0, 104],
      "AngioFlag": "N",
      "BitsAllocated": 16,
      "BitsStored": 16,
      "BodyPartExamined": "BRAIN",
      "Columns": 832,
      "EchoNumbers": 1,
      "EchoTime": 37.0,
      "EchoTrainLength": 104,
      "FlipAngle": 52.0,
      "HighBit": 15,
      "ImageOrientationPatient": [0.99894500253636, 0.00073463317998, 0.0459166878348, 0.02301811465518, 0.85718903613826, -0.5144872425261],
      "ImagePositionPatient": [-852.12489114294, -750.62062550217, 352.61306493697],
      "ImageType": [
        "ORIGINAL",
        "PRIMARY",
        "M",
        "MB",
        "ND",
        "MOSAIC"
],
      "ImagedNucleus": "1H",
      "ImagingFrequency": 123.258805,
      "InPlanePhaseEncodingDirection": "COL",
      "MRAcquisitionType": "2D",
      "MagneticFieldStrength": 3.0,
      "Manufacturer": "SIEMENS",
      "ManufacturerModelName": "Prisma_fit",
      "Modality": "MR",
      "NumberOfAverages": 1.0,
      "NumberOfPhaseEncodingSteps": 104,
      "PercentPhaseFieldOfView": 100.0,
      "PercentSampling": 100.0,
      "PerformedProcedureStepStartTime": "161149.332000",
      "PhotometricInterpretation": "MONOCHROME2",
      "PixelBandwidth": 2290.0,
      "PixelRepresentation": 0,
      "PixelSpacing": [2.0, 2.0],
      "ProtocolName": "func_task-mariostars_run-03",
      "RepetitionTime": 1490.0,
      "Rows": 832,
      "SAR": 0.07575695261402,
      "SamplesPerPixel": 1,
      "ScanOptions": "FS",
      "ScanningSequence": "EP",
      "SequenceName": "epfid2d1_104",
      "SequenceVariant": [
        "SK",
        "SS"
],
      "SeriesDescription": "func_task-mariostars_run-03",
      "SeriesNumber": 17,
      "SeriesTime": "164021.160000",
      "SliceLocation": -50.778351286741,
      "SliceThickness": 2.0,
      "SmallestImagePixelValue": 0,
      "SoftwareVersions": "syngo MR E11",
      "SpacingBetweenSlices": 1.9999999791526,
      "SpecificCharacterSet": "ISO_IR 100",
      "StudyID": "1",
      "StudyTime": "161149.246000",
      "TransmitCoilName": "Body",
      "VariableFlipAngleFlag": "N",
      "WindowCenterWidthExplanation": "Algo1",
      "dBdt": 0.0},
    "slices": {}
  },
  "time": {
    "samples": {
      "AcquisitionNumber": [1, 2, 3, 4, 5, 6, 7, 8, 9, 10, 11, 12, 13, 14, 15, 16, 17, 18, 19, 20, 21, 22, 23, 24, 25, 26, 27, 28, 29, 30, 31, 32, 33, 34, 35, 36, 37, 38, 39, 40, 41, 42, 43, 44, 45, 46, 47, 48, 49, 50, 51, 52, 53, 54, 55, 56, 57, 58, 59, 60, 61, 62, 63, 64, 65, 66, 67, 68, 69, 70, 71, 72, 73, 74, 75, 76, 77, 78, 79, 80, 81, 82, 83, 84, 85, 86, 87, 88, 89, 90, 91, 92, 93, 94, 95, 96, 97, 98, 99, 100, 101, 102, 103, 104, 105, 106, 107, 108, 109, 110, 111, 112, 113, 114, 115, 116, 117, 118, 119, 120, 121, 122, 123, 124, 125, 126, 127, 128, 129, 130, 131, 132, 133, 134, 135, 136, 137, 138, 139, 140, 141, 142, 143, 144, 145, 146, 147, 148, 149, 150, 151, 152, 153, 154, 155, 156, 157, 158, 159, 160, 161, 162, 163, 164, 165, 166, 167, 168, 169, 170, 171, 172, 173, 174, 175, 176, 177, 178, 179, 180, 181, 182, 183, 184, 185, 186, 187, 188, 189, 190, 191, 192, 193, 194, 195, 196, 197, 198, 199, 200, 201, 202, 203, 204, 205, 206, 207, 208, 209, 210, 211, 212, 213, 214, 215, 216, 217, 218, 219, 220, 221, 222, 223, 224, 225, 226, 227, 228, 229, 230, 231, 232, 233, 234, 235, 236, 237, 238, 239, 240, 241, 242, 243, 244, 245, 246, 247, 248, 249, 250, 251, 252, 253, 254, 255, 256, 257, 258, 259, 260, 261, 262, 263, 264, 265, 266, 267, 268, 269, 270, 271, 272, 273, 274, 275, 276, 277, 278, 279, 280, 281, 282, 283, 284, 285, 286, 287, 288, 289, 290, 291, 292, 293, 294, 295, 296, 297, 298, 299, 300, 301, 302, 303, 304, 305, 306, 307, 308, 309, 310, 311, 312, 313, 314, 315, 316, 317, 318, 319, 320, 321, 322, 323, 324, 325, 326, 327, 328, 329, 330, 331, 332, 333, 334, 335, 336, 337, 338, 339, 340, 341, 342, 343, 344, 345, 346, 347, 348, 349, 350, 351, 352, 353, 354, 355, 356, 357, 358, 359, 360, 361, 362, 363, 364, 365, 366, 367, 368, 369, 370, 371, 372, 373, 374, 375, 376, 377, 378, 379, 380, 381, 382, 383, 384, 385, 386, 387, 388, 389, 390, 391, 392, 393, 394, 395, 396, 397, 398, 399, 400, 401, 402, 403, 404, 405, 406, 407, 408, 409, 410, 411, 412, 413, 414, 415, 416, 417, 418, 419, 420, 421],
      "AcquisitionTime": ["163914.747500", "163916.237500", "163917.727500", "163919.217500", "163920.707500", "163922.197500", "163923.687500", "163925.177500", "163926.667500", "163928.157500", "163929.647500", "163931.137500", "163932.627500", "163934.117500", "163935.607500", "163937.097500", "163938.587500", "163940.077500", "163941.567500", "163943.057500", "163944.547500", "163946.037500", "163947.527500", "163949.017500", "163950.507500", "163951.997500", "163953.487500", "163954.977500", "163956.467500", "163957.957500", "163959.447500", "164000.937500", "164002.427500", "164003.917500", "164005.407500", "164006.897500", "164008.387500", "164009.877500", "164011.367500", "164012.857500", "164014.347500", "164015.837500", "164017.327500", "164018.817500", "164020.307500", "164021.797500", "164023.287500", "164024.777500", "164026.267500", "164027.757500", "164029.247500", "164030.737500", "164032.227500", "164033.717500", "164035.207500", "164036.697500", "164038.187500", "164039.677500", "164041.167500", "164042.657500", "164044.147500", "164045.637500", "164047.127500", "164048.617500", "164050.107500", "164051.597500", "164053.087500", "164054.577500", "164056.067500", "164057.557500", "164059.047500", "164100.537500", "164102.027500", "164103.517500", "164105.007500", "164106.497500", "164107.987500", "164109.477500", "164110.967500", "164112.457500", "164113.947500", "164115.437500", "164116.927500", "164118.417500", "164119.907500", "164121.397500", "164122.887500", "164124.377500", "164125.867500", "164127.357500", "164128.847500", "164130.337500", "164131.827500", "164133.317500", "164134.807500", "164136.297500", "164137.787500", "164139.277500", "164140.767500", "164142.257500", "164143.747500", "164145.237500", "164146.727500", "164148.217500", "164149.707500", "164151.197500", "164152.687500", "164154.177500", "164155.667500", "164157.157500", "164158.647500", "164200.137500", "164201.627500", "164203.117500", "164204.607500", "164206.097500", "164207.587500", "164209.077500", "164210.567500", "164212.057500", "164213.547500", "164215.037500", "164216.527500", "164218.017500", "164219.507500", "164220.997500", "164222.487500", "164223.977500", "164225.467500", "164226.957500", "164228.447500", "164229.937500", "164231.427500", "164232.917500", "164234.407500", "164235.897500", "164237.387500", "164238.877500", "164240.367500", "164241.857500", "164243.347500", "164244.837500", "164246.327500", "164247.817500", "164249.307500", "164250.797500", "164252.287500", "164253.777500", "164255.267500", "164256.757500", "164258.247500", "164259.737500", "164301.227500", "164302.717500", "164304.207500", "164305.697500", "164307.187500", "164308.677500", "164310.167500", "164311.657500", "164313.147500", "164314.637500", "164316.127500", "164317.617500", "164319.107500", "164320.597500", "164322.087500", "164323.577500", "164325.067500", "164326.557500", "164328.047500", "164329.537500", "164331.027500", "164332.517500", "164334.007500", "164335.497500", "164336.987500", "164338.477500", "164339.967500", "164341.457500", "164342.947500", "164344.437500", "164345.927500", "164347.417500", "164348.907500", "164350.397500", "164351.887500", "164353.377500", "164354.867500", "164356.357500", "164357.847500", "164359.337500", "164400.827500", "164402.317500", "164403.807500", "164405.297500", "164406.787500", "164408.277500", "164409.767500", "164411.257500", "164412.747500", "164414.237500", "164415.727500", "164417.217500", "164418.707500", "164420.197500", "164421.687500", "164423.177500", "164424.667500", "164426.157500", "164427.647500", "164429.137500", "164430.627500", "164432.117500", "164433.607500", "164435.097500", "164436.587500", "164438.077500", "164439.567500", "164441.057500", "164442.547500", "164444.037500", "164445.527500", "164447.017500", "164448.507500", "164449.997500", "164451.487500", "164452.977500", "164454.467500", "164455.957500", "164457.447500", "164458.937500", "164500.427500", "164501.917500", "164503.407500", "164504.897500", "164506.387500", "164507.877500", "164509.367500", "164510.857500", "164512.347500", "164513.837500", "164515.327500", "164516.817500", "164518.307500", "164519.797500", "164521.287500", "164522.777500", "164524.267500", "164525.757500", "164527.247500", "164528.737500", "164530.227500", "164531.717500", "164533.207500", "164534.697500", "164536.187500", "164537.677500", "164539.167500", "164540.657500", "164542.147500", "164543.637500", "164545.127500", "164546.617500", "164548.107500", "164549.597500", "164551.087500", "164552.577500", "164554.067500", "164555.557500", "164557.047500", "164558.537500", "164600.027500", "164601.517500", "164603.007500", "164604.497500", "164605.987500", "164607.477500", "164608.967500", "164610.457500", "164611.947500", "164613.437500", "164614.927500", "164616.417500", "164617.907500", "164619.397500", "164620.887500", "164622.377500", "164623.867500", "164625.357500", "164626.847500", "164628.337500", "164629.827500", "164631.317500", "164632.807500", "164634.297500", "164635.787500", "164637.277500", "164638.767500", "164640.257500", "164641.747500", "164643.237500", "164644.727500", "164646.217500", "164647.707500", "164649.197500", "164650.687500", "164652.177500", "164653.667500", "164655.157500", "164656.647500", "164658.137500", "164659.627500", "164701.117500", "164702.607500", "164704.097500", "164705.587500", "164707.077500", "164708.567500", "164710.057500", "164711.547500", "164713.037500", "164714.527500", "164716.017500", "164717.507500", "164718.997500", "164720.487500", "164721.977500", "164723.467500", "164724.957500", "164726.447500", "164727.937500", "164729.427500", "164730.917500", "164732.407500", "164733.897500", "164735.387500", "164736.877500", "164738.367500", "164739.857500", "164741.347500", "164742.837500", "164744.327500", "164745.817500", "164747.307500", "164748.797500", "164750.287500", "164751.777500", "164753.267500", "164754.757500", "164756.247500", "164757.737500", "164759.227500", "164800.717500", "164802.207500", "164803.697500", "164805.187500", "164806.677500", "164808.167500", "164809.657500", "164811.147500", "164812.637500", "164814.127500", "164815.617500", "164817.107500", "164818.597500", "164820.087500", "164821.577500", "164823.067500", "164824.557500", "164826.047500", "164827.537500", "164829.027500", "164830.517500", "164832.007500", "164833.497500", "164834.987500", "164836.477500", "164837.967500", "164839.457500", "164840.947500", "164842.437500", "164843.927500", "164845.417500", "164846.907500", "164848.397500", "164849.887500", "164851.377500", "164852.867500", "164854.357500", "164855.847500", "164857.337500", "164858.827500", "164900.317500", "164901.807500", "164903.297500", "164904.787500", "164906.277500", "164907.767500", "164909.257500", "164910.747500", "164912.237500", "164913.727500", "164915.217500", "164916.707500", "164918.197500", "164919.687500", "164921.177500", "164922.667500", "164924.157500", "164925.647500", "164927.137500", "164928.627500", "164930.117500", "164931.607500", "164933.097500", "164934.587500", "164936.077500", "164937.567500", "164939.057500", "164940.547500"],
      "ContentTime": ["164021.163000", "164021.168000", "164021.172000", "164021.175000", "164021.178000", "164021.182000", "164021.186000", "164021.189000", "164021.192000", "164021.196000", "164021.199000", "164021.203000", "164021.212000", "164021.215000", "164021.225000", "164021.228000", "164021.232000", "164041.107000", "164041.111000", "164041.114000", "164041.118000", "164041.121000", "164041.132000", "164041.136000", "164041.140000", "164041.143000", "164041.147000", "164041.150000", "164041.154000", "164041.158000", "164041.161000", "164041.164000", "164041.168000", "164041.171000", "164041.175000", "164041.178000", "164041.182000", "164101.107000", "164101.111000", "164101.121000", "164101.125000", "164101.128000", "164101.131000", "164101.135000", "164101.138000", "164101.142000", "164101.145000", "164101.149000", "164101.152000", "164101.156000", "164101.165000", "164101.168000", "164101.172000", "164101.175000", "164101.179000", "164101.182000", "164101.186000", "164101.189000", "164121.107000", "164121.111000", "164121.115000", "164121.118000", "164121.121000", "164121.125000", "164121.128000", "164121.132000", "164121.135000", "164121.139000", "164121.142000", "164121.145000", "164121.149000", "164121.152000", "164121.156000", "164121.159000", "164121.163000", "164121.166000", "164121.170000", "164121.173000", "164201.109000", "164201.113000", "164201.116000", "164201.120000", "164201.124000", "164201.127000", "164201.131000", "164201.135000", "164201.138000", "164201.142000", "164201.145000", "164201.149000", "164201.153000", "164201.156000", "164201.168000", "164201.172000", "164201.176000", "164201.179000", "164201.183000", "164201.186000", "164201.190000", "164201.193000", "164201.197000", "164201.200000", "164201.204000", "164201.207000", "164201.211000", "164201.214000", "164201.218000", "164201.221000", "164201.224000", "164201.228000", "164201.231000", "164241.108000", "164241.112000", "164241.116000", "164241.119000", "164241.122000", "164241.126000", "164241.129000", "164241.133000", "164241.136000", "164241.139000", "164241.143000", "164241.146000", "164241.150000", "164241.153000", "164241.157000", "164241.160000", "164241.164000", "164241.168000", "164241.172000", "164241.185000", "164241.189000", "164241.192000", "164241.195000", "164241.199000", "164241.202000", "164241.206000", "164321.111000", "164321.115000", "164321.119000", "164321.122000", "164321.126000", "164321.129000", "164321.133000", "164321.137000", "164321.140000", "164321.144000", "164321.148000", "164321.152000", "164321.155000", "164321.159000", "164321.162000", "164321.172000", "164321.176000", "164321.179000", "164321.183000", "164321.186000", "164321.189000", "164321.193000", "164321.196000", "164321.200000", "164321.203000", "164321.207000", "164321.210000", "164401.107000", "164401.111000", "164401.115000", "164401.118000", "164401.122000", "164401.125000", "164401.128000", "164401.132000", "164401.135000", "164401.139000", "164401.143000", "164401.146000", "164401.150000", "164401.153000", "164401.157000", "164401.160000", "164401.164000", "164401.189000", "164401.193000", "164401.196000", "164401.199000", "164401.203000", "164401.206000", "164401.210000", "164401.213000", "164401.218000", "164401.221000", "164441.108000", "164441.112000", "164441.116000", "164441.120000", "164441.128000", "164441.131000", "164441.135000", "164441.138000", "164441.142000", "164441.152000", "164441.156000", "164441.160000", "164441.163000", "164441.167000", "164441.170000", "164441.174000", "164441.177000", "164441.181000", "164441.184000", "164441.188000", "164441.191000", "164441.195000", "164441.198000", "164441.202000", "164441.205000", "164441.209000", "164441.212000", "164521.108000", "164521.112000", "164521.115000", "164521.119000", "164521.122000", "164521.126000", "164521.129000", "164521.132000", "164521.136000", "164521.139000", "164521.143000", "164521.156000", "164521.160000", "164521.164000", "164521.167000", "164521.170000", "164521.174000", "164521.177000", "164521.181000", "164521.184000", "164521.188000", "164521.191000", "164521.201000", "164521.204000", "164521.208000", "164521.212000", "164521.215000", "164601.107000", "164601.111000", "164601.120000", "164601.124000", "164601.127000", "164601.131000", "164601.134000", "164601.138000", "164601.141000", "164601.145000", "164601.148000", "164601.152000", "164601.155000", "164601.186000", "164601.190000", "164601.193000", "164601.196000", "164601.200000", "164601.203000", "164601.207000", "164601.210000", "164601.214000", "164601.217000", "164601.221000", "164601.224000", "164601.228000", "164601.231000", "164641.109000", "164641.112000", "164641.116000", "164641.120000", "164641.124000", "164641.127000", "164641.131000", "164641.134000", "164641.138000", "164641.141000", "164641.145000", "164641.148000", "164641.152000", "164641.155000", "164641.159000", "164641.162000", "164641.166000", "164641.170000", "164641.175000", "164641.178000", "164641.182000", "164641.186000", "164641.190000", "164641.194000", "164641.197000", "164641.201000", "164721.109000", "164721.112000", "164721.116000", "164721.119000", "164721.123000", "164721.126000", "164721.130000", "164721.133000", "164721.137000", "164721.140000", "164721.144000", "164721.147000", "164721.151000", "164721.154000", "164721.158000", "164721.161000", "164721.165000", "164721.168000", "164721.172000", "164721.175000", "164721.179000", "164721.182000", "164721.186000", "164721.190000", "164721.193000", "164721.197000", "164721.211000", "164801.108000", "164801.190000", "164801.194000", "164801.197000", "164801.201000", "164801.204000", "164801.208000", "164801.212000", "164801.216000", "164801.220000", "164801.224000", "164801.229000", "164801.233000", "164801.237000", "164801.241000", "164801.245000", "164801.254000", "164801.258000", "164801.263000", "164801.267000", "164801.271000", "164801.275000", "164801.278000", "164801.281000", "164801.285000", "164801.288000", "164801.292000", "164821.108000", "164821.111000", "164821.115000", "164821.119000", "164821.122000", "164821.126000", "164821.129000", "164821.133000", "164821.137000", "164821.140000", "164821.144000", "164821.147000", "164821.151000", "164821.154000", "164901.110000", "164901.114000", "164901.120000", "164901.123000", "164901.127000", "164901.130000", "164901.134000", "164901.137000", "164901.141000", "164901.144000", "164901.148000", "164901.151000", "164901.155000", "164901.158000", "164901.167000", "164901.171000", "164901.175000", "164901.178000", "164901.182000", "164901.185000", "164901.189000", "164901.192000", "164901.195000", "164901.218000", "164901.222000", "164901.225000", "164941.109000", "164941.112000", "164941.122000", "164941.125000", "164941.129000", "164941.136000", "164941.139000", "164941.143000", "164941.147000", "164941.153000", "164941.156000", "164941.165000", "164941.168000", "164941.172000", "164941.176000", "164941.179000", "164941.183000", "164941.216000", "164941.220000", "164941.224000", "164941.227000", "164941.231000", "164941.235000", "164941.238000", "164941.242000", "164941.249000", "164941.252000", "164944.040000", "164944.044000"],
      "InstanceCreationTime": ["164021.163000", "164021.168000", "164021.172000", "164021.175000", "164021.178000", "164021.182000", "164021.186000", "164021.189000", "164021.192000", "164021.196000", "164021.199000", "164021.203000", "164021.212000", "164021.215000", "164021.225000", "164021.228000", "164021.232000", "164041.107000", "164041.111000", "164041.114000", "164041.118000", "164041.121000", "164041.132000", "164041.136000", "164041.140000", "164041.143000", "164041.147000", "164041.150000", "164041.154000", "164041.158000", "164041.161000", "164041.164000", "164041.168000", "164041.171000", "164041.175000", "164041.178000", "164041.182000", "164101.107000", "164101.111000", "164101.121000", "164101.125000", "164101.128000", "164101.131000", "164101.135000", "164101.138000", "164101.142000", "164101.145000", "164101.149000", "164101.152000", "164101.156000", "164101.165000", "164101.168000", "164101.172000", "164101.175000", "164101.179000", "164101.182000", "164101.186000", "164101.189000", "164121.107000", "164121.111000", "164121.115000", "164121.118000", "164121.121000", "164121.125000", "164121.128000", "164121.132000", "164121.135000", "164121.139000", "164121.142000", "164121.145000", "164121.149000", "164121.152000", "164121.156000", "164121.159000", "164121.163000", "164121.166000", "164121.170000", "164121.173000", "164201.109000", "164201.113000", "164201.116000", "164201.120000", "164201.124000", "164201.127000", "164201.131000", "164201.135000", "164201.138000", "164201.142000", "164201.145000", "164201.149000", "164201.153000", "164201.156000", "164201.168000", "164201.172000", "164201.176000", "164201.179000", "164201.183000", "164201.186000", "164201.190000", "164201.193000", "164201.197000", "164201.200000", "164201.204000", "164201.207000", "164201.211000", "164201.214000", "164201.218000", "164201.221000", "164201.224000", "164201.228000", "164201.231000", "164241.108000", "164241.112000", "164241.116000", "164241.119000", "164241.122000", "164241.126000", "164241.129000", "164241.133000", "164241.136000", "164241.139000", "164241.143000", "164241.146000", "164241.150000", "164241.153000", "164241.157000", "164241.160000", "164241.164000", "164241.168000", "164241.172000", "164241.185000", "164241.189000", "164241.192000", "164241.195000", "164241.199000", "164241.202000", "164241.206000", "164321.111000", "164321.115000", "164321.119000", "164321.122000", "164321.126000", "164321.129000", "164321.133000", "164321.137000", "164321.140000", "164321.144000", "164321.148000", "164321.152000", "164321.155000", "164321.159000", "164321.162000", "164321.172000", "164321.176000", "164321.179000", "164321.183000", "164321.186000", "164321.189000", "164321.193000", "164321.196000", "164321.200000", "164321.203000", "164321.207000", "164321.210000", "164401.107000", "164401.111000", "164401.115000", "164401.118000", "164401.122000", "164401.125000", "164401.128000", "164401.132000", "164401.135000", "164401.139000", "164401.143000", "164401.146000", "164401.150000", "164401.153000", "164401.157000", "164401.160000", "164401.164000", "164401.189000", "164401.193000", "164401.196000", "164401.199000", "164401.203000", "164401.206000", "164401.210000", "164401.213000", "164401.218000", "164401.221000", "164441.108000", "164441.112000", "164441.116000", "164441.120000", "164441.128000", "164441.131000", "164441.135000", "164441.138000", "164441.142000", "164441.152000", "164441.156000", "164441.160000", "164441.163000", "164441.167000", "164441.170000", "164441.174000", "164441.177000", "164441.181000", "164441.184000", "164441.188000", "164441.191000", "164441.195000", "164441.198000", "164441.202000", "164441.205000", "164441.209000", "164441.212000", "164521.108000", "164521.112000", "164521.115000", "164521.119000", "164521.122000", "164521.126000", "164521.129000", "164521.132000", "164521.136000", "164521.139000", "164521.143000", "164521.156000", "164521.160000", "164521.164000", "164521.167000", "164521.170000", "164521.174000", "164521.177000", "164521.181000", "164521.184000", "164521.188000", "164521.191000", "164521.201000", "164521.204000", "164521.208000", "164521.212000", "164521.215000", "164601.107000", "164601.111000", "164601.120000", "164601.124000", "164601.127000", "164601.131000", "164601.134000", "164601.138000", "164601.141000", "164601.145000", "164601.148000", "164601.152000", "164601.155000", "164601.186000", "164601.190000", "164601.193000", "164601.196000", "164601.200000", "164601.203000", "164601.207000", "164601.210000", "164601.214000", "164601.217000", "164601.221000", "164601.224000", "164601.228000", "164601.231000", "164641.109000", "164641.112000", "164641.116000", "164641.120000", "164641.124000", "164641.127000", "164641.131000", "164641.134000", "164641.138000", "164641.141000", "164641.145000", "164641.148000", "164641.152000", "164641.155000", "164641.159000", "164641.162000", "164641.166000", "164641.170000", "164641.175000", "164641.178000", "164641.182000", "164641.186000", "164641.190000", "164641.194000", "164641.197000", "164641.201000", "164721.109000", "164721.112000", "164721.116000", "164721.119000", "164721.123000", "164721.126000", "164721.130000", "164721.133000", "164721.137000", "164721.140000", "164721.144000", "164721.147000", "164721.151000", "164721.154000", "164721.158000", "164721.161000", "164721.165000", "164721.168000", "164721.172000", "164721.175000", "164721.179000", "164721.182000", "164721.186000", "164721.190000", "164721.193000", "164721.197000", "164721.211000", "164801.108000", "164801.190000", "164801.194000", "164801.197000", "164801.201000", "164801.204000", "164801.208000", "164801.212000", "164801.216000", "164801.220000", "164801.224000", "164801.229000", "164801.233000", "164801.237000", "164801.241000", "164801.245000", "164801.254000", "164801.258000", "164801.263000", "164801.267000", "164801.271000", "164801.275000", "164801.278000", "164801.281000", "164801.285000", "164801.288000", "164801.292000", "164821.108000", "164821.111000", "164821.115000", "164821.119000", "164821.122000", "164821.126000", "164821.129000", "164821.133000", "164821.137000", "164821.140000", "164821.144000", "164821.147000", "164821.151000", "164821.154000", "164901.110000", "164901.114000", "164901.120000", "164901.123000", "164901.127000", "164901.130000", "164901.134000", "164901.137000", "164901.141000", "164901.144000", "164901.148000", "164901.151000", "164901.155000", "164901.158000", "164901.167000", "164901.171000", "164901.175000", "164901.178000", "164901.182000", "164901.185000", "164901.189000", "164901.192000", "164901.195000", "164901.218000", "164901.222000", "164901.225000", "164941.109000", "164941.112000", "164941.122000", "164941.125000", "164941.129000", "164941.136000", "164941.139000", "164941.143000", "164941.147000", "164941.153000", "164941.156000", "164941.165000", "164941.168000", "164941.172000", "164941.176000", "164941.179000", "164941.183000", "164941.216000", "164941.220000", "164941.224000", "164941.227000", "164941.231000", "164941.235000", "164941.238000", "164941.242000", "164941.249000", "164941.252000", "164944.040000", "164944.044000"],
