{
  "AcquisitionMatrixPE": 104,
  "AcquisitionNumber": 1,
  "AcquisitionTime": "14:17:22.922500",
  "BandwidthPerPixelPhaseEncode": 17.17,
  "BaseResolution": 104,
  "BodyPartExamined": "BRAIN",
  "CoilCombinationMethod": "Sum of Squares",
  "ConsistencyInfo": "N4_VE11C_LATEST_20160120",
  "ConversionSoftware": "dcm2niix",
  "ConversionSoftwareVersion": "v1.0.20211006",
  "DerivedVendorReportedEchoSpacing": 0.000560011,
  "DeviceSerialNumber": "167006",
  "DwellTime": 2.1e-06,
  "EchoTime": 0.037,
  "EchoTime1": 0.037,
  "EchoTime2": 0.001,
  "EchoTrainLength": 104,
  "EffectiveEchoSpacing": 0.000560011,
  "FlipAngle": 52,
  "HeudiconvVersion": "0.11.3.post9+gc939bf8",
  "ImageComments": "Unaliased MB4/PE3/LB",
  "ImageOrientationPatientDICOM": [0.999445, 0.0255131, 0.0214351, -0.0188413, 0.963238, -0.267989],
  "ImageOrientationText": "Tra>Cor(-15.5)>Sag(1.6)",
  "ImageType": [
    "ORIGINAL",
    "PRIMARY",
    "P",
    "MB",
    "ND",
    "MOSAIC",
    "PHASE"
],
  "ImagingFrequency": 123.259,
  "InPlanePhaseEncodingDirectionDICOM": "COL",
  "InstitutionAddress": "Chemin Queen-Mary 4565,Montreal,District,CA,H3W 1W5",
  "InstitutionName": "IUGM",
  "InstitutionalDepartmentName": "Department",
  "MRAcquisitionType": "2D",
  "MagneticFieldStrength": 3,
  "Manufacturer": "Siemens",
  "ManufacturersModelName": "Prisma_fit",
  "MatrixCoilMode": "SENSE",
  "Modality": "MR",
  "MultibandAccelerationFactor": 4,
  "PartialFourier": 1,
  "PatientPosition": "HFS",
  "PercentPhaseFOV": 100,
  "PercentSampling": 100,
  "PhaseEncodingDirection": "j",
  "PhaseEncodingSteps": 104,
  "PhaseResolution": 1,
  "PixelBandwidth": 2290,
  "ProcedureStepDescription": "games^mariostars",
  "ProtocolName": "func_task-mariostars_run-02",
  "PulseSequenceDetails": "%CustomerSeq%\\cmrr_mbep2d_bold",
  "ReceiveCoilActiveElements": "HC1-7;NC1,2",
  "ReceiveCoilName": "HeadNeck_64",
  "ReconMatrixPE": 104,
  "RepetitionTime": 1.49,
  "SAR": 0.0657708,
  "ScanOptions": "FS",
  "ScanningSequence": "EP",
  "SequenceName": "epfid2d1_104",
  "SequenceVariant": "SK\\SS",
  "SeriesDescription": "func_task-mariostars_run-02",
  "SeriesNumber": 15,
  "ShimSetting": [641, -7224, -8722, 691, 64, 3, 38, -25],
  "SliceThickness": 2,
  "SliceTiming": [0, 0.785, 0.1, 0.8825, 0.1975, 0.98, 0.295, 1.08, 0.3925, 1.1775, 0.49, 1.275, 0.59, 1.3725, 0.6875, 0, 0.785, 0.1, 0.8825, 0.1975, 0.98, 0.295, 1.08, 0.3925, 1.1775, 0.49, 1.275, 0.59, 1.3725, 0.6875, 0, 0.785, 0.1, 0.8825, 0.1975, 0.98, 0.295, 1.08, 0.3925, 1.1775, 0.49, 1.275, 0.59, 1.3725, 0.6875, 0, 0.785, 0.1, 0.8825, 0.1975, 0.98, 0.295, 1.08, 0.3925, 1.1775, 0.49, 1.275, 0.59, 1.3725, 0.6875],
  "SoftwareVersions": "syngo MR E11",
  "SpacingBetweenSlices": 2,
  "StationName": "MRC35049",
  "TaskName": "mariostars",
  "TotalReadoutTime": 0.0576811,
  "TxRefAmp": 250.39,
  "WipMemBlock": "1ebf6e74-0b0e-43a0-b4d9-7046c7ceca80||Sequence: R017 ve11c/master r/75a17815+; Jun 28 2022 16:32:11 by eja",
  "dcmmeta_affine": [
    [-1.9988893270492554, -0.037682611495256424, 0.05496856942772865, 109.52175903320312],
    [-0.05102623626589775, 1.9264755249023438, -0.5348724126815796, -70.1108169555664],
    [0.04287010431289673, 0.5359777808189392, 1.9263670444488525, -46.121891021728516],
    [0.0, 0.0, 0.0, 1.0]
],
  "dcmmeta_reorient_transform": [
    [0.0, -1.0, 0.0, 103.0],
    [1.0, 0.0, 0.0, 0.0],
    [0.0, 0.0, 1.0, 0.0],
    [0.0, 0.0, 0.0, 1.0]
],
  "dcmmeta_shape": [104, 104, 60, 474],
  "dcmmeta_slice_dim": 2,
  "dcmmeta_version": 0.6,
  "global": {
    "const": {
      "AcquisitionMatrix": [104, 0, 0, 104],
      "AngioFlag": "N",
      "BitsAllocated": 16,
      "BitsStored": 16,
      "BodyPartExamined": "BRAIN",
      "Columns": 832,
      "EchoNumbers": 1,
      "EchoTime": 37.0,
      "EchoTrainLength": 104,
      "FlipAngle": 52.0,
      "HighBit": 15,
      "ImageOrientationPatient": [0.99944465545694, 0.02551311857802, 0.02143505211072, -0.0188413065721, 0.96323774924053, -0.2679888870918],
      "ImagePositionPatient": [-819.51968895661, -848.12679075062, 188.57501139212],
      "ImageType": [
        "ORIGINAL",
        "PRIMARY",
        "P",
        "MB",
        "ND",
        "MOSAIC"
],
      "ImagedNucleus": "1H",
      "ImagingFrequency": 123.258777,
      "InPlanePhaseEncodingDirection": "COL",
      "LargestImagePixelValue": 4095,
      "MRAcquisitionType": "2D",
      "MagneticFieldStrength": 3.0,
      "Manufacturer": "SIEMENS",
      "ManufacturerModelName": "Prisma_fit",
      "Modality": "MR",
      "NumberOfAverages": 1.0,
      "NumberOfPhaseEncodingSteps": 104,
      "PercentPhaseFieldOfView": 100.0,
      "PercentSampling": 100.0,
      "PerformedProcedureStepStartTime": "140035.372000",
      "PhotometricInterpretation": "MONOCHROME2",
      "PixelBandwidth": 2290.0,
      "PixelRepresentation": 0,
      "PixelSpacing": [2.0, 2.0],
      "ProtocolName": "func_task-mariostars_run-02",
      "RepetitionTime": 1490.0,
      "RescaleIntercept": -4096.0,
      "RescaleSlope": 2.0,
      "RescaleType": "US",
      "Rows": 832,
      "SAR": 0.06577082265765,
      "SamplesPerPixel": 1,
      "ScanOptions": "FS",
      "ScanningSequence": "EP",
      "SequenceName": "epfid2d1_104",
      "SequenceVariant": [
        "SK",
        "SS"
],
      "SeriesDescription": "func_task-mariostars_run-02",
      "SeriesNumber": 15,
      "SeriesTime": "141846.367000",
      "SliceLocation": -22.66354812292,
      "SliceThickness": 2.0,
      "SmallestImagePixelValue": 0,
      "SoftwareVersions": "syngo MR E11",
      "SpacingBetweenSlices": 2.0000000136333,
      "SpecificCharacterSet": "ISO_IR 100",
      "StudyID": "1",
      "StudyTime": "140035.291000",
      "TransmitCoilName": "Body",
      "VariableFlipAngleFlag": "N",
      "WindowCenterWidthExplanation": "Algo1",
      "dBdt": 0.0},
    "slices": {}
  },
  "time": {
    "samples": {
      "AcquisitionNumber": [1, 2, 3, 4, 5, 6, 7, 8, 9, 10, 11, 12, 13, 14, 15, 16, 17, 18, 19, 20, 21, 22, 23, 24, 25, 26, 27, 28, 29, 30, 31, 32, 33, 34, 35, 36, 37, 38, 39, 40, 41, 42, 43, 44, 45, 46, 47, 48, 49, 50, 51, 52, 53, 54, 55, 56, 57, 58, 59, 60, 61, 62, 63, 64, 65, 66, 67, 68, 69, 70, 71, 72, 73, 74, 75, 76, 77, 78, 79, 80, 81, 82, 83, 84, 85, 86, 87, 88, 89, 90, 91, 92, 93, 94, 95, 96, 97, 98, 99, 100, 101, 102, 103, 104, 105, 106, 107, 108, 109, 110, 111, 112, 113, 114, 115, 116, 117, 118, 119, 120, 121, 122, 123, 124, 125, 126, 127, 128, 129, 130, 131, 132, 133, 134, 135, 136, 137, 138, 139, 140, 141, 142, 143, 144, 145, 146, 147, 148, 149, 150, 151, 152, 153, 154, 155, 156, 157, 158, 159, 160, 161, 162, 163, 164, 165, 166, 167, 168, 169, 170, 171, 172, 173, 174, 175, 176, 177, 178, 179, 180, 181, 182, 183, 184, 185, 186, 187, 188, 189, 190, 191, 192, 193, 194, 195, 196, 197, 198, 199, 200, 201, 202, 203, 204, 205, 206, 207, 208, 209, 210, 211, 212, 213, 214, 215, 216, 217, 218, 219, 220, 221, 222, 223, 224, 225, 226, 227, 228, 229, 230, 231, 232, 233, 234, 235, 236, 237, 238, 239, 240, 241, 242, 243, 244, 245, 246, 247, 248, 249, 250, 251, 252, 253, 254, 255, 256, 257, 258, 259, 260, 261, 262, 263, 264, 265, 266, 267, 268, 269, 270, 271, 272, 273, 274, 275, 276, 277, 278, 279, 280, 281, 282, 283, 284, 285, 286, 287, 288, 289, 290, 291, 292, 293, 294, 295, 296, 297, 298, 299, 300, 301, 302, 303, 304, 305, 306, 307, 308, 309, 310, 311, 312, 313, 314, 315, 316, 317, 318, 319, 320, 321, 322, 323, 324, 325, 326, 327, 328, 329, 330, 331, 332, 333, 334, 335, 336, 337, 338, 339, 340, 341, 342, 343, 344, 345, 346, 347, 348, 349, 350, 351, 352, 353, 354, 355, 356, 357, 358, 359, 360, 361, 362, 363, 364, 365, 366, 367, 368, 369, 370, 371, 372, 373, 374, 375, 376, 377, 378, 379, 380, 381, 382, 383, 384, 385, 386, 387, 388, 389, 390, 391, 392, 393, 394, 395, 396, 397, 398, 399, 400, 401, 402, 403, 404, 405, 406, 407, 408, 409, 410, 411, 412, 413, 414, 415, 416, 417, 418, 419, 420, 421, 422, 423, 424, 425, 426, 427, 428, 429, 430, 431, 432, 433, 434, 435, 436, 437, 438, 439, 440, 441, 442, 443, 444, 445, 446, 447, 448, 449, 450, 451, 452, 453, 454, 455, 456, 457, 458, 459, 460, 461, 462, 463, 464, 465, 466, 467, 468, 469, 470, 471, 472, 473, 474],
      "AcquisitionTime": ["141722.922500", "141724.412500", "141725.902500", "141727.392500", "141728.882500", "141730.372500", "141731.862500", "141733.352500", "141734.842500", "141736.332500", "141737.822500", "141739.312500", "141740.802500", "141742.292500", "141743.782500", "141745.272500", "141746.762500", "141748.252500", "141749.742500", "141751.232500", "141752.722500", "141754.212500", "141755.702500", "141757.192500", "141758.682500", "141800.172500", "141801.662500", "141803.152500", "141804.642500", "141806.132500", "141807.622500", "141809.112500", "141810.602500", "141812.092500", "141813.582500", "141815.072500", "141816.562500", "141818.052500", "141819.542500", "141821.032500", "141822.522500", "141824.012500", "141825.502500", "141826.992500", "141828.482500", "141829.972500", "141831.462500", "141832.952500", "141834.442500", "141835.932500", "141837.422500", "141838.912500", "141840.402500", "141841.892500", "141843.382500", "141844.872500", "141846.362500", "141847.852500", "141849.342500", "141850.832500", "141852.322500", "141853.812500", "141855.302500", "141856.792500", "141858.282500", "141859.772500", "141901.262500", "141902.752500", "141904.242500", "141905.732500", "141907.222500", "141908.712500", "141910.202500", "141911.692500", "141913.182500", "141914.672500", "141916.162500", "141917.652500", "141919.142500", "141920.632500", "141922.122500", "141923.612500", "141925.102500", "141926.592500", "141928.082500", "141929.572500", "141931.062500", "141932.552500", "141934.042500", "141935.532500", "141937.022500", "141938.512500", "141940.002500", "141941.492500", "141942.982500", "141944.472500", "141945.962500", "141947.452500", "141948.942500", "141950.432500", "141951.922500", "141953.412500", "141954.902500", "141956.392500", "141957.882500", "141959.372500", "142000.862500", "142002.352500", "142003.842500", "142005.332500", "142006.822500", "142008.312500", "142009.802500", "142011.292500", "142012.782500", "142014.272500", "142015.762500", "142017.252500", "142018.742500", "142020.232500", "142021.722500", "142023.212500", "142024.702500", "142026.192500", "142027.682500", "142029.172500", "142030.662500", "142032.152500", "142033.642500", "142035.132500", "142036.622500", "142038.112500", "142039.602500", "142041.092500", "142042.582500", "142044.072500", "142045.562500", "142047.052500", "142048.542500", "142050.032500", "142051.522500", "142053.012500", "142054.502500", "142055.992500", "142057.482500", "142058.972500", "142100.462500", "142101.952500", "142103.442500", "142104.932500", "142106.422500", "142107.912500", "142109.402500", "142110.892500", "142112.382500", "142113.872500", "142115.362500", "142116.852500", "142118.342500", "142119.832500", "142121.322500", "142122.812500", "142124.302500", "142125.792500", "142127.282500", "142128.772500", "142130.262500", "142131.752500", "142133.242500", "142134.732500", "142136.222500", "142137.712500", "142139.202500", "142140.692500", "142142.182500", "142143.672500", "142145.162500", "142146.652500", "142148.142500", "142149.632500", "142151.122500", "142152.612500", "142154.102500", "142155.592500", "142157.082500", "142158.572500", "142200.062500", "142201.552500", "142203.042500", "142204.532500", "142206.022500", "142207.512500", "142209.002500", "142210.492500", "142211.982500", "142213.472500", "142214.962500", "142216.452500", "142217.942500", "142219.432500", "142220.922500", "142222.412500", "142223.902500", "142225.392500", "142226.882500", "142228.372500", "142229.862500", "142231.352500", "142232.842500", "142234.332500", "142235.822500", "142237.312500", "142238.802500", "142240.292500", "142241.782500", "142243.272500", "142244.762500", "142246.252500", "142247.742500", "142249.232500", "142250.722500", "142252.212500", "142253.702500", "142255.192500", "142256.682500", "142258.172500", "142259.662500", "142301.152500", "142302.642500", "142304.132500", "142305.622500", "142307.112500", "142308.602500", "142310.092500", "142311.582500", "142313.072500", "142314.562500", "142316.052500", "142317.542500", "142319.032500", "142320.522500", "142322.012500", "142323.502500", "142324.992500", "142326.482500", "142327.972500", "142329.462500", "142330.952500", "142332.442500", "142333.932500", "142335.422500", "142336.912500", "142338.402500", "142339.892500", "142341.382500", "142342.872500", "142344.362500", "142345.852500", "142347.342500", "142348.832500", "142350.322500", "142351.812500", "142353.302500", "142354.792500", "142356.282500", "142357.772500", "142359.262500", "142400.752500", "142402.242500", "142403.732500", "142405.222500", "142406.712500", "142408.202500", "142409.692500", "142411.182500", "142412.672500", "142414.162500", "142415.652500", "142417.142500", "142418.632500", "142420.122500", "142421.612500", "142423.102500", "142424.592500", "142426.082500", "142427.572500", "142429.062500", "142430.552500", "142432.042500", "142433.532500", "142435.022500", "142436.512500", "142438.002500", "142439.492500", "142440.982500", "142442.472500", "142443.962500", "142445.452500", "142446.942500", "142448.432500", "142449.922500", "142451.412500", "142452.902500", "142454.392500", "142455.882500", "142457.372500", "142458.862500", "142500.352500", "142501.842500", "142503.332500", "142504.822500", "142506.312500", "142507.802500", "142509.292500", "142510.782500", "142512.272500", "142513.762500", "142515.252500", "142516.742500", "142518.232500", "142519.722500", "142521.212500", "142522.702500", "142524.192500", "142525.682500", "142527.172500", "142528.662500", "142530.152500", "142531.642500", "142533.132500", "142534.622500", "142536.112500", "142537.602500", "142539.092500", "142540.582500", "142542.072500", "142543.562500", "142545.052500", "142546.542500", "142548.032500", "142549.522500", "142551.012500", "142552.502500", "142553.992500", "142555.482500", "142556.972500", "142558.462500", "142559.952500", "142601.442500", "142602.932500", "142604.422500", "142605.912500", "142607.402500", "142608.892500", "142610.382500", "142611.872500", "142613.362500", "142614.852500", "142616.342500", "142617.832500", "142619.322500", "142620.812500", "142622.302500", "142623.792500", "142625.282500", "142626.772500", "142628.262500", "142629.752500", "142631.242500", "142632.732500", "142634.222500", "142635.712500", "142637.202500", "142638.692500", "142640.182500", "142641.672500", "142643.162500", "142644.652500", "142646.142500", "142647.632500", "142649.122500", "142650.612500", "142652.102500", "142653.592500", "142655.082500", "142656.572500", "142658.062500", "142659.552500", "142701.042500", "142702.532500", "142704.022500", "142705.512500", "142707.002500", "142708.492500", "142709.982500", "142711.472500", "142712.962500", "142714.452500", "142715.942500", "142717.432500", "142718.922500", "142720.412500", "142721.902500", "142723.392500", "142724.882500", "142726.372500", "142727.862500", "142729.352500", "142730.842500", "142732.332500", "142733.822500", "142735.312500", "142736.802500", "142738.292500", "142739.782500", "142741.272500", "142742.762500", "142744.252500", "142745.742500", "142747.232500", "142748.722500", "142750.212500", "142751.702500", "142753.192500", "142754.682500", "142756.172500", "142757.662500", "142759.152500", "142800.642500", "142802.132500", "142803.622500", "142805.112500", "142806.602500", "142808.092500", "142809.582500", "142811.072500", "142812.562500", "142814.052500", "142815.542500", "142817.032500", "142818.522500", "142820.012500", "142821.502500", "142822.992500", "142824.482500", "142825.972500", "142827.462500", "142828.952500", "142830.442500", "142831.932500", "142833.422500", "142834.912500", "142836.402500", "142837.892500", "142839.382500", "142840.872500", "142842.362500", "142843.852500", "142845.342500", "142846.832500", "142848.322500", "142849.812500", "142851.302500", "142852.792500", "142854.282500", "142855.772500", "142857.262500", "142858.752500", "142900.242500", "142901.732500", "142903.222500", "142904.712500", "142906.202500", "142907.692500"],
      "ContentTime": ["141846.369000", "141846.372000", "141846.374000", "141846.377000", "141846.379000", "141846.382000", "141846.384000", "141846.387000", "141846.389000", "141846.392000", "141846.395000", "141846.397000", "141846.400000", "141846.430000", "141846.432000", "141846.435000", "141846.437000", "141846.440000", "141846.447000", "141846.449000", "141846.452000", "141846.454000", "141846.457000", "141846.459000", "141846.462000", "141846.464000", "141846.466000", "141846.469000", "141846.471000", "141846.474000", "141846.476000", "141846.479000", "141846.481000", "141846.484000", "141906.674000", "141906.677000", "141906.680000", "141906.683000", "141906.685000", "141906.688000", "141906.691000", "141906.693000", "141906.696000", "141906.698000", "141906.701000", "141906.717000", "141906.720000", "141906.722000", "141906.724000", "141906.727000", "141906.729000", "141906.732000", "141906.734000", "141906.737000", "141926.245000", "141926.248000", "141926.251000", "141926.253000", "141926.256000", "141926.258000", "141926.261000", "141926.263000", "141926.265000", "141926.268000", "141926.270000", "141926.273000", "141926.275000", "141926.278000", "141926.280000", "141926.283000", "141926.285000", "141926.288000", "141926.290000", "141926.293000", "141946.273000", "141946.282000", "141946.285000", "141946.287000", "141946.290000", "141946.292000", "141946.295000", "141946.297000", "141946.300000", "141946.302000", "141946.305000", "141946.307000", "141946.310000", "141946.312000", "141946.315000", "141946.317000", "141946.320000", "141946.322000", "141946.325000", "141946.327000", "142026.298000", "142026.301000", "142026.303000", "142026.306000", "142026.308000", "142026.311000", "142026.313000", "142026.316000", "142026.318000", "142026.321000", "142026.323000", "142026.326000", "142026.328000", "142026.331000", "142026.333000", "142026.336000", "142026.338000", "142026.341000", "142026.343000", "142026.346000", "142026.348000", "142026.351000", "142026.354000", "142026.357000", "142026.359000", "142026.362000", "142026.365000", "142026.367000", "142106.289000", "142106.292000", "142106.294000", "142106.297000", "142106.299000", "142106.302000", "142106.304000", "142106.307000", "142106.309000", "142106.312000", "142106.314000", "142106.317000", "142106.319000", "142106.322000", "142106.324000", "142106.327000", "142106.329000", "142106.332000", "142106.334000", "142106.337000", "142106.339000", "142106.342000", "142106.344000", "142106.347000", "142106.349000", "142106.352000", "142106.354000", "142146.274000", "142146.276000", "142146.279000", "142146.281000", "142146.284000", "142146.286000", "142146.289000", "142146.292000", "142146.294000", "142146.296000", "142146.299000", "142146.301000", "142146.304000", "142146.306000", "142146.309000", "142146.311000", "142146.314000", "142146.317000", "142146.319000", "142146.322000", "142146.324000", "142146.326000", "142146.329000", "142146.332000", "142146.334000", "142146.336000", "142146.339000", "142226.293000", "142226.295000", "142226.298000", "142226.300000", "142226.303000", "142226.305000", "142226.308000", "142226.310000", "142226.313000", "142226.315000", "142226.318000", "142226.321000", "142226.323000", "142226.325000", "142226.328000", "142226.330000", "142226.333000", "142226.335000", "142226.338000", "142226.340000", "142226.343000", "142226.345000", "142226.348000", "142226.350000", "142226.353000", "142226.355000", "142226.358000", "142306.278000", "142306.281000", "142306.284000", "142306.286000", "142306.289000", "142306.291000", "142306.294000", "142306.296000", "142306.299000", "142306.301000", "142306.304000", "142306.306000", "142306.309000", "142306.311000", "142306.314000", "142306.316000", "142306.319000", "142306.321000", "142306.324000", "142306.326000", "142306.329000", "142306.331000", "142306.334000", "142306.336000", "142306.339000", "142306.341000", "142306.344000", "142346.286000", "142346.289000", "142346.292000", "142346.294000", "142346.297000", "142346.299000", "142346.302000", "142346.304000", "142346.307000", "142346.309000", "142346.311000", "142346.314000", "142346.316000", "142346.319000", "142346.321000", "142346.324000", "142346.326000", "142346.329000", "142346.331000", "142346.334000", "142346.336000", "142346.339000", "142346.341000", "142346.344000", "142346.346000", "142346.349000", "142346.351000", "142426.294000", "142426.297000", "142426.299000", "142426.302000", "142426.304000", "142426.307000", "142426.309000", "142426.312000", "142426.314000", "142426.317000", "142426.319000", "142426.321000", "142426.324000", "142426.326000", "142426.329000", "142426.331000", "142426.334000", "142426.336000", "142426.339000", "142426.341000", "142426.344000", "142426.346000", "142426.349000", "142426.351000", "142426.354000", "142426.356000", "142506.278000", "142506.281000", "142506.283000", "142506.286000", "142506.288000", "142506.291000", "142506.293000", "142506.296000", "142506.298000", "142506.301000", "142506.303000", "142506.306000", "142506.308000", "142506.311000", "142506.313000", "142506.316000", "142506.318000", "142506.321000", "142506.323000", "142506.326000", "142506.328000", "142506.331000", "142506.333000", "142506.336000", "142506.340000", "142506.342000", "142506.345000", "142546.292000", "142546.295000", "142546.297000", "142546.300000", "142546.302000", "142546.305000", "142546.307000", "142546.310000", "142546.312000", "142546.315000", "142546.317000", "142546.320000", "142546.322000", "142546.325000", "142546.327000", "142546.330000", "142546.332000", "142546.335000", "142546.337000", "142546.340000", "142546.342000", "142546.345000", "142546.347000", "142546.350000", "142546.352000", "142546.355000", "142546.357000", "142626.289000", "142626.292000", "142626.294000", "142626.297000", "142626.299000", "142626.302000", "142626.304000", "142626.307000", "142626.309000", "142626.312000", "142626.314000", "142626.317000", "142626.319000", "142626.322000", "142626.324000", "142626.327000", "142626.329000", "142626.332000", "142626.334000", "142626.337000", "142626.339000", "142626.342000", "142626.344000", "142626.347000", "142626.349000", "142626.352000", "142626.354000", "142706.280000", "142706.283000", "142706.285000", "142706.288000", "142706.290000", "142706.293000", "142706.295000", "142706.298000", "142706.300000", "142706.303000", "142706.305000", "142706.308000", "142706.310000", "142706.313000", "142706.315000", "142706.318000", "142706.320000", "142706.323000", "142706.325000", "142706.328000", "142706.330000", "142706.333000", "142706.335000", "142706.338000", "142706.340000", "142706.343000", "142706.345000", "142746.312000", "142746.315000", "142746.317000", "142746.320000", "142746.322000", "142746.325000", "142746.327000", "142746.330000", "142746.333000", "142746.335000", "142746.338000", "142746.340000", "142746.343000", "142746.345000", "142746.348000", "142746.350000", "142746.352000", "142746.355000", "142746.357000", "142746.360000", "142746.362000", "142746.365000", "142746.367000", "142746.370000", "142746.372000", "142746.375000", "142746.377000", "142826.298000", "142826.300000", "142826.303000", "142826.305000", "142826.308000", "142826.310000", "142826.313000", "142826.315000", "142826.318000", "142826.320000", "142826.323000", "142826.325000", "142826.328000", "142826.331000", "142826.333000", "142826.336000", "142826.338000", "142826.341000", "142826.343000", "142826.345000", "142826.348000", "142826.350000", "142826.353000", "142826.355000", "142826.358000", "142826.360000", "142906.722000", "142906.725000", "142906.728000", "142906.730000", "142906.733000", "142906.735000", "142906.738000", "142906.740000", "142906.742000", "142906.745000", "142906.748000", "142906.750000", "142906.752000", "142906.755000", "142906.757000", "142906.760000", "142906.763000", "142906.765000", "142906.768000", "142906.770000", "142906.773000", "142906.775000", "142906.778000", "142906.780000", "142906.783000", "142906.785000", "142906.788000", "142909.888000", "142909.890000", "142909.893000"],
