{
  "AcquisitionMatrixPE": 104,
  "AcquisitionNumber": 1,
  "AcquisitionTime": "14:04:44.595000",
  "BandwidthPerPixelPhaseEncode": 17.17,
  "BaseResolution": 104,
  "BodyPartExamined": "BRAIN",
  "CoilCombinationMethod": "Sum of Squares",
  "ConsistencyInfo": "N4_VE11C_LATEST_20160120",
  "ConversionSoftware": "dcm2niix",
  "ConversionSoftwareVersion": "v1.0.20211006",
  "DerivedVendorReportedEchoSpacing": 0.000560011,
  "DeviceSerialNumber": "167006",
  "DwellTime": 2.1e-06,
  "EchoTime": 0.037,
  "EchoTrainLength": 104,
  "EffectiveEchoSpacing": 0.000560011,
  "FlipAngle": 52,
  "HeudiconvVersion": "0.11.3.post9+gc939bf8",
  "ImageComments": "Unaliased MB4/PE3/LB",
  "ImageOrientationPatientDICOM": [0.999445, 0.0255131, 0.0214351, -0.0188413, 0.963238, -0.267989],
  "ImageOrientationText": "Tra>Cor(-15.5)>Sag(1.6)",
  "ImageType": [
    "ORIGINAL",
    "PRIMARY",
    "M",
    "MB",
    "ND",
    "MOSAIC"
],
  "ImagingFrequency": 123.259,
  "InPlanePhaseEncodingDirectionDICOM": "COL",
  "InstitutionAddress": "Chemin Queen-Mary 4565,Montreal,District,CA,H3W 1W5",
  "InstitutionName": "IUGM",
  "InstitutionalDepartmentName": "Department",
  "MRAcquisitionType": "2D",
  "MagneticFieldStrength": 3,
  "Manufacturer": "Siemens",
  "ManufacturersModelName": "Prisma_fit",
  "MatrixCoilMode": "SENSE",
  "Modality": "MR",
  "MultibandAccelerationFactor": 4,
  "PartialFourier": 1,
  "PatientPosition": "HFS",
  "PercentPhaseFOV": 100,
  "PercentSampling": 100,
  "PhaseEncodingDirection": "j",
  "PhaseEncodingSteps": 104,
  "PhaseResolution": 1,
  "PixelBandwidth": 2290,
  "ProcedureStepDescription": "games^mariostars",
  "ProtocolName": "func_task-mariostars_run-01",
  "PulseSequenceDetails": "%CustomerSeq%\\cmrr_mbep2d_bold",
  "ReceiveCoilActiveElements": "HC1-7;NC1,2",
  "ReceiveCoilName": "HeadNeck_64",
  "ReconMatrixPE": 104,
  "RepetitionTime": 1.49,
  "SAR": 0.0657708,
  "ScanOptions": "FS",
  "ScanningSequence": "EP",
  "SequenceName": "epfid2d1_104",
  "SequenceVariant": "SK\\SS",
  "SeriesDescription": "func_task-mariostars_run-01",
  "SeriesNumber": 11,
  "ShimSetting": [641, -7224, -8722, 691, 64, 3, 38, -25],
  "SliceThickness": 2,
  "SliceTiming": [0, 0.785, 0.0975, 0.8825, 0.195, 0.98, 0.295, 1.0775, 0.3925, 1.175, 0.49, 1.275, 0.5875, 1.3725, 0.685, 0, 0.785, 0.0975, 0.8825, 0.195, 0.98, 0.295, 1.0775, 0.3925, 1.175, 0.49, 1.275, 0.5875, 1.3725, 0.685, 0, 0.785, 0.0975, 0.8825, 0.195, 0.98, 0.295, 1.0775, 0.3925, 1.175, 0.49, 1.275, 0.5875, 1.3725, 0.685, 0, 0.785, 0.0975, 0.8825, 0.195, 0.98, 0.295, 1.0775, 0.3925, 1.175, 0.49, 1.275, 0.5875, 1.3725, 0.685],
  "SoftwareVersions": "syngo MR E11",
  "SpacingBetweenSlices": 2,
  "StationName": "MRC35049",
  "TaskName": "mariostars",
  "TotalReadoutTime": 0.0576811,
  "TxRefAmp": 250.39,
  "WipMemBlock": "e81db892-2105-4eef-afb6-013bfd383f8d||Sequence: R017 ve11c/master r/75a17815+; Jun 28 2022 16:32:11 by eja",
  "dcmmeta_affine": [
    [-1.9988893270492554, -0.037682611495256424, 0.05496856942772865, 109.52175903320312],
    [-0.05102623626589775, 1.9264755249023438, -0.5348724126815796, -70.1108169555664],
    [0.04287010431289673, 0.5359777808189392, 1.9263670444488525, -46.121891021728516],
    [0.0, 0.0, 0.0, 1.0]
],
  "dcmmeta_reorient_transform": [
    [0.0, -1.0, 0.0, 103.0],
    [1.0, 0.0, 0.0, 0.0],
    [0.0, 0.0, 1.0, 0.0],
    [0.0, 0.0, 0.0, 1.0]
],
  "dcmmeta_shape": [104, 104, 60, 436],
  "dcmmeta_slice_dim": 2,
  "dcmmeta_version": 0.6,
  "global": {
    "const": {
      "AcquisitionMatrix": [104, 0, 0, 104],
      "AngioFlag": "N",
      "BitsAllocated": 16,
      "BitsStored": 16,
      "BodyPartExamined": "BRAIN",
      "Columns": 832,
      "EchoNumbers": 1,
      "EchoTime": 37.0,
      "EchoTrainLength": 104,
      "FlipAngle": 52.0,
      "HighBit": 15,
      "ImageOrientationPatient": [0.99944465545694, 0.02551311857802, 0.02143505211072, -0.0188413065721, 0.96323774924053, -0.2679888870918],
      "ImagePositionPatient": [-819.51968895661, -848.12679075062, 188.57501139212],
      "ImageType": [
        "ORIGINAL",
        "PRIMARY",
        "M",
        "MB",
        "ND",
        "MOSAIC"
],
      "ImagedNucleus": "1H",
      "ImagingFrequency": 123.258769,
      "InPlanePhaseEncodingDirection": "COL",
      "MRAcquisitionType": "2D",
      "MagneticFieldStrength": 3.0,
      "Manufacturer": "SIEMENS",
      "ManufacturerModelName": "Prisma_fit",
      "Modality": "MR",
      "NumberOfAverages": 1.0,
      "NumberOfPhaseEncodingSteps": 104,
      "PercentPhaseFieldOfView": 100.0,
      "PercentSampling": 100.0,
      "PerformedProcedureStepStartTime": "140035.372000",
      "PhotometricInterpretation": "MONOCHROME2",
      "PixelBandwidth": 2290.0,
      "PixelRepresentation": 0,
      "PixelSpacing": [2.0, 2.0],
      "ProtocolName": "func_task-mariostars_run-01",
      "RepetitionTime": 1490.0,
      "Rows": 832,
      "SAR": 0.06577082265765,
      "SamplesPerPixel": 1,
      "ScanOptions": "FS",
      "ScanningSequence": "EP",
      "SequenceName": "epfid2d1_104",
      "SequenceVariant": [
        "SK",
        "SS"
],
      "SeriesDescription": "func_task-mariostars_run-01",
      "SeriesNumber": 11,
      "SeriesTime": "140536.003000",
      "SliceLocation": -22.66354812292,
      "SliceThickness": 2.0,
      "SmallestImagePixelValue": 0,
      "SoftwareVersions": "syngo MR E11",
      "SpacingBetweenSlices": 2.0000000136333,
      "SpecificCharacterSet": "ISO_IR 100",
      "StudyID": "1",
      "StudyTime": "140035.291000",
      "TransmitCoilName": "Body",
      "VariableFlipAngleFlag": "N",
      "WindowCenterWidthExplanation": "Algo1",
      "dBdt": 0.0},
    "slices": {}
  },
  "time": {
    "samples": {
      "AcquisitionNumber": [1, 2, 3, 4, 5, 6, 7, 8, 9, 10, 11, 12, 13, 14, 15, 16, 17, 18, 19, 20, 21, 22, 23, 24, 25, 26, 27, 28, 29, 30, 31, 32, 33, 34, 35, 36, 37, 38, 39, 40, 41, 42, 43, 44, 45, 46, 47, 48, 49, 50, 51, 52, 53, 54, 55, 56, 57, 58, 59, 60, 61, 62, 63, 64, 65, 66, 67, 68, 69, 70, 71, 72, 73, 74, 75, 76, 77, 78, 79, 80, 81, 82, 83, 84, 85, 86, 87, 88, 89, 90, 91, 92, 93, 94, 95, 96, 97, 98, 99, 100, 101, 102, 103, 104, 105, 106, 107, 108, 109, 110, 111, 112, 113, 114, 115, 116, 117, 118, 119, 120, 121, 122, 123, 124, 125, 126, 127, 128, 129, 130, 131, 132, 133, 134, 135, 136, 137, 138, 139, 140, 141, 142, 143, 144, 145, 146, 147, 148, 149, 150, 151, 152, 153, 154, 155, 156, 157, 158, 159, 160, 161, 162, 163, 164, 165, 166, 167, 168, 169, 170, 171, 172, 173, 174, 175, 176, 177, 178, 179, 180, 181, 182, 183, 184, 185, 186, 187, 188, 189, 190, 191, 192, 193, 194, 195, 196, 197, 198, 199, 200, 201, 202, 203, 204, 205, 206, 207, 208, 209, 210, 211, 212, 213, 214, 215, 216, 217, 218, 219, 220, 221, 222, 223, 224, 225, 226, 227, 228, 229, 230, 231, 232, 233, 234, 235, 236, 237, 238, 239, 240, 241, 242, 243, 244, 245, 246, 247, 248, 249, 250, 251, 252, 253, 254, 255, 256, 257, 258, 259, 260, 261, 262, 263, 264, 265, 266, 267, 268, 269, 270, 271, 272, 273, 274, 275, 276, 277, 278, 279, 280, 281, 282, 283, 284, 285, 286, 287, 288, 289, 290, 291, 292, 293, 294, 295, 296, 297, 298, 299, 300, 301, 302, 303, 304, 305, 306, 307, 308, 309, 310, 311, 312, 313, 314, 315, 316, 317, 318, 319, 320, 321, 322, 323, 324, 325, 326, 327, 328, 329, 330, 331, 332, 333, 334, 335, 336, 337, 338, 339, 340, 341, 342, 343, 344, 345, 346, 347, 348, 349, 350, 351, 352, 353, 354, 355, 356, 357, 358, 359, 360, 361, 362, 363, 364, 365, 366, 367, 368, 369, 370, 371, 372, 373, 374, 375, 376, 377, 378, 379, 380, 381, 382, 383, 384, 385, 386, 387, 388, 389, 390, 391, 392, 393, 394, 395, 396, 397, 398, 399, 400, 401, 402, 403, 404, 405, 406, 407, 408, 409, 410, 411, 412, 413, 414, 415, 416, 417, 418, 419, 420, 421, 422, 423, 424, 425, 426, 427, 428, 429, 430, 431, 432, 433, 434, 435, 436],
      "AcquisitionTime": ["140444.595000", "140446.085000", "140447.575000", "140449.065000", "140450.555000", "140452.045000", "140453.535000", "140455.025000", "140456.515000", "140458.005000", "140459.495000", "140500.985000", "140502.475000", "140503.965000", "140505.455000", "140506.945000", "140508.435000", "140509.925000", "140511.415000", "140512.905000", "140514.395000", "140515.885000", "140517.375000", "140518.865000", "140520.355000", "140521.845000", "140523.335000", "140524.825000", "140526.315000", "140527.805000", "140529.295000", "140530.785000", "140532.275000", "140533.765000", "140535.255000", "140536.745000", "140538.235000", "140539.725000", "140541.215000", "140542.705000", "140544.195000", "140545.685000", "140547.175000", "140548.665000", "140550.155000", "140551.645000", "140553.135000", "140554.625000", "140556.115000", "140557.605000", "140559.095000", "140600.585000", "140602.075000", "140603.565000", "140605.055000", "140606.545000", "140608.035000", "140609.525000", "140611.015000", "140612.505000", "140613.995000", "140615.485000", "140616.975000", "140618.465000", "140619.955000", "140621.445000", "140622.935000", "140624.425000", "140625.915000", "140627.405000", "140628.895000", "140630.385000", "140631.875000", "140633.365000", "140634.855000", "140636.345000", "140637.835000", "140639.325000", "140640.815000", "140642.305000", "140643.795000", "140645.285000", "140646.775000", "140648.265000", "140649.755000", "140651.245000", "140652.735000", "140654.225000", "140655.715000", "140657.205000", "140658.695000", "140700.185000", "140701.675000", "140703.165000", "140704.655000", "140706.145000", "140707.635000", "140709.125000", "140710.615000", "140712.105000", "140713.595000", "140715.085000", "140716.575000", "140718.065000", "140719.555000", "140721.045000", "140722.535000", "140724.025000", "140725.515000", "140727.005000", "140728.495000", "140729.985000", "140731.475000", "140732.965000", "140734.455000", "140735.945000", "140737.435000", "140738.925000", "140740.415000", "140741.905000", "140743.395000", "140744.885000", "140746.375000", "140747.865000", "140749.355000", "140750.845000", "140752.335000", "140753.825000", "140755.315000", "140756.805000", "140758.295000", "140759.785000", "140801.275000", "140802.765000", "140804.255000", "140805.745000", "140807.235000", "140808.725000", "140810.215000", "140811.705000", "140813.195000", "140814.685000", "140816.175000", "140817.665000", "140819.155000", "140820.645000", "140822.135000", "140823.625000", "140825.115000", "140826.605000", "140828.095000", "140829.585000", "140831.075000", "140832.565000", "140834.055000", "140835.545000", "140837.035000", "140838.525000", "140840.015000", "140841.505000", "140842.995000", "140844.485000", "140845.975000", "140847.465000", "140848.955000", "140850.445000", "140851.935000", "140853.425000", "140854.915000", "140856.405000", "140857.895000", "140859.385000", "140900.875000", "140902.365000", "140903.855000", "140905.345000", "140906.835000", "140908.325000", "140909.815000", "140911.305000", "140912.795000", "140914.285000", "140915.775000", "140917.265000", "140918.755000", "140920.245000", "140921.735000", "140923.225000", "140924.715000", "140926.205000", "140927.695000", "140929.185000", "140930.675000", "140932.165000", "140933.655000", "140935.145000", "140936.635000", "140938.125000", "140939.615000", "140941.105000", "140942.595000", "140944.085000", "140945.575000", "140947.065000", "140948.555000", "140950.045000", "140951.535000", "140953.025000", "140954.515000", "140956.005000", "140957.495000", "140958.985000", "141000.475000", "141001.965000", "141003.455000", "141004.945000", "141006.435000", "141007.925000", "141009.415000", "141010.905000", "141012.395000", "141013.885000", "141015.375000", "141016.865000", "141018.355000", "141019.845000", "141021.335000", "141022.825000", "141024.315000", "141025.805000", "141027.295000", "141028.785000", "141030.275000", "141031.765000", "141033.255000", "141034.745000", "141036.235000", "141037.725000", "141039.215000", "141040.705000", "141042.195000", "141043.685000", "141045.175000", "141046.665000", "141048.155000", "141049.645000", "141051.135000", "141052.625000", "141054.115000", "141055.605000", "141057.095000", "141058.585000", "141100.075000", "141101.565000", "141103.055000", "141104.545000", "141106.035000", "141107.525000", "141109.015000", "141110.505000", "141111.995000", "141113.485000", "141114.975000", "141116.465000", "141117.955000", "141119.445000", "141120.935000", "141122.425000", "141123.915000", "141125.405000", "141126.895000", "141128.385000", "141129.875000", "141131.365000", "141132.855000", "141134.345000", "141135.835000", "141137.325000", "141138.815000", "141140.305000", "141141.795000", "141143.285000", "141144.775000", "141146.265000", "141147.755000", "141149.245000", "141150.735000", "141152.225000", "141153.715000", "141155.205000", "141156.695000", "141158.185000", "141159.675000", "141201.165000", "141202.655000", "141204.145000", "141205.635000", "141207.125000", "141208.615000", "141210.105000", "141211.595000", "141213.085000", "141214.575000", "141216.065000", "141217.555000", "141219.045000", "141220.535000", "141222.025000", "141223.515000", "141225.005000", "141226.495000", "141227.985000", "141229.475000", "141230.965000", "141232.455000", "141233.945000", "141235.435000", "141236.925000", "141238.415000", "141239.905000", "141241.395000", "141242.885000", "141244.375000", "141245.865000", "141247.355000", "141248.845000", "141250.335000", "141251.825000", "141253.315000", "141254.805000", "141256.295000", "141257.785000", "141259.275000", "141300.765000", "141302.255000", "141303.745000", "141305.235000", "141306.725000", "141308.215000", "141309.705000", "141311.195000", "141312.685000", "141314.175000", "141315.665000", "141317.155000", "141318.645000", "141320.135000", "141321.625000", "141323.115000", "141324.605000", "141326.095000", "141327.585000", "141329.075000", "141330.565000", "141332.055000", "141333.545000", "141335.035000", "141336.525000", "141338.015000", "141339.505000", "141340.995000", "141342.485000", "141343.975000", "141345.465000", "141346.955000", "141348.445000", "141349.935000", "141351.425000", "141352.915000", "141354.405000", "141355.895000", "141357.385000", "141358.875000", "141400.365000", "141401.855000", "141403.345000", "141404.835000", "141406.325000", "141407.815000", "141409.305000", "141410.795000", "141412.285000", "141413.775000", "141415.265000", "141416.755000", "141418.245000", "141419.735000", "141421.225000", "141422.715000", "141424.205000", "141425.695000", "141427.185000", "141428.675000", "141430.165000", "141431.655000", "141433.145000", "141434.635000", "141436.125000", "141437.615000", "141439.105000", "141440.595000", "141442.085000", "141443.575000", "141445.065000", "141446.555000", "141448.045000", "141449.535000", "141451.025000", "141452.515000", "141454.005000", "141455.495000", "141456.985000", "141458.475000", "141459.965000", "141501.455000", "141502.945000", "141504.435000", "141505.925000", "141507.415000", "141508.905000", "141510.395000", "141511.885000", "141513.375000", "141514.865000", "141516.355000", "141517.845000", "141519.335000", "141520.825000", "141522.315000", "141523.805000", "141525.295000", "141526.785000", "141528.275000", "141529.765000", "141531.255000", "141532.745000"],
      "ContentTime": ["140536.006000", "140536.010000", "140536.013000", "140555.977000", "140555.981000", "140555.984000", "140555.995000", "140555.998000", "140556.002000", "140556.006000", "140556.009000", "140556.012000", "140556.015000", "140556.019000", "140556.022000", "140556.025000", "140556.029000", "140556.032000", "140556.035000", "140556.039000", "140556.042000", "140556.045000", "140556.049000", "140615.976000", "140615.980000", "140616.000000", "140616.004000", "140616.007000", "140616.010000", "140616.014000", "140616.017000", "140616.020000", "140616.024000", "140616.027000", "140616.030000", "140616.034000", "140616.038000", "140616.041000", "140616.045000", "140616.049000", "140616.053000", "140616.057000", "140616.060000", "140635.976000", "140635.980000", "140635.983000", "140635.987000", "140635.990000", "140635.993000", "140635.997000", "140636.001000", "140636.004000", "140636.008000", "140636.011000", "140636.014000", "140636.017000", "140636.021000", "140636.024000", "140636.027000", "140636.031000", "140636.034000", "140636.037000", "140636.040000", "140636.044000", "140655.976000", "140655.980000", "140655.983000", "140655.986000", "140655.990000", "140655.993000", "140655.996000", "140656.000000", "140656.004000", "140656.007000", "140656.010000", "140656.013000", "140656.017000", "140656.021000", "140656.024000", "140656.028000", "140656.031000", "140656.035000", "140656.038000", "140656.042000", "140735.976000", "140735.980000", "140735.983000", "140735.986000", "140735.990000", "140735.993000", "140735.996000", "140736.000000", "140736.004000", "140736.012000", "140736.015000", "140736.019000", "140736.022000", "140736.026000", "140736.029000", "140736.032000", "140736.036000", "140736.039000", "140736.042000", "140736.046000", "140736.049000", "140736.053000", "140736.056000", "140736.059000", "140736.062000", "140736.066000", "140736.069000", "140736.072000", "140736.076000", "140736.079000", "140815.977000", "140815.981000", "140815.985000", "140815.988000", "140815.992000", "140815.995000", "140816.000000", "140816.003000", "140816.007000", "140816.023000", "140816.027000", "140816.031000", "140816.034000", "140816.038000", "140816.041000", "140816.045000", "140816.049000", "140816.052000", "140816.056000", "140816.060000", "140816.063000", "140816.067000", "140816.071000", "140816.075000", "140816.079000", "140816.082000", "140816.087000", "140855.976000", "140855.980000", "140855.983000", "140855.986000", "140855.990000", "140855.993000", "140855.996000", "140856.001000", "140856.004000", "140856.007000", "140856.011000", "140856.014000", "140856.017000", "140856.021000", "140856.024000", "140856.027000", "140856.030000", "140856.034000", "140856.037000", "140856.040000", "140856.044000", "140856.047000", "140856.050000", "140856.053000", "140856.057000", "140856.060000", "140856.063000", "140935.976000", "140935.980000", "140935.983000", "140935.986000", "140935.990000", "140935.993000", "140935.997000", "140936.001000", "140936.005000", "140936.008000", "140936.011000", "140936.014000", "140936.018000", "140936.021000", "140936.024000", "140936.028000", "140936.031000", "140936.034000", "140936.038000", "140936.041000", "140936.044000", "140936.047000", "140936.051000", "140936.054000", "140936.057000", "140936.061000", "140936.064000", "141015.976000", "141015.980000", "141015.983000", "141015.986000", "141015.990000", "141015.993000", "141015.996000", "141016.001000", "141016.004000", "141016.007000", "141016.010000", "141016.014000", "141016.017000", "141016.035000", "141016.038000", "141016.042000", "141016.046000", "141016.049000", "141016.052000", "141016.056000", "141016.059000", "141016.062000", "141016.065000", "141016.069000", "141016.072000", "141016.075000", "141016.078000", "141055.976000", "141055.980000", "141055.983000", "141055.987000", "141055.990000", "141055.993000", "141055.997000", "141056.001000", "141056.005000", "141056.008000", "141056.011000", "141056.015000", "141056.018000", "141056.021000", "141056.025000", "141056.028000", "141056.039000", "141056.042000", "141056.045000", "141056.049000", "141056.052000", "141056.055000", "141056.058000", "141056.062000", "141056.065000", "141056.069000", "141135.976000", "141135.980000", "141135.984000", "141135.987000", "141135.991000", "141135.994000", "141135.998000", "141136.002000", "141136.005000", "141136.008000", "141136.012000", "141136.015000", "141136.018000", "141136.022000", "141136.025000", "141136.028000", "141136.032000", "141136.035000", "141136.038000", "141136.041000", "141136.045000", "141136.048000", "141136.051000", "141136.055000", "141136.058000", "141136.061000", "141136.064000", "141215.976000", "141215.980000", "141215.983000", "141215.987000", "141215.990000", "141215.993000", "141215.997000", "141216.001000", "141216.004000", "141216.007000", "141216.011000", "141216.014000", "141216.017000", "141216.021000", "141216.024000", "141216.027000", "141216.031000", "141216.034000", "141216.037000", "141216.040000", "141216.044000", "141216.047000", "141216.050000", "141216.054000", "141216.057000", "141216.060000", "141216.064000", "141255.977000", "141255.981000", "141255.984000", "141255.988000", "141255.991000", "141255.994000", "141255.998000", "141256.002000", "141256.005000", "141256.009000", "141256.012000", "141256.015000", "141256.019000", "141256.022000", "141256.025000", "141256.029000", "141256.032000", "141256.044000", "141256.047000", "141256.051000", "141256.054000", "141256.058000", "141256.061000", "141256.065000", "141256.069000", "141256.075000", "141256.079000", "141335.977000", "141335.980000", "141335.984000", "141335.987000", "141335.991000", "141335.994000", "141335.997000", "141336.002000", "141336.005000", "141336.009000", "141336.012000", "141336.017000", "141336.021000", "141336.024000", "141336.028000", "141336.031000", "141336.035000", "141336.038000", "141336.042000", "141336.047000", "141336.050000", "141336.053000", "141336.057000", "141336.061000", "141336.064000", "141336.068000", "141336.071000", "141415.976000", "141415.980000", "141415.984000", "141415.987000", "141415.991000", "141415.994000", "141415.997000", "141416.002000", "141416.006000", "141416.009000", "141416.012000", "141416.016000", "141416.019000", "141416.023000", "141416.026000", "141416.029000", "141416.033000", "141416.036000", "141416.039000", "141416.043000", "141416.046000", "141416.051000", "141416.055000", "141416.058000", "141416.062000", "141416.065000", "141416.069000", "141455.977000", "141455.981000", "141455.985000", "141455.988000", "141455.991000", "141455.995000", "141455.998000", "141456.012000", "141456.015000", "141456.018000", "141456.022000", "141456.025000", "141456.028000", "141456.031000", "141456.035000", "141456.038000", "141456.041000", "141456.045000", "141456.048000", "141456.051000", "141456.055000", "141456.058000", "141456.061000", "141456.065000", "141456.068000", "141456.071000", "141535.232000", "141535.235000", "141535.239000", "141535.242000", "141535.246000", "141535.249000", "141535.253000", "141535.256000", "141535.260000", "141535.263000", "141535.266000", "141535.270000", "141535.273000", "141535.277000", "141535.280000", "141535.283000", "141535.287000", "141535.290000", "141535.293000", "141535.297000", "141535.300000", "141535.303000", "141535.307000", "141535.310000", "141535.313000", "141535.317000", "141535.320000"],
