{
  "AcquisitionMatrixPE": 104,
  "AcquisitionNumber": 1,
  "AcquisitionTime": "17:34:53.362500",
  "BandwidthPerPixelPhaseEncode": 17.17,
  "BaseResolution": 104,
  "BodyPartExamined": "BRAIN",
  "CoilCombinationMethod": "Sum of Squares",
  "ConsistencyInfo": "N4_VE11C_LATEST_20160120",
  "ConversionSoftware": "dcm2niix",
  "ConversionSoftwareVersion": "v1.0.20220505",
  "DerivedVendorReportedEchoSpacing": 0.000560011,
  "DeviceSerialNumber": "167006",
  "DwellTime": 2.1e-06,
  "EchoTime": 0.037,
  "EchoTime1": 0.037,
  "EchoTime2": 0.001,
  "EchoTrainLength": 104,
  "EffectiveEchoSpacing": 0.000560011,
  "FlipAngle": 52,
  "HeudiconvVersion": "0.5.3.post811+g6206e14",
  "ImageComments": "Unaliased MB4/PE3/LB",
  "ImageOrientationPatientDICOM": [0.999923, -0.00879741, 0.00872216, 0.0113442, 0.933144, -0.359324],
  "ImageOrientationText": "Tra>Cor(-21.1)>Sag(0.3)",
  "ImageType": [
    "ORIGINAL",
    "PRIMARY",
    "P",
    "MB",
    "ND",
    "MOSAIC",
    "PHASE"
],
  "ImagingFrequency": 123.26,
  "InPlanePhaseEncodingDirectionDICOM": "COL",
  "InstitutionAddress": "Chemin Queen-Mary 4565,Montreal,District,CA,H3W 1W5",
  "InstitutionName": "IUGM",
  "InstitutionalDepartmentName": "Department",
  "MRAcquisitionType": "2D",
  "MagneticFieldStrength": 3,
  "Manufacturer": "Siemens",
  "ManufacturersModelName": "Prisma_fit",
  "MatrixCoilMode": "SENSE",
  "Modality": "MR",
  "MultibandAccelerationFactor": 4,
  "PartialFourier": 1,
  "PatientPosition": "HFS",
  "PercentPhaseFOV": 100,
  "PercentSampling": 100,
  "PhaseEncodingDirection": "j",
  "PhaseEncodingSteps": 104,
  "PhaseResolution": 1,
  "PixelBandwidth": 2290,
  "ProcedureStepDescription": "games^mariostars",
  "ProtocolName": "func_task-mariostars_run-01",
  "PulseSequenceDetails": "%CustomerSeq%\\cmrr_mbep2d_bold",
  "ReceiveCoilActiveElements": "HC1-7;NC1,2",
  "ReceiveCoilName": "HeadNeck_64",
  "ReconMatrixPE": 104,
  "RepetitionTime": 1.49,
  "SAR": 0.0644135,
  "ScanOptions": "FS",
  "ScanningSequence": "EP",
  "SequenceName": "epfid2d1_104",
  "SequenceVariant": "SK\\SS",
  "SeriesDescription": "func_task-mariostars_run-01",
  "SeriesNumber": 12,
  "ShimSetting": [600, -7242, -8807, 471, 11, -283, 1, 27],
  "SliceThickness": 2,
  "SliceTiming": [0, 0.7825, 0.0975, 0.88, 0.195, 0.9775, 0.2925, 1.0775, 0.39, 1.175, 0.4875, 1.2725, 0.5875, 1.37, 0.685, 0, 0.7825, 0.0975, 0.88, 0.195, 0.9775, 0.2925, 1.0775, 0.39, 1.175, 0.4875, 1.2725, 0.5875, 1.37, 0.685, 0, 0.7825, 0.0975, 0.88, 0.195, 0.9775, 0.2925, 1.0775, 0.39, 1.175, 0.4875, 1.2725, 0.5875, 1.37, 0.685, 0, 0.7825, 0.0975, 0.88, 0.195, 0.9775, 0.2925, 1.0775, 0.39, 1.175, 0.4875, 1.2725, 0.5875, 1.37, 0.685],
  "SoftwareVersions": "syngo MR E11",
  "SpacingBetweenSlices": 2,
  "StationName": "MRC35049",
  "TaskName": "mariostars",
  "TotalReadoutTime": 0.0576811,
  "TxRefAmp": 282.326,
  "WipMemBlock": "dca0c13d-6ef7-410e-96c6-0d9a2871e8a0||Sequence: R017 ve11c/master r/75a17815+; Jun 28 2022 16:32:11 by eja",
  "dcmmeta_affine": [
    [-1.9998465776443481, 0.022688409313559532, 0.009955830872058868, 102.74142456054688],
    [0.017594829201698303, 1.8662880659103394, -0.7187899947166443, -67.89131927490234],
    [0.017444325610995293, 0.718647301197052, 1.8663444519042969, -62.61528015136719],
    [0.0, 0.0, 0.0, 1.0]
],
  "dcmmeta_reorient_transform": [
    [0.0, -1.0, 0.0, 103.0],
    [1.0, 0.0, 0.0, 0.0],
    [0.0, 0.0, 1.0, 0.0],
    [0.0, 0.0, 0.0, 1.0]
],
  "dcmmeta_shape": [104, 104, 60, 485],
  "dcmmeta_slice_dim": 2,
  "dcmmeta_version": 0.6,
  "global": {
    "const": {
      "AcquisitionMatrix": [104, 0, 0, 104],
      "AngioFlag": "N",
      "BitsAllocated": 16,
      "BitsStored": 16,
      "BodyPartExamined": "BRAIN",
      "Columns": 832,
      "EchoNumbers": 1,
      "EchoTime": 37.0,
      "EchoTrainLength": 104,
      "FlipAngle": 52.0,
      "HighBit": 15,
      "ImageOrientationPatient": [0.99992326174086, -0.008797414482, 0.00872216303166, 0.01134420497795, 0.93314405427534, -0.3593236465695],
      "ImagePositionPatient": [-841.28104745386, -797.26070995684, 266.64327106496],
      "ImageType": [
        "ORIGINAL",
        "PRIMARY",
        "P",
        "MB",
        "ND",
        "MOSAIC"
],
      "ImagedNucleus": "1H",
      "ImagingFrequency": 123.260195,
      "InPlanePhaseEncodingDirection": "COL",
      "LargestImagePixelValue": 4095,
      "MRAcquisitionType": "2D",
      "MagneticFieldStrength": 3.0,
      "Manufacturer": "SIEMENS",
      "ManufacturerModelName": "Prisma_fit",
      "Modality": "MR",
      "NumberOfAverages": 1.0,
      "NumberOfPhaseEncodingSteps": 104,
      "PercentPhaseFieldOfView": 100.0,
      "PercentSampling": 100.0,
      "PerformedProcedureStepStartTime": "170509.622000",
      "PhotometricInterpretation": "MONOCHROME2",
      "PixelBandwidth": 2290.0,
      "PixelRepresentation": 0,
      "PixelSpacing": [2.0, 2.0],
      "ProtocolName": "func_task-mariostars_run-01",
      "RepetitionTime": 1490.0,
      "RescaleIntercept": -4096.0,
      "RescaleSlope": 2.0,
      "RescaleType": "US",
      "Rows": 832,
      "SAR": 0.06441344978651,
      "SamplesPerPixel": 1,
      "ScanOptions": "FS",
      "ScanningSequence": "EP",
      "SequenceName": "epfid2d1_104",
      "SequenceVariant": [
        "SK",
        "SS"
],
      "SeriesDescription": "func_task-mariostars_run-01",
      "SeriesNumber": 12,
      "SeriesTime": "173602.693000",
      "SliceLocation": -33.519601616038,
      "SliceThickness": 2.0,
      "SmallestImagePixelValue": 0,
      "SoftwareVersions": "syngo MR E11",
      "SpacingBetweenSlices": 1.9999999625522,
      "SpecificCharacterSet": "ISO_IR 100",
      "StudyID": "1",
      "StudyTime": "170509.530000",
      "TransmitCoilName": "Body",
      "VariableFlipAngleFlag": "N",
      "WindowCenterWidthExplanation": "Algo1",
      "dBdt": 0.0},
    "slices": {}
  },
  "time": {
    "samples": {
      "AcquisitionNumber": [1, 2, 3, 4, 5, 6, 7, 8, 9, 10, 11, 12, 13, 14, 15, 16, 17, 18, 19, 20, 21, 22, 23, 24, 25, 26, 27, 28, 29, 30, 31, 32, 33, 34, 35, 36, 37, 38, 39, 40, 41, 42, 43, 44, 45, 46, 47, 48, 49, 50, 51, 52, 53, 54, 55, 56, 57, 58, 59, 60, 61, 62, 63, 64, 65, 66, 67, 68, 69, 70, 71, 72, 73, 74, 75, 76, 77, 78, 79, 80, 81, 82, 83, 84, 85, 86, 87, 88, 89, 90, 91, 92, 93, 94, 95, 96, 97, 98, 99, 100, 101, 102, 103, 104, 105, 106, 107, 108, 109, 110, 111, 112, 113, 114, 115, 116, 117, 118, 119, 120, 121, 122, 123, 124, 125, 126, 127, 128, 129, 130, 131, 132, 133, 134, 135, 136, 137, 138, 139, 140, 141, 142, 143, 144, 145, 146, 147, 148, 149, 150, 151, 152, 153, 154, 155, 156, 157, 158, 159, 160, 161, 162, 163, 164, 165, 166, 167, 168, 169, 170, 171, 172, 173, 174, 175, 176, 177, 178, 179, 180, 181, 182, 183, 184, 185, 186, 187, 188, 189, 190, 191, 192, 193, 194, 195, 196, 197, 198, 199, 200, 201, 202, 203, 204, 205, 206, 207, 208, 209, 210, 211, 212, 213, 214, 215, 216, 217, 218, 219, 220, 221, 222, 223, 224, 225, 226, 227, 228, 229, 230, 231, 232, 233, 234, 235, 236, 237, 238, 239, 240, 241, 242, 243, 244, 245, 246, 247, 248, 249, 250, 251, 252, 253, 254, 255, 256, 257, 258, 259, 260, 261, 262, 263, 264, 265, 266, 267, 268, 269, 270, 271, 272, 273, 274, 275, 276, 277, 278, 279, 280, 281, 282, 283, 284, 285, 286, 287, 288, 289, 290, 291, 292, 293, 294, 295, 296, 297, 298, 299, 300, 301, 302, 303, 304, 305, 306, 307, 308, 309, 310, 311, 312, 313, 314, 315, 316, 317, 318, 319, 320, 321, 322, 323, 324, 325, 326, 327, 328, 329, 330, 331, 332, 333, 334, 335, 336, 337, 338, 339, 340, 341, 342, 343, 344, 345, 346, 347, 348, 349, 350, 351, 352, 353, 354, 355, 356, 357, 358, 359, 360, 361, 362, 363, 364, 365, 366, 367, 368, 369, 370, 371, 372, 373, 374, 375, 376, 377, 378, 379, 380, 381, 382, 383, 384, 385, 386, 387, 388, 389, 390, 391, 392, 393, 394, 395, 396, 397, 398, 399, 400, 401, 402, 403, 404, 405, 406, 407, 408, 409, 410, 411, 412, 413, 414, 415, 416, 417, 418, 419, 420, 421, 422, 423, 424, 425, 426, 427, 428, 429, 430, 431, 432, 433, 434, 435, 436, 437, 438, 439, 440, 441, 442, 443, 444, 445, 446, 447, 448, 449, 450, 451, 452, 453, 454, 455, 456, 457, 458, 459, 460, 461, 462, 463, 464, 465, 466, 467, 468, 469, 470, 471, 472, 473, 474, 475, 476, 477, 478, 479, 480, 481, 482, 483, 484, 485],
      "AcquisitionTime": ["173453.362500", "173454.852500", "173456.342500", "173457.832500", "173459.322500", "173500.812500", "173502.302500", "173503.792500", "173505.282500", "173506.772500", "173508.262500", "173509.752500", "173511.242500", "173512.732500", "173514.222500", "173515.712500", "173517.202500", "173518.692500", "173520.182500", "173521.672500", "173523.162500", "173524.652500", "173526.142500", "173527.632500", "173529.122500", "173530.612500", "173532.102500", "173533.592500", "173535.082500", "173536.572500", "173538.062500", "173539.552500", "173541.042500", "173542.532500", "173544.022500", "173545.512500", "173547.002500", "173548.492500", "173549.982500", "173551.472500", "173552.962500", "173554.452500", "173555.942500", "173557.432500", "173558.922500", "173600.412500", "173601.902500", "173603.392500", "173604.882500", "173606.372500", "173607.862500", "173609.352500", "173610.842500", "173612.332500", "173613.822500", "173615.312500", "173616.802500", "173618.292500", "173619.782500", "173621.272500", "173622.762500", "173624.252500", "173625.742500", "173627.232500", "173628.722500", "173630.212500", "173631.702500", "173633.192500", "173634.682500", "173636.172500", "173637.662500", "173639.152500", "173640.642500", "173642.132500", "173643.622500", "173645.112500", "173646.602500", "173648.092500", "173649.582500", "173651.072500", "173652.562500", "173654.052500", "173655.542500", "173657.032500", "173658.522500", "173700.012500", "173701.502500", "173702.992500", "173704.482500", "173705.972500", "173707.462500", "173708.952500", "173710.442500", "173711.932500", "173713.422500", "173714.912500", "173716.402500", "173717.892500", "173719.382500", "173720.872500", "173722.362500", "173723.852500", "173725.342500", "173726.832500", "173728.322500", "173729.812500", "173731.302500", "173732.792500", "173734.282500", "173735.772500", "173737.262500", "173738.752500", "173740.242500", "173741.732500", "173743.222500", "173744.712500", "173746.202500", "173747.692500", "173749.182500", "173750.672500", "173752.162500", "173753.652500", "173755.142500", "173756.632500", "173758.122500", "173759.612500", "173801.102500", "173802.592500", "173804.082500", "173805.572500", "173807.062500", "173808.552500", "173810.042500", "173811.532500", "173813.022500", "173814.512500", "173816.002500", "173817.492500", "173818.982500", "173820.472500", "173821.962500", "173823.452500", "173824.942500", "173826.432500", "173827.922500", "173829.412500", "173830.902500", "173832.392500", "173833.882500", "173835.372500", "173836.862500", "173838.352500", "173839.842500", "173841.332500", "173842.822500", "173844.312500", "173845.802500", "173847.292500", "173848.782500", "173850.272500", "173851.762500", "173853.252500", "173854.742500", "173856.232500", "173857.722500", "173859.212500", "173900.702500", "173902.192500", "173903.682500", "173905.172500", "173906.662500", "173908.152500", "173909.642500", "173911.132500", "173912.622500", "173914.112500", "173915.602500", "173917.092500", "173918.582500", "173920.072500", "173921.562500", "173923.052500", "173924.542500", "173926.032500", "173927.522500", "173929.012500", "173930.502500", "173931.992500", "173933.482500", "173934.972500", "173936.462500", "173937.952500", "173939.442500", "173940.932500", "173942.422500", "173943.912500", "173945.402500", "173946.892500", "173948.382500", "173949.872500", "173951.362500", "173952.852500", "173954.342500", "173955.832500", "173957.322500", "173958.812500", "174000.302500", "174001.792500", "174003.282500", "174004.772500", "174006.262500", "174007.752500", "174009.242500", "174010.732500", "174012.222500", "174013.712500", "174015.202500", "174016.692500", "174018.182500", "174019.672500", "174021.162500", "174022.652500", "174024.142500", "174025.632500", "174027.122500", "174028.612500", "174030.102500", "174031.592500", "174033.082500", "174034.572500", "174036.062500", "174037.552500", "174039.042500", "174040.532500", "174042.022500", "174043.512500", "174045.002500", "174046.492500", "174047.982500", "174049.472500", "174050.962500", "174052.452500", "174053.942500", "174055.432500", "174056.922500", "174058.412500", "174059.902500", "174101.392500", "174102.882500", "174104.372500", "174105.862500", "174107.352500", "174108.842500", "174110.332500", "174111.822500", "174113.312500", "174114.802500", "174116.292500", "174117.782500", "174119.272500", "174120.762500", "174122.252500", "174123.742500", "174125.232500", "174126.722500", "174128.212500", "174129.702500", "174131.192500", "174132.682500", "174134.172500", "174135.662500", "174137.152500", "174138.642500", "174140.132500", "174141.622500", "174143.112500", "174144.602500", "174146.092500", "174147.582500", "174149.072500", "174150.562500", "174152.052500", "174153.542500", "174155.032500", "174156.522500", "174158.012500", "174159.502500", "174200.992500", "174202.482500", "174203.972500", "174205.462500", "174206.952500", "174208.442500", "174209.932500", "174211.422500", "174212.912500", "174214.402500", "174215.892500", "174217.382500", "174218.872500", "174220.362500", "174221.852500", "174223.342500", "174224.832500", "174226.322500", "174227.812500", "174229.302500", "174230.792500", "174232.282500", "174233.772500", "174235.262500", "174236.752500", "174238.242500", "174239.732500", "174241.222500", "174242.712500", "174244.202500", "174245.692500", "174247.182500", "174248.672500", "174250.162500", "174251.652500", "174253.142500", "174254.632500", "174256.122500", "174257.612500", "174259.102500", "174300.592500", "174302.082500", "174303.572500", "174305.062500", "174306.552500", "174308.042500", "174309.532500", "174311.022500", "174312.512500", "174314.002500", "174315.492500", "174316.982500", "174318.472500", "174319.962500", "174321.452500", "174322.942500", "174324.432500", "174325.922500", "174327.412500", "174328.902500", "174330.392500", "174331.882500", "174333.372500", "174334.862500", "174336.352500", "174337.842500", "174339.332500", "174340.822500", "174342.312500", "174343.802500", "174345.292500", "174346.782500", "174348.272500", "174349.762500", "174351.252500", "174352.742500", "174354.232500", "174355.722500", "174357.212500", "174358.702500", "174400.192500", "174401.682500", "174403.172500", "174404.662500", "174406.152500", "174407.642500", "174409.132500", "174410.622500", "174412.112500", "174413.602500", "174415.092500", "174416.582500", "174418.072500", "174419.562500", "174421.052500", "174422.542500", "174424.032500", "174425.522500", "174427.012500", "174428.502500", "174429.992500", "174431.482500", "174432.972500", "174434.462500", "174435.952500", "174437.442500", "174438.932500", "174440.422500", "174441.912500", "174443.402500", "174444.892500", "174446.382500", "174447.872500", "174449.362500", "174450.852500", "174452.342500", "174453.832500", "174455.322500", "174456.812500", "174458.302500", "174459.792500", "174501.282500", "174502.772500", "174504.262500", "174505.752500", "174507.242500", "174508.732500", "174510.222500", "174511.712500", "174513.202500", "174514.692500", "174516.182500", "174517.672500", "174519.162500", "174520.652500", "174522.142500", "174523.632500", "174525.122500", "174526.612500", "174528.102500", "174529.592500", "174531.082500", "174532.572500", "174534.062500", "174535.552500", "174537.042500", "174538.532500", "174540.022500", "174541.512500", "174543.002500", "174544.492500", "174545.982500", "174547.472500", "174548.962500", "174550.452500", "174551.942500", "174553.432500", "174554.922500", "174556.412500", "174557.902500", "174559.392500", "174600.882500", "174602.372500", "174603.862500", "174605.352500", "174606.842500", "174608.332500", "174609.822500", "174611.312500", "174612.802500", "174614.292500", "174615.782500", "174617.272500", "174618.762500", "174620.252500", "174621.742500", "174623.232500", "174624.722500", "174626.212500", "174627.702500", "174629.192500", "174630.682500", "174632.172500", "174633.662500", "174635.152500", "174636.642500", "174638.132500", "174639.622500", "174641.112500", "174642.602500", "174644.092500", "174645.582500", "174647.072500", "174648.562500", "174650.052500", "174651.542500", "174653.032500", "174654.522500"],
      "ContentTime": ["173602.695000", "173602.698000", "173602.701000", "173602.703000", "173602.706000", "173602.708000", "173602.711000", "173602.722000", "173602.725000", "173602.733000", "173602.735000", "173602.738000", "173602.740000", "173602.743000", "173602.745000", "173602.748000", "173602.750000", "173622.687000", "173622.690000", "173622.692000", "173622.695000", "173622.697000", "173622.700000", "173622.702000", "173622.705000", "173622.707000", "173622.710000", "173622.712000", "173622.715000", "173622.717000", "173622.720000", "173622.722000", "173622.725000", "173622.727000", "173622.730000", "173622.732000", "173622.735000", "173642.686000", "173642.689000", "173642.692000", "173642.694000", "173642.696000", "173642.699000", "173642.702000", "173642.704000", "173642.707000", "173642.710000", "173642.712000", "173642.715000", "173642.717000", "173642.720000", "173642.722000", "173642.725000", "173642.727000", "173642.730000", "173642.732000", "173642.735000", "173702.702000", "173702.705000", "173702.712000", "173702.714000", "173702.717000", "173702.719000", "173702.722000", "173702.724000", "173702.727000", "173702.729000", "173702.732000", "173702.735000", "173702.737000", "173702.740000", "173702.742000", "173702.745000", "173702.747000", "173702.750000", "173702.752000", "173702.755000", "173702.758000", "173722.679000", "173722.682000", "173722.684000", "173722.687000", "173722.689000", "173722.692000", "173722.694000", "173722.697000", "173722.699000", "173722.702000", "173722.704000", "173722.707000", "173722.709000", "173722.712000", "173722.715000", "173722.717000", "173722.719000", "173722.722000", "173722.725000", "173722.727000", "173802.728000", "173802.730000", "173802.733000", "173802.735000", "173802.738000", "173802.740000", "173802.743000", "173802.745000", "173802.748000", "173802.757000", "173802.760000", "173802.762000", "173802.765000", "173802.767000", "173802.770000", "173802.772000", "173802.775000", "173802.778000", "173802.780000", "173802.782000", "173802.785000", "173802.787000", "173802.790000", "173802.792000", "173802.795000", "173802.798000", "173802.800000", "173802.802000", "173842.718000", "173842.721000", "173842.723000", "173842.726000", "173842.728000", "173842.731000", "173842.733000", "173842.736000", "173842.738000", "173842.741000", "173842.743000", "173842.746000", "173842.749000", "173842.751000", "173842.754000", "173842.756000", "173842.759000", "173842.761000", "173842.764000", "173842.766000", "173842.769000", "173842.771000", "173842.774000", "173842.777000", "173842.779000", "173842.781000", "173842.784000", "173922.714000", "173922.717000", "173922.719000", "173922.722000", "173922.725000", "173922.727000", "173922.730000", "173922.732000", "173922.735000", "173922.737000", "173922.740000", "173922.742000", "173922.745000", "173922.747000", "173922.750000", "173922.752000", "173922.755000", "173922.757000", "173922.760000", "173922.762000", "173922.765000", "173922.767000", "173922.770000", "173922.772000", "173922.775000", "173922.777000", "173922.780000", "174002.727000", "174002.730000", "174002.738000", "174002.741000", "174002.743000", "174002.752000", "174002.754000", "174002.757000", "174002.759000", "174002.762000", "174002.764000", "174002.767000", "174002.769000", "174002.772000", "174002.774000", "174002.777000", "174002.779000", "174002.782000", "174002.784000", "174002.787000", "174002.789000", "174002.792000", "174002.794000", "174002.797000", "174002.799000", "174002.802000", "174002.804000", "174042.723000", "174042.726000", "174042.728000", "174042.731000", "174042.733000", "174042.736000", "174042.739000", "174042.741000", "174042.744000", "174042.746000", "174042.749000", "174042.751000", "174042.754000", "174042.756000", "174042.759000", "174042.761000", "174042.764000", "174042.767000", "174042.769000", "174042.772000", "174042.774000", "174042.777000", "174042.779000", "174042.782000", "174042.784000", "174042.787000", "174123.199000", "174123.201000", "174123.204000", "174123.206000", "174123.209000", "174123.212000", "174123.214000", "174123.217000", "174123.219000", "174123.222000", "174123.224000", "174123.227000", "174123.229000", "174123.232000", "174123.234000", "174123.237000", "174123.240000", "174123.242000", "174123.244000", "174123.247000", "174123.250000", "174123.252000", "174123.255000", "174123.257000", "174123.260000", "174123.262000", "174123.265000", "174202.716000", "174202.719000", "174202.721000", "174202.724000", "174202.726000", "174202.729000", "174202.731000", "174202.734000", "174202.736000", "174202.739000", "174202.741000", "174202.744000", "174202.746000", "174202.749000", "174202.752000", "174202.754000", "174202.757000", "174202.759000", "174202.762000", "174202.764000", "174202.767000", "174202.769000", "174202.772000", "174202.774000", "174202.777000", "174202.779000", "174202.782000", "174242.736000", "174242.739000", "174242.741000", "174242.744000", "174242.747000", "174242.749000", "174242.752000", "174242.754000", "174242.757000", "174242.759000", "174242.762000", "174242.764000", "174242.767000", "174242.770000", "174242.772000", "174242.774000", "174242.777000", "174242.780000", "174242.782000", "174242.785000", "174242.788000", "174242.790000", "174242.793000", "174242.795000", "174242.798000", "174242.801000", "174242.803000", "174322.704000", "174322.707000", "174322.710000", "174322.712000", "174322.715000", "174322.717000", "174322.720000", "174322.723000", "174322.725000", "174322.728000", "174322.730000", "174322.733000", "174322.735000", "174322.738000", "174322.740000", "174322.743000", "174322.745000", "174322.748000", "174322.751000", "174322.753000", "174322.756000", "174322.758000", "174322.761000", "174322.763000", "174322.766000", "174322.768000", "174322.771000", "174402.718000", "174402.721000", "174402.723000", "174402.726000", "174402.729000", "174402.731000", "174402.734000", "174402.736000", "174402.739000", "174402.741000", "174402.744000", "174402.746000", "174402.749000", "174402.752000", "174402.754000", "174402.756000", "174402.759000", "174402.762000", "174402.764000", "174402.767000", "174402.769000", "174402.772000", "174402.774000", "174402.777000", "174402.779000", "174402.782000", "174402.784000", "174442.716000", "174442.719000", "174442.727000", "174442.730000", "174442.732000", "174442.735000", "174442.737000", "174442.740000", "174442.742000", "174442.745000", "174442.747000", "174442.750000", "174442.752000", "174442.755000", "174442.758000", "174442.760000", "174442.763000", "174442.765000", "174442.768000", "174442.770000", "174442.773000", "174442.775000", "174442.778000", "174442.780000", "174442.783000", "174442.785000", "174522.713000", "174522.716000", "174522.718000", "174522.721000", "174522.723000", "174522.726000", "174522.728000", "174522.731000", "174522.733000", "174522.736000", "174522.739000", "174522.741000", "174522.744000", "174522.746000", "174522.749000", "174522.751000", "174522.754000", "174522.756000", "174522.759000", "174522.761000", "174522.764000", "174522.766000", "174522.769000", "174522.772000", "174522.774000", "174522.777000", "174522.779000", "174602.749000", "174602.752000", "174602.755000", "174602.757000", "174602.760000", "174602.762000", "174602.765000", "174602.767000", "174602.770000", "174602.773000", "174602.775000", "174602.777000", "174602.780000", "174602.783000", "174602.785000", "174602.788000", "174602.790000", "174602.793000", "174602.795000", "174602.798000", "174602.800000", "174602.803000", "174602.806000", "174602.808000", "174602.811000", "174602.813000", "174602.816000", "174642.713000", "174642.716000", "174642.718000", "174642.721000", "174642.723000", "174642.726000", "174642.729000", "174642.731000", "174642.734000", "174642.736000", "174642.739000", "174642.741000", "174642.744000", "174642.746000", "174642.749000", "174642.751000", "174642.754000", "174642.756000", "174642.759000", "174642.762000", "174642.764000", "174642.767000", "174642.769000", "174642.772000", "174642.774000", "174642.777000", "174642.780000", "174657.319000", "174657.322000", "174657.325000", "174657.327000", "174657.330000", "174657.332000", "174657.335000", "174657.337000", "174657.340000", "174657.342000"],
