{
  "AcquisitionMatrixPE": 104,
  "AcquisitionNumber": 1,
  "AcquisitionTime": "18:07:11.122500",
  "BandwidthPerPixelPhaseEncode": 17.17,
  "BaseResolution": 104,
  "BodyPartExamined": "BRAIN",
  "CoilCombinationMethod": "Sum of Squares",
  "ConsistencyInfo": "N4_VE11C_LATEST_20160120",
  "ConversionSoftware": "dcm2niix",
  "ConversionSoftwareVersion": "v1.0.20220505",
  "DerivedVendorReportedEchoSpacing": 0.000560011,
  "DeviceSerialNumber": "167006",
  "DwellTime": 2.1e-06,
  "EchoTime": 0.037,
  "EchoTrainLength": 104,
  "EffectiveEchoSpacing": 0.000560011,
  "FlipAngle": 52,
  "HeudiconvVersion": "0.5.3.post811+g6206e14",
  "ImageComments": "Unaliased MB4/PE3/LB",
  "ImageOrientationPatientDICOM": [0.999923, -0.00879741, 0.00872216, 0.0113442, 0.933144, -0.359324],
  "ImageOrientationText": "Tra>Cor(-21.1)>Sag(0.3)",
  "ImageType": [
    "ORIGINAL",
    "PRIMARY",
    "M",
    "MB",
    "ND",
    "MOSAIC"
],
  "ImagingFrequency": 123.26,
  "InPlanePhaseEncodingDirectionDICOM": "COL",
  "InstitutionAddress": "Chemin Queen-Mary 4565,Montreal,District,CA,H3W 1W5",
  "InstitutionName": "IUGM",
  "InstitutionalDepartmentName": "Department",
  "MRAcquisitionType": "2D",
  "MagneticFieldStrength": 3,
  "Manufacturer": "Siemens",
  "ManufacturersModelName": "Prisma_fit",
  "MatrixCoilMode": "SENSE",
  "Modality": "MR",
  "MultibandAccelerationFactor": 4,
  "PartialFourier": 1,
  "PatientPosition": "HFS",
  "PercentPhaseFOV": 100,
  "PercentSampling": 100,
  "PhaseEncodingDirection": "j",
  "PhaseEncodingSteps": 104,
  "PhaseResolution": 1,
  "PixelBandwidth": 2290,
  "ProcedureStepDescription": "games^mariostars",
  "ProtocolName": "func_task-mariostars_run-03",
  "PulseSequenceDetails": "%CustomerSeq%\\cmrr_mbep2d_bold",
  "ReceiveCoilActiveElements": "HC1-7;NC1,2",
  "ReceiveCoilName": "HeadNeck_64",
  "ReconMatrixPE": 104,
  "RepetitionTime": 1.49,
  "SAR": 0.0644135,
  "ScanOptions": "FS",
  "ScanningSequence": "EP",
  "SequenceName": "epfid2d1_104",
  "SequenceVariant": "SK\\SS",
  "SeriesDescription": "func_task-mariostars_run-03",
  "SeriesNumber": 17,
  "ShimSetting": [600, -7242, -8807, 471, 11, -283, 1, 27],
  "SliceThickness": 2,
  "SliceTiming": [0, 0.7825, 0.0975, 0.88, 0.195, 0.98, 0.2925, 1.0775, 0.39, 1.175, 0.49, 1.2725, 0.5875, 1.37, 0.685, 0, 0.7825, 0.0975, 0.88, 0.195, 0.98, 0.2925, 1.0775, 0.39, 1.175, 0.49, 1.2725, 0.5875, 1.37, 0.685, 0, 0.7825, 0.0975, 0.88, 0.195, 0.98, 0.2925, 1.0775, 0.39, 1.175, 0.49, 1.2725, 0.5875, 1.37, 0.685, 0, 0.7825, 0.0975, 0.88, 0.195, 0.98, 0.2925, 1.0775, 0.39, 1.175, 0.49, 1.2725, 0.5875, 1.37, 0.685],
  "SoftwareVersions": "syngo MR E11",
  "SpacingBetweenSlices": 2,
  "StationName": "MRC35049",
  "TaskName": "mariostars",
  "TotalReadoutTime": 0.0576811,
  "TxRefAmp": 282.326,
  "WipMemBlock": "5385e6de-dbff-4d90-b976-14a380d6d7d2||Sequence: R017 ve11c/master r/75a17815+; Jun 28 2022 16:32:11 by eja",
  "dcmmeta_affine": [
    [-1.9998465776443481, 0.022688409313559532, 0.009955830872058868, 102.74142456054688],
    [0.017594829201698303, 1.8662880659103394, -0.7187899947166443, -67.89131927490234],
    [0.017444325610995293, 0.718647301197052, 1.8663444519042969, -62.61528015136719],
    [0.0, 0.0, 0.0, 1.0]
],
  "dcmmeta_reorient_transform": [
    [0.0, -1.0, 0.0, 103.0],
    [1.0, 0.0, 0.0, 0.0],
    [0.0, 0.0, 1.0, 0.0],
    [0.0, 0.0, 0.0, 1.0]
],
  "dcmmeta_shape": [104, 104, 60, 474],
  "dcmmeta_slice_dim": 2,
  "dcmmeta_version": 0.6,
  "global": {
    "const": {
      "AcquisitionMatrix": [104, 0, 0, 104],
      "AngioFlag": "N",
      "BitsAllocated": 16,
      "BitsStored": 16,
      "BodyPartExamined": "BRAIN",
      "Columns": 832,
      "EchoNumbers": 1,
      "EchoTime": 37.0,
      "EchoTrainLength": 104,
      "FlipAngle": 52.0,
      "HighBit": 15,
      "ImageOrientationPatient": [0.99992326174086, -0.008797414482, 0.00872216303166, 0.01134420497795, 0.93314405427534, -0.3593236465695],
      "ImagePositionPatient": [-841.28104745386, -797.26070995684, 266.64327106496],
      "ImageType": [
        "ORIGINAL",
        "PRIMARY",
        "M",
        "MB",
        "ND",
        "MOSAIC"
],
      "ImagedNucleus": "1H",
      "ImagingFrequency": 123.260212,
      "InPlanePhaseEncodingDirection": "COL",
      "MRAcquisitionType": "2D",
      "MagneticFieldStrength": 3.0,
      "Manufacturer": "SIEMENS",
      "ManufacturerModelName": "Prisma_fit",
      "Modality": "MR",
      "NumberOfAverages": 1.0,
      "NumberOfPhaseEncodingSteps": 104,
      "PercentPhaseFieldOfView": 100.0,
      "PercentSampling": 100.0,
      "PerformedProcedureStepStartTime": "170509.622000",
      "PhotometricInterpretation": "MONOCHROME2",
      "PixelBandwidth": 2290.0,
      "PixelRepresentation": 0,
      "PixelSpacing": [2.0, 2.0],
      "ProtocolName": "func_task-mariostars_run-03",
      "RepetitionTime": 1490.0,
      "Rows": 832,
      "SAR": 0.06441344978651,
      "SamplesPerPixel": 1,
      "ScanOptions": "FS",
      "ScanningSequence": "EP",
      "SequenceName": "epfid2d1_104",
      "SequenceVariant": [
        "SK",
        "SS"
],
      "SeriesDescription": "func_task-mariostars_run-03",
      "SeriesNumber": 17,
      "SeriesTime": "180818.181000",
      "SliceLocation": -33.519601616038,
      "SliceThickness": 2.0,
      "SmallestImagePixelValue": 0,
      "SoftwareVersions": "syngo MR E11",
      "SpacingBetweenSlices": 1.9999999625522,
      "SpecificCharacterSet": "ISO_IR 100",
      "StudyID": "1",
      "StudyTime": "170509.530000",
      "TransmitCoilName": "Body",
      "VariableFlipAngleFlag": "N",
      "WindowCenterWidthExplanation": "Algo1",
      "dBdt": 0.0},
    "slices": {}
  },
  "time": {
    "samples": {
      "AcquisitionNumber": [1, 2, 3, 4, 5, 6, 7, 8, 9, 10, 11, 12, 13, 14, 15, 16, 17, 18, 19, 20, 21, 22, 23, 24, 25, 26, 27, 28, 29, 30, 31, 32, 33, 34, 35, 36, 37, 38, 39, 40, 41, 42, 43, 44, 45, 46, 47, 48, 49, 50, 51, 52, 53, 54, 55, 56, 57, 58, 59, 60, 61, 62, 63, 64, 65, 66, 67, 68, 69, 70, 71, 72, 73, 74, 75, 76, 77, 78, 79, 80, 81, 82, 83, 84, 85, 86, 87, 88, 89, 90, 91, 92, 93, 94, 95, 96, 97, 98, 99, 100, 101, 102, 103, 104, 105, 106, 107, 108, 109, 110, 111, 112, 113, 114, 115, 116, 117, 118, 119, 120, 121, 122, 123, 124, 125, 126, 127, 128, 129, 130, 131, 132, 133, 134, 135, 136, 137, 138, 139, 140, 141, 142, 143, 144, 145, 146, 147, 148, 149, 150, 151, 152, 153, 154, 155, 156, 157, 158, 159, 160, 161, 162, 163, 164, 165, 166, 167, 168, 169, 170, 171, 172, 173, 174, 175, 176, 177, 178, 179, 180, 181, 182, 183, 184, 185, 186, 187, 188, 189, 190, 191, 192, 193, 194, 195, 196, 197, 198, 199, 200, 201, 202, 203, 204, 205, 206, 207, 208, 209, 210, 211, 212, 213, 214, 215, 216, 217, 218, 219, 220, 221, 222, 223, 224, 225, 226, 227, 228, 229, 230, 231, 232, 233, 234, 235, 236, 237, 238, 239, 240, 241, 242, 243, 244, 245, 246, 247, 248, 249, 250, 251, 252, 253, 254, 255, 256, 257, 258, 259, 260, 261, 262, 263, 264, 265, 266, 267, 268, 269, 270, 271, 272, 273, 274, 275, 276, 277, 278, 279, 280, 281, 282, 283, 284, 285, 286, 287, 288, 289, 290, 291, 292, 293, 294, 295, 296, 297, 298, 299, 300, 301, 302, 303, 304, 305, 306, 307, 308, 309, 310, 311, 312, 313, 314, 315, 316, 317, 318, 319, 320, 321, 322, 323, 324, 325, 326, 327, 328, 329, 330, 331, 332, 333, 334, 335, 336, 337, 338, 339, 340, 341, 342, 343, 344, 345, 346, 347, 348, 349, 350, 351, 352, 353, 354, 355, 356, 357, 358, 359, 360, 361, 362, 363, 364, 365, 366, 367, 368, 369, 370, 371, 372, 373, 374, 375, 376, 377, 378, 379, 380, 381, 382, 383, 384, 385, 386, 387, 388, 389, 390, 391, 392, 393, 394, 395, 396, 397, 398, 399, 400, 401, 402, 403, 404, 405, 406, 407, 408, 409, 410, 411, 412, 413, 414, 415, 416, 417, 418, 419, 420, 421, 422, 423, 424, 425, 426, 427, 428, 429, 430, 431, 432, 433, 434, 435, 436, 437, 438, 439, 440, 441, 442, 443, 444, 445, 446, 447, 448, 449, 450, 451, 452, 453, 454, 455, 456, 457, 458, 459, 460, 461, 462, 463, 464, 465, 466, 467, 468, 469, 470, 471, 472, 473, 474],
      "AcquisitionTime": ["180711.122500", "180712.612500", "180714.102500", "180715.592500", "180717.082500", "180718.572500", "180720.062500", "180721.552500", "180723.042500", "180724.532500", "180726.022500", "180727.512500", "180729.002500", "180730.492500", "180731.982500", "180733.472500", "180734.962500", "180736.452500", "180737.942500", "180739.432500", "180740.922500", "180742.412500", "180743.902500", "180745.392500", "180746.882500", "180748.372500", "180749.862500", "180751.352500", "180752.842500", "180754.332500", "180755.822500", "180757.312500", "180758.802500", "180800.292500", "180801.782500", "180803.272500", "180804.762500", "180806.252500", "180807.742500", "180809.232500", "180810.722500", "180812.212500", "180813.702500", "180815.192500", "180816.682500", "180818.172500", "180819.662500", "180821.152500", "180822.642500", "180824.132500", "180825.622500", "180827.112500", "180828.602500", "180830.092500", "180831.582500", "180833.072500", "180834.562500", "180836.052500", "180837.542500", "180839.032500", "180840.522500", "180842.012500", "180843.502500", "180844.992500", "180846.482500", "180847.972500", "180849.462500", "180850.952500", "180852.442500", "180853.932500", "180855.422500", "180856.912500", "180858.402500", "180859.892500", "180901.382500", "180902.872500", "180904.362500", "180905.852500", "180907.342500", "180908.832500", "180910.322500", "180911.812500", "180913.302500", "180914.792500", "180916.282500", "180917.772500", "180919.262500", "180920.752500", "180922.242500", "180923.732500", "180925.222500", "180926.712500", "180928.202500", "180929.692500", "180931.182500", "180932.672500", "180934.162500", "180935.652500", "180937.142500", "180938.632500", "180940.122500", "180941.612500", "180943.102500", "180944.592500", "180946.082500", "180947.572500", "180949.062500", "180950.552500", "180952.042500", "180953.532500", "180955.022500", "180956.512500", "180958.002500", "180959.492500", "181000.982500", "181002.472500", "181003.962500", "181005.452500", "181006.942500", "181008.432500", "181009.922500", "181011.412500", "181012.902500", "181014.392500", "181015.882500", "181017.372500", "181018.862500", "181020.352500", "181021.842500", "181023.332500", "181024.822500", "181026.312500", "181027.802500", "181029.292500", "181030.782500", "181032.272500", "181033.762500", "181035.252500", "181036.742500", "181038.232500", "181039.722500", "181041.212500", "181042.702500", "181044.192500", "181045.682500", "181047.172500", "181048.662500", "181050.152500", "181051.642500", "181053.132500", "181054.622500", "181056.112500", "181057.602500", "181059.092500", "181100.582500", "181102.072500", "181103.562500", "181105.052500", "181106.542500", "181108.032500", "181109.522500", "181111.012500", "181112.502500", "181113.992500", "181115.482500", "181116.972500", "181118.462500", "181119.952500", "181121.442500", "181122.932500", "181124.422500", "181125.912500", "181127.402500", "181128.892500", "181130.382500", "181131.872500", "181133.362500", "181134.852500", "181136.342500", "181137.832500", "181139.322500", "181140.812500", "181142.302500", "181143.792500", "181145.282500", "181146.772500", "181148.262500", "181149.752500", "181151.242500", "181152.732500", "181154.222500", "181155.712500", "181157.202500", "181158.692500", "181200.182500", "181201.672500", "181203.162500", "181204.652500", "181206.142500", "181207.632500", "181209.122500", "181210.612500", "181212.102500", "181213.592500", "181215.082500", "181216.572500", "181218.062500", "181219.552500", "181221.042500", "181222.532500", "181224.022500", "181225.512500", "181227.002500", "181228.492500", "181229.982500", "181231.472500", "181232.962500", "181234.452500", "181235.942500", "181237.432500", "181238.922500", "181240.412500", "181241.902500", "181243.392500", "181244.882500", "181246.372500", "181247.862500", "181249.352500", "181250.842500", "181252.332500", "181253.822500", "181255.312500", "181256.802500", "181258.292500", "181259.782500", "181301.272500", "181302.762500", "181304.252500", "181305.742500", "181307.232500", "181308.722500", "181310.212500", "181311.702500", "181313.192500", "181314.682500", "181316.172500", "181317.662500", "181319.152500", "181320.642500", "181322.132500", "181323.622500", "181325.112500", "181326.602500", "181328.092500", "181329.582500", "181331.072500", "181332.562500", "181334.052500", "181335.542500", "181337.032500", "181338.522500", "181340.012500", "181341.502500", "181342.992500", "181344.482500", "181345.972500", "181347.462500", "181348.952500", "181350.442500", "181351.932500", "181353.422500", "181354.912500", "181356.402500", "181357.892500", "181359.382500", "181400.872500", "181402.362500", "181403.852500", "181405.342500", "181406.832500", "181408.322500", "181409.812500", "181411.302500", "181412.792500", "181414.282500", "181415.772500", "181417.262500", "181418.752500", "181420.242500", "181421.732500", "181423.222500", "181424.712500", "181426.202500", "181427.692500", "181429.182500", "181430.672500", "181432.162500", "181433.652500", "181435.142500", "181436.632500", "181438.122500", "181439.612500", "181441.102500", "181442.592500", "181444.082500", "181445.572500", "181447.062500", "181448.552500", "181450.042500", "181451.532500", "181453.022500", "181454.512500", "181456.002500", "181457.492500", "181458.982500", "181500.472500", "181501.962500", "181503.452500", "181504.942500", "181506.432500", "181507.922500", "181509.412500", "181510.902500", "181512.392500", "181513.882500", "181515.372500", "181516.862500", "181518.352500", "181519.842500", "181521.332500", "181522.822500", "181524.312500", "181525.802500", "181527.292500", "181528.782500", "181530.272500", "181531.762500", "181533.252500", "181534.742500", "181536.232500", "181537.722500", "181539.212500", "181540.702500", "181542.192500", "181543.682500", "181545.172500", "181546.662500", "181548.152500", "181549.642500", "181551.132500", "181552.622500", "181554.112500", "181555.602500", "181557.092500", "181558.582500", "181600.072500", "181601.562500", "181603.052500", "181604.542500", "181606.032500", "181607.522500", "181609.012500", "181610.502500", "181611.992500", "181613.482500", "181614.972500", "181616.462500", "181617.952500", "181619.442500", "181620.932500", "181622.422500", "181623.912500", "181625.402500", "181626.892500", "181628.382500", "181629.872500", "181631.362500", "181632.852500", "181634.342500", "181635.832500", "181637.322500", "181638.812500", "181640.302500", "181641.792500", "181643.282500", "181644.772500", "181646.262500", "181647.752500", "181649.242500", "181650.732500", "181652.222500", "181653.712500", "181655.202500", "181656.692500", "181658.182500", "181659.672500", "181701.162500", "181702.652500", "181704.142500", "181705.632500", "181707.122500", "181708.612500", "181710.102500", "181711.592500", "181713.082500", "181714.572500", "181716.062500", "181717.552500", "181719.042500", "181720.532500", "181722.022500", "181723.512500", "181725.002500", "181726.492500", "181727.982500", "181729.472500", "181730.962500", "181732.452500", "181733.942500", "181735.432500", "181736.922500", "181738.412500", "181739.902500", "181741.392500", "181742.882500", "181744.372500", "181745.862500", "181747.352500", "181748.842500", "181750.332500", "181751.822500", "181753.312500", "181754.802500", "181756.292500", "181757.782500", "181759.272500", "181800.762500", "181802.252500", "181803.742500", "181805.232500", "181806.722500", "181808.212500", "181809.702500", "181811.192500", "181812.682500", "181814.172500", "181815.662500", "181817.152500", "181818.642500", "181820.132500", "181821.622500", "181823.112500", "181824.602500", "181826.092500", "181827.582500", "181829.072500", "181830.562500", "181832.052500", "181833.542500", "181835.032500", "181836.522500", "181838.012500", "181839.502500", "181840.992500", "181842.482500", "181843.972500", "181845.462500", "181846.952500", "181848.442500", "181849.932500", "181851.422500", "181852.912500", "181854.402500", "181855.892500"],
      "ContentTime": ["180818.185000", "180818.188000", "180818.191000", "180818.195000", "180818.198000", "180818.201000", "180818.205000", "180818.208000", "180818.211000", "180818.214000", "180818.218000", "180818.221000", "180818.224000", "180818.228000", "180818.242000", "180818.245000", "180818.248000", "180838.145000", "180838.165000", "180838.168000", "180838.171000", "180838.182000", "180838.185000", "180838.189000", "180838.192000", "180838.195000", "180838.198000", "180838.202000", "180838.205000", "180838.208000", "180838.211000", "180838.214000", "180838.218000", "180838.221000", "180838.225000", "180838.228000", "180838.231000", "180858.145000", "180858.153000", "180858.156000", "180858.160000", "180858.163000", "180858.166000", "180858.169000", "180858.173000", "180858.176000", "180858.179000", "180858.182000", "180858.186000", "180858.189000", "180858.192000", "180858.195000", "180858.199000", "180858.202000", "180858.205000", "180858.209000", "180858.212000", "180858.215000", "180918.144000", "180918.148000", "180918.151000", "180918.154000", "180918.158000", "180918.161000", "180918.164000", "180918.167000", "180918.171000", "180918.174000", "180918.177000", "180918.181000", "180918.184000", "180918.187000", "180918.190000", "180918.194000", "180918.197000", "180918.200000", "180918.204000", "180918.207000", "180938.144000", "180938.148000", "180938.151000", "180938.154000", "180938.157000", "180938.161000", "180938.164000", "180938.168000", "180938.171000", "180938.174000", "180938.177000", "180938.181000", "180938.184000", "180938.187000", "180938.191000", "180938.194000", "180938.197000", "180938.200000", "180938.204000", "180938.207000", "181018.144000", "181018.148000", "181018.151000", "181018.154000", "181018.158000", "181018.161000", "181018.164000", "181018.168000", "181018.171000", "181018.174000", "181018.177000", "181018.181000", "181018.184000", "181018.187000", "181018.191000", "181018.194000", "181018.197000", "181018.200000", "181018.204000", "181018.207000", "181018.224000", "181018.227000", "181018.230000", "181018.241000", "181018.244000", "181018.247000", "181018.250000", "181058.145000", "181058.149000", "181058.152000", "181058.155000", "181058.159000", "181058.162000", "181058.165000", "181058.169000", "181058.172000", "181058.175000", "181058.179000", "181058.182000", "181058.185000", "181058.188000", "181058.192000", "181058.195000", "181058.198000", "181058.202000", "181058.205000", "181058.208000", "181058.211000", "181058.215000", "181058.218000", "181058.221000", "181058.225000", "181058.228000", "181138.144000", "181138.148000", "181138.151000", "181138.155000", "181138.158000", "181138.161000", "181138.164000", "181138.168000", "181138.171000", "181138.174000", "181138.178000", "181138.181000", "181138.184000", "181138.187000", "181138.191000", "181138.194000", "181138.197000", "181138.201000", "181138.204000", "181138.207000", "181138.210000", "181138.214000", "181138.217000", "181138.220000", "181138.223000", "181138.227000", "181138.230000", "181218.144000", "181218.148000", "181218.151000", "181218.154000", "181218.158000", "181218.161000", "181218.164000", "181218.168000", "181218.171000", "181218.174000", "181218.178000", "181218.181000", "181218.184000", "181218.187000", "181218.191000", "181218.194000", "181218.197000", "181218.201000", "181218.204000", "181218.207000", "181218.210000", "181218.214000", "181218.217000", "181218.220000", "181218.223000", "181218.227000", "181218.230000", "181258.145000", "181258.149000", "181258.152000", "181258.155000", "181258.159000", "181258.162000", "181258.165000", "181258.169000", "181258.172000", "181258.187000", "181258.190000", "181258.194000", "181258.197000", "181258.200000", "181258.203000", "181258.207000", "181258.210000", "181258.213000", "181258.217000", "181258.220000", "181258.223000", "181258.226000", "181258.230000", "181258.233000", "181258.236000", "181258.240000", "181258.243000", "181338.145000", "181338.149000", "181338.152000", "181338.155000", "181338.159000", "181338.162000", "181338.166000", "181338.169000", "181338.172000", "181338.176000", "181338.179000", "181338.182000", "181338.185000", "181338.189000", "181338.201000", "181338.204000", "181338.208000", "181338.211000", "181338.214000", "181338.218000", "181338.221000", "181338.224000", "181338.227000", "181338.231000", "181338.234000", "181338.237000", "181338.240000", "181418.144000", "181418.148000", "181418.151000", "181418.154000", "181418.158000", "181418.161000", "181418.164000", "181418.168000", "181418.171000", "181418.174000", "181418.178000", "181418.181000", "181418.184000", "181418.188000", "181418.191000", "181418.195000", "181418.198000", "181418.201000", "181418.205000", "181418.208000", "181418.211000", "181418.215000", "181418.218000", "181418.221000", "181418.225000", "181418.228000", "181418.231000", "181458.144000", "181458.148000", "181458.151000", "181458.154000", "181458.158000", "181458.161000", "181458.164000", "181458.168000", "181458.171000", "181458.174000", "181458.178000", "181458.181000", "181458.185000", "181458.188000", "181458.191000", "181458.195000", "181458.198000", "181458.201000", "181458.204000", "181458.208000", "181458.211000", "181458.228000", "181458.231000", "181458.249000", "181458.252000", "181458.256000", "181458.259000", "181538.145000", "181538.149000", "181538.153000", "181538.156000", "181538.159000", "181538.163000", "181538.166000", "181538.170000", "181538.173000", "181538.176000", "181538.180000", "181538.183000", "181538.186000", "181538.190000", "181538.193000", "181538.196000", "181538.200000", "181538.203000", "181538.206000", "181538.210000", "181538.213000", "181538.218000", "181538.221000", "181538.225000", "181538.228000", "181538.231000", "181618.144000", "181618.148000", "181618.151000", "181618.155000", "181618.158000", "181618.161000", "181618.165000", "181618.168000", "181618.171000", "181618.175000", "181618.178000", "181618.181000", "181618.184000", "181618.188000", "181618.191000", "181618.194000", "181618.198000", "181618.201000", "181618.204000", "181618.208000", "181618.211000", "181618.214000", "181618.217000", "181618.221000", "181618.224000", "181618.227000", "181618.230000", "181658.144000", "181658.148000", "181658.151000", "181658.155000", "181658.158000", "181658.161000", "181658.165000", "181658.168000", "181658.171000", "181658.175000", "181658.178000", "181658.181000", "181658.185000", "181658.188000", "181658.191000", "181658.195000", "181658.198000", "181658.201000", "181658.204000", "181658.208000", "181658.211000", "181658.215000", "181658.218000", "181658.221000", "181658.225000", "181658.228000", "181658.231000", "181738.145000", "181738.149000", "181738.152000", "181738.156000", "181738.159000", "181738.163000", "181738.166000", "181738.169000", "181738.172000", "181738.176000", "181738.179000", "181738.182000", "181738.186000", "181738.189000", "181738.192000", "181738.196000", "181738.199000", "181738.202000", "181738.206000", "181738.209000", "181738.212000", "181738.216000", "181738.219000", "181738.222000", "181738.226000", "181738.229000", "181738.232000", "181818.144000", "181818.148000", "181818.151000", "181818.155000", "181818.158000", "181818.161000", "181818.165000", "181818.168000", "181818.171000", "181818.175000", "181818.178000", "181818.181000", "181818.185000", "181818.188000", "181818.191000", "181818.195000", "181818.198000", "181818.201000", "181818.205000", "181818.208000", "181818.211000", "181818.215000", "181818.218000", "181818.221000", "181818.225000", "181818.228000", "181818.231000", "181858.144000", "181858.148000", "181858.151000", "181858.154000", "181858.158000", "181858.161000", "181858.165000", "181858.168000", "181858.171000", "181858.175000", "181858.178000", "181858.181000", "181858.185000", "181858.188000", "181858.191000", "181858.194000", "181858.198000", "181858.201000", "181858.204000", "181858.208000", "181858.211000", "181858.214000", "181858.217000", "181858.221000", "181858.224000", "181858.227000", "181858.231000"],
