{
  "AcquisitionMatrixPE": 104,
  "AcquisitionNumber": 1,
  "AcquisitionTime": "19:37:26.420000",
  "BandwidthPerPixelPhaseEncode": 17.17,
  "BaseResolution": 104,
  "BodyPartExamined": "BRAIN",
  "CoilCombinationMethod": "Sum of Squares",
  "ConsistencyInfo": "N4_VE11C_LATEST_20160120",
  "ConversionSoftware": "dcm2niix",
  "ConversionSoftwareVersion": "v1.0.20220505",
  "DerivedVendorReportedEchoSpacing": 0.000560011,
  "DeviceSerialNumber": "167006",
  "DwellTime": 2.1e-06,
  "EchoTime": 0.037,
  "EchoTime1": 0.037,
  "EchoTime2": 0.001,
  "EchoTrainLength": 104,
  "EffectiveEchoSpacing": 0.000560011,
  "FlipAngle": 52,
  "HeudiconvVersion": "0.5.3.post811+g6206e14",
  "ImageComments": "Unaliased MB4/PE3/LB",
  "ImageOrientationPatientDICOM": [0.999923, -0.00879741, 0.00872216, 0.0113442, 0.933144, -0.359324],
  "ImageOrientationText": "Tra>Cor(-21.1)>Sag(0.3)",
  "ImageType": [
    "ORIGINAL",
    "PRIMARY",
    "P",
    "MB",
    "ND",
    "MOSAIC",
    "PHASE"
],
  "ImagingFrequency": 123.26,
  "InPlanePhaseEncodingDirectionDICOM": "COL",
  "InstitutionAddress": "Chemin Queen-Mary 4565,Montreal,District,CA,H3W 1W5",
  "InstitutionName": "IUGM",
  "InstitutionalDepartmentName": "Department",
  "MRAcquisitionType": "2D",
  "MagneticFieldStrength": 3,
  "Manufacturer": "Siemens",
  "ManufacturersModelName": "Prisma_fit",
  "MatrixCoilMode": "SENSE",
  "Modality": "MR",
  "MultibandAccelerationFactor": 4,
  "PartialFourier": 1,
  "PatientPosition": "HFS",
  "PercentPhaseFOV": 100,
  "PercentSampling": 100,
  "PhaseEncodingDirection": "j",
  "PhaseEncodingSteps": 104,
  "PhaseResolution": 1,
  "PixelBandwidth": 2290,
  "ProcedureStepDescription": "games^mariostars",
  "ProtocolName": "func_task-mariostars_run-09",
  "PulseSequenceDetails": "%CustomerSeq%\\cmrr_mbep2d_bold",
  "ReceiveCoilActiveElements": "HC1-7;NC1,2",
  "ReceiveCoilName": "HeadNeck_64",
  "ReconMatrixPE": 104,
  "RepetitionTime": 1.49,
  "SAR": 0.0644135,
  "ScanOptions": "FS",
  "ScanningSequence": "EP",
  "SequenceName": "epfid2d1_104",
  "SequenceVariant": "SK\\SS",
  "SeriesDescription": "func_task-mariostars_run-09",
  "SeriesNumber": 36,
  "ShimSetting": [600, -7242, -8807, 471, 11, -283, 1, 27],
  "SliceThickness": 2,
  "SliceTiming": [0, 0.785, 0.0975, 0.8825, 0.1975, 0.98, 0.295, 1.0775, 0.3925, 1.1775, 0.49, 1.275, 0.5875, 1.3725, 0.6875, 0, 0.785, 0.0975, 0.8825, 0.1975, 0.98, 0.295, 1.0775, 0.3925, 1.1775, 0.49, 1.275, 0.5875, 1.3725, 0.6875, 0, 0.785, 0.0975, 0.8825, 0.1975, 0.98, 0.295, 1.0775, 0.3925, 1.1775, 0.49, 1.275, 0.5875, 1.3725, 0.6875, 0, 0.785, 0.0975, 0.8825, 0.1975, 0.98, 0.295, 1.0775, 0.3925, 1.1775, 0.49, 1.275, 0.5875, 1.3725, 0.6875],
  "SoftwareVersions": "syngo MR E11",
  "SpacingBetweenSlices": 2,
  "StationName": "MRC35049",
  "TaskName": "mariostars",
  "TotalReadoutTime": 0.0576811,
  "TxRefAmp": 282.326,
  "WipMemBlock": "29b3c26d-b587-4f3f-a1fb-a0184388ac10||Sequence: R017 ve11c/master r/75a17815+; Jun 28 2022 16:32:11 by eja",
  "dcmmeta_affine": [
    [-1.9998465776443481, 0.022688409313559532, 0.009955830872058868, 102.74142456054688],
    [0.017594829201698303, 1.8662880659103394, -0.7187899947166443, -67.89131927490234],
    [0.017444325610995293, 0.718647301197052, 1.8663444519042969, -62.61528015136719],
    [0.0, 0.0, 0.0, 1.0]
],
  "dcmmeta_reorient_transform": [
    [0.0, -1.0, 0.0, 103.0],
    [1.0, 0.0, 0.0, 0.0],
    [0.0, 0.0, 1.0, 0.0],
    [0.0, 0.0, 0.0, 1.0]
],
  "dcmmeta_shape": [104, 104, 60, 440],
  "dcmmeta_slice_dim": 2,
  "dcmmeta_version": 0.6,
  "global": {
    "const": {
      "AcquisitionMatrix": [104, 0, 0, 104],
      "AngioFlag": "N",
      "BitsAllocated": 16,
      "BitsStored": 16,
      "BodyPartExamined": "BRAIN",
      "Columns": 832,
      "EchoNumbers": 1,
      "EchoTime": 37.0,
      "EchoTrainLength": 104,
      "FlipAngle": 52.0,
      "HighBit": 15,
      "ImageOrientationPatient": [0.99992326174086, -0.008797414482, 0.00872216303166, 0.01134420497795, 0.93314405427534, -0.3593236465695],
      "ImagePositionPatient": [-841.28104745386, -797.26070995684, 266.64327106496],
      "ImageType": [
        "ORIGINAL",
        "PRIMARY",
        "P",
        "MB",
        "ND",
        "MOSAIC"
],
      "ImagedNucleus": "1H",
      "ImagingFrequency": 123.260224,
      "InPlanePhaseEncodingDirection": "COL",
      "LargestImagePixelValue": 4095,
      "MRAcquisitionType": "2D",
      "MagneticFieldStrength": 3.0,
      "Manufacturer": "SIEMENS",
      "ManufacturerModelName": "Prisma_fit",
      "Modality": "MR",
      "NumberOfAverages": 1.0,
      "NumberOfPhaseEncodingSteps": 104,
      "PercentPhaseFieldOfView": 100.0,
      "PercentSampling": 100.0,
      "PerformedProcedureStepStartTime": "170509.622000",
      "PhotometricInterpretation": "MONOCHROME2",
      "PixelBandwidth": 2290.0,
      "PixelRepresentation": 0,
      "PixelSpacing": [2.0, 2.0],
      "ProtocolName": "func_task-mariostars_run-09",
      "RepetitionTime": 1490.0,
      "RescaleIntercept": -4096.0,
      "RescaleSlope": 2.0,
      "RescaleType": "US",
      "Rows": 832,
      "SAR": 0.06441344978651,
      "SamplesPerPixel": 1,
      "ScanOptions": "FS",
      "ScanningSequence": "EP",
      "SequenceName": "epfid2d1_104",
      "SequenceVariant": [
        "SK",
        "SS"
],
      "SeriesDescription": "func_task-mariostars_run-09",
      "SeriesNumber": 36,
      "SeriesTime": "193838.318000",
      "SliceLocation": -33.519601616038,
      "SliceThickness": 2.0,
      "SmallestImagePixelValue": 0,
      "SoftwareVersions": "syngo MR E11",
      "SpacingBetweenSlices": 1.9999999625522,
      "SpecificCharacterSet": "ISO_IR 100",
      "StudyID": "1",
      "StudyTime": "170509.530000",
      "TransmitCoilName": "Body",
      "VariableFlipAngleFlag": "N",
      "WindowCenterWidthExplanation": "Algo1",
      "dBdt": 0.0},
    "slices": {}
  },
  "time": {
    "samples": {
      "AcquisitionNumber": [1, 2, 3, 4, 5, 6, 7, 8, 9, 10, 11, 12, 13, 14, 15, 16, 17, 18, 19, 20, 21, 22, 23, 24, 25, 26, 27, 28, 29, 30, 31, 32, 33, 34, 35, 36, 37, 38, 39, 40, 41, 42, 43, 44, 45, 46, 47, 48, 49, 50, 51, 52, 53, 54, 55, 56, 57, 58, 59, 60, 61, 62, 63, 64, 65, 66, 67, 68, 69, 70, 71, 72, 73, 74, 75, 76, 77, 78, 79, 80, 81, 82, 83, 84, 85, 86, 87, 88, 89, 90, 91, 92, 93, 94, 95, 96, 97, 98, 99, 100, 101, 102, 103, 104, 105, 106, 107, 108, 109, 110, 111, 112, 113, 114, 115, 116, 117, 118, 119, 120, 121, 122, 123, 124, 125, 126, 127, 128, 129, 130, 131, 132, 133, 134, 135, 136, 137, 138, 139, 140, 141, 142, 143, 144, 145, 146, 147, 148, 149, 150, 151, 152, 153, 154, 155, 156, 157, 158, 159, 160, 161, 162, 163, 164, 165, 166, 167, 168, 169, 170, 171, 172, 173, 174, 175, 176, 177, 178, 179, 180, 181, 182, 183, 184, 185, 186, 187, 188, 189, 190, 191, 192, 193, 194, 195, 196, 197, 198, 199, 200, 201, 202, 203, 204, 205, 206, 207, 208, 209, 210, 211, 212, 213, 214, 215, 216, 217, 218, 219, 220, 221, 222, 223, 224, 225, 226, 227, 228, 229, 230, 231, 232, 233, 234, 235, 236, 237, 238, 239, 240, 241, 242, 243, 244, 245, 246, 247, 248, 249, 250, 251, 252, 253, 254, 255, 256, 257, 258, 259, 260, 261, 262, 263, 264, 265, 266, 267, 268, 269, 270, 271, 272, 273, 274, 275, 276, 277, 278, 279, 280, 281, 282, 283, 284, 285, 286, 287, 288, 289, 290, 291, 292, 293, 294, 295, 296, 297, 298, 299, 300, 301, 302, 303, 304, 305, 306, 307, 308, 309, 310, 311, 312, 313, 314, 315, 316, 317, 318, 319, 320, 321, 322, 323, 324, 325, 326, 327, 328, 329, 330, 331, 332, 333, 334, 335, 336, 337, 338, 339, 340, 341, 342, 343, 344, 345, 346, 347, 348, 349, 350, 351, 352, 353, 354, 355, 356, 357, 358, 359, 360, 361, 362, 363, 364, 365, 366, 367, 368, 369, 370, 371, 372, 373, 374, 375, 376, 377, 378, 379, 380, 381, 382, 383, 384, 385, 386, 387, 388, 389, 390, 391, 392, 393, 394, 395, 396, 397, 398, 399, 400, 401, 402, 403, 404, 405, 406, 407, 408, 409, 410, 411, 412, 413, 414, 415, 416, 417, 418, 419, 420, 421, 422, 423, 424, 425, 426, 427, 428, 429, 430, 431, 432, 433, 434, 435, 436, 437, 438, 439, 440],
      "AcquisitionTime": ["193726.420000", "193727.910000", "193729.400000", "193730.890000", "193732.380000", "193733.870000", "193735.360000", "193736.850000", "193738.340000", "193739.830000", "193741.320000", "193742.810000", "193744.300000", "193745.790000", "193747.280000", "193748.770000", "193750.260000", "193751.750000", "193753.240000", "193754.730000", "193756.220000", "193757.710000", "193759.200000", "193800.690000", "193802.180000", "193803.670000", "193805.160000", "193806.650000", "193808.140000", "193809.630000", "193811.120000", "193812.610000", "193814.100000", "193815.590000", "193817.080000", "193818.570000", "193820.060000", "193821.550000", "193823.040000", "193824.530000", "193826.020000", "193827.510000", "193829.000000", "193830.490000", "193831.980000", "193833.470000", "193834.960000", "193836.450000", "193837.940000", "193839.430000", "193840.920000", "193842.410000", "193843.900000", "193845.390000", "193846.880000", "193848.370000", "193849.860000", "193851.350000", "193852.840000", "193854.330000", "193855.820000", "193857.310000", "193858.800000", "193900.290000", "193901.780000", "193903.270000", "193904.760000", "193906.250000", "193907.740000", "193909.230000", "193910.720000", "193912.210000", "193913.700000", "193915.190000", "193916.680000", "193918.170000", "193919.660000", "193921.150000", "193922.640000", "193924.130000", "193925.620000", "193927.110000", "193928.600000", "193930.090000", "193931.580000", "193933.070000", "193934.560000", "193936.050000", "193937.540000", "193939.030000", "193940.520000", "193942.010000", "193943.500000", "193944.990000", "193946.480000", "193947.970000", "193949.460000", "193950.950000", "193952.440000", "193953.930000", "193955.420000", "193956.910000", "193958.400000", "193959.890000", "194001.380000", "194002.870000", "194004.360000", "194005.850000", "194007.340000", "194008.830000", "194010.320000", "194011.810000", "194013.300000", "194014.790000", "194016.280000", "194017.770000", "194019.260000", "194020.750000", "194022.240000", "194023.730000", "194025.220000", "194026.710000", "194028.200000", "194029.690000", "194031.180000", "194032.670000", "194034.160000", "194035.650000", "194037.140000", "194038.630000", "194040.120000", "194041.610000", "194043.100000", "194044.590000", "194046.080000", "194047.570000", "194049.060000", "194050.550000", "194052.040000", "194053.530000", "194055.020000", "194056.510000", "194058.000000", "194059.490000", "194100.980000", "194102.470000", "194103.960000", "194105.450000", "194106.940000", "194108.430000", "194109.920000", "194111.410000", "194112.900000", "194114.390000", "194115.880000", "194117.370000", "194118.860000", "194120.350000", "194121.840000", "194123.330000", "194124.820000", "194126.310000", "194127.800000", "194129.290000", "194130.780000", "194132.270000", "194133.760000", "194135.250000", "194136.740000", "194138.230000", "194139.720000", "194141.210000", "194142.700000", "194144.190000", "194145.680000", "194147.170000", "194148.660000", "194150.150000", "194151.640000", "194153.130000", "194154.620000", "194156.110000", "194157.600000", "194159.090000", "194200.580000", "194202.070000", "194203.560000", "194205.050000", "194206.540000", "194208.030000", "194209.520000", "194211.010000", "194212.500000", "194213.990000", "194215.480000", "194216.970000", "194218.460000", "194219.950000", "194221.440000", "194222.930000", "194224.420000", "194225.910000", "194227.400000", "194228.890000", "194230.380000", "194231.870000", "194233.360000", "194234.850000", "194236.340000", "194237.830000", "194239.320000", "194240.810000", "194242.300000", "194243.790000", "194245.280000", "194246.770000", "194248.260000", "194249.750000", "194251.240000", "194252.730000", "194254.220000", "194255.710000", "194257.200000", "194258.690000", "194300.180000", "194301.670000", "194303.160000", "194304.650000", "194306.140000", "194307.630000", "194309.120000", "194310.610000", "194312.100000", "194313.590000", "194315.080000", "194316.570000", "194318.060000", "194319.550000", "194321.040000", "194322.530000", "194324.020000", "194325.510000", "194327.000000", "194328.490000", "194329.980000", "194331.470000", "194332.960000", "194334.450000", "194335.940000", "194337.430000", "194338.920000", "194340.410000", "194341.900000", "194343.390000", "194344.880000", "194346.370000", "194347.860000", "194349.350000", "194350.840000", "194352.330000", "194353.820000", "194355.310000", "194356.800000", "194358.290000", "194359.780000", "194401.270000", "194402.760000", "194404.250000", "194405.740000", "194407.230000", "194408.720000", "194410.210000", "194411.700000", "194413.190000", "194414.680000", "194416.170000", "194417.660000", "194419.150000", "194420.640000", "194422.130000", "194423.620000", "194425.110000", "194426.600000", "194428.090000", "194429.580000", "194431.070000", "194432.560000", "194434.050000", "194435.540000", "194437.030000", "194438.520000", "194440.010000", "194441.500000", "194442.990000", "194444.480000", "194445.970000", "194447.460000", "194448.950000", "194450.440000", "194451.930000", "194453.420000", "194454.910000", "194456.400000", "194457.890000", "194459.380000", "194500.870000", "194502.360000", "194503.850000", "194505.340000", "194506.830000", "194508.320000", "194509.810000", "194511.300000", "194512.790000", "194514.280000", "194515.770000", "194517.260000", "194518.750000", "194520.240000", "194521.730000", "194523.220000", "194524.710000", "194526.200000", "194527.690000", "194529.180000", "194530.670000", "194532.160000", "194533.650000", "194535.140000", "194536.630000", "194538.120000", "194539.610000", "194541.100000", "194542.590000", "194544.080000", "194545.570000", "194547.060000", "194548.550000", "194550.040000", "194551.530000", "194553.020000", "194554.510000", "194556.000000", "194557.490000", "194558.980000", "194600.470000", "194601.960000", "194603.450000", "194604.940000", "194606.430000", "194607.920000", "194609.410000", "194610.900000", "194612.390000", "194613.880000", "194615.370000", "194616.860000", "194618.350000", "194619.840000", "194621.330000", "194622.820000", "194624.310000", "194625.800000", "194627.290000", "194628.780000", "194630.270000", "194631.760000", "194633.250000", "194634.740000", "194636.230000", "194637.720000", "194639.210000", "194640.700000", "194642.190000", "194643.680000", "194645.170000", "194646.660000", "194648.150000", "194649.640000", "194651.130000", "194652.620000", "194654.110000", "194655.600000", "194657.090000", "194658.580000", "194700.070000", "194701.560000", "194703.050000", "194704.540000", "194706.030000", "194707.520000", "194709.010000", "194710.500000", "194711.990000", "194713.480000", "194714.970000", "194716.460000", "194717.950000", "194719.440000", "194720.930000", "194722.420000", "194723.910000", "194725.400000", "194726.890000", "194728.380000", "194729.870000", "194731.360000", "194732.850000", "194734.340000", "194735.830000", "194737.320000", "194738.810000", "194740.300000", "194741.790000", "194743.280000", "194744.770000", "194746.260000", "194747.750000", "194749.240000", "194750.730000", "194752.220000", "194753.710000", "194755.200000", "194756.690000", "194758.180000", "194759.670000", "194801.160000", "194802.650000", "194804.140000", "194805.630000", "194807.120000", "194808.610000", "194810.100000", "194811.590000", "194813.080000", "194814.570000", "194816.060000", "194817.550000", "194819.040000", "194820.530000"],
      "ContentTime": ["193838.320000", "193838.323000", "193838.325000", "193838.328000", "193838.330000", "193838.333000", "193838.335000", "193838.338000", "193838.340000", "193838.343000", "193838.347000", "193838.349000", "193838.352000", "193838.354000", "193838.357000", "193838.359000", "193838.362000", "193838.364000", "193838.367000", "193838.369000", "193838.372000", "193858.243000", "193858.246000", "193858.248000", "193858.251000", "193858.253000", "193858.256000", "193858.258000", "193858.261000", "193858.263000", "193858.266000", "193858.268000", "193858.271000", "193858.273000", "193858.276000", "193858.278000", "193858.281000", "193858.283000", "193858.285000", "193858.288000", "193858.290000", "193918.246000", "193918.249000", "193918.251000", "193918.254000", "193918.256000", "193918.259000", "193918.261000", "193918.264000", "193918.266000", "193918.269000", "193918.271000", "193918.274000", "193918.276000", "193918.279000", "193918.281000", "193918.284000", "193918.286000", "193918.289000", "193918.291000", "193918.294000", "193938.251000", "193938.254000", "193938.256000", "193938.259000", "193938.261000", "193938.264000", "193938.266000", "193938.269000", "193938.271000", "193938.274000", "193938.276000", "193938.279000", "193938.281000", "193938.284000", "193938.286000", "193938.289000", "193938.291000", "193938.293000", "193938.296000", "193938.298000", "193958.250000", "193958.253000", "193958.255000", "193958.258000", "193958.260000", "193958.263000", "193958.265000", "193958.268000", "193958.270000", "193958.273000", "193958.275000", "193958.278000", "193958.280000", "193958.283000", "193958.285000", "193958.288000", "193958.290000", "193958.293000", "193958.295000", "193958.298000", "194038.298000", "194038.301000", "194038.303000", "194038.306000", "194038.308000", "194038.311000", "194038.313000", "194038.316000", "194038.318000", "194038.321000", "194038.323000", "194038.326000", "194038.328000", "194038.331000", "194038.333000", "194038.343000", "194038.345000", "194038.348000", "194038.350000", "194038.353000", "194038.355000", "194038.358000", "194038.360000", "194038.363000", "194038.365000", "194038.368000", "194038.370000", "194118.300000", "194118.303000", "194118.306000", "194118.308000", "194118.311000", "194118.313000", "194118.316000", "194118.318000", "194118.320000", "194118.323000", "194118.326000", "194118.328000", "194118.331000", "194118.333000", "194118.336000", "194118.338000", "194118.340000", "194118.343000", "194118.345000", "194118.348000", "194118.350000", "194118.353000", "194118.355000", "194118.358000", "194118.361000", "194118.363000", "194118.366000", "194158.285000", "194158.288000", "194158.290000", "194158.293000", "194158.295000", "194158.298000", "194158.300000", "194158.303000", "194158.305000", "194158.308000", "194158.310000", "194158.313000", "194158.315000", "194158.318000", "194158.320000", "194158.323000", "194158.325000", "194158.328000", "194158.330000", "194158.333000", "194158.335000", "194158.338000", "194158.340000", "194158.343000", "194158.345000", "194158.348000", "194238.299000", "194238.301000", "194238.304000", "194238.306000", "194238.309000", "194238.311000", "194238.314000", "194238.316000", "194238.319000", "194238.321000", "194238.324000", "194238.327000", "194238.329000", "194238.332000", "194238.334000", "194238.337000", "194238.340000", "194238.342000", "194238.345000", "194238.347000", "194238.350000", "194238.352000", "194238.355000", "194238.357000", "194238.360000", "194238.362000", "194238.365000", "194318.330000", "194318.333000", "194318.336000", "194318.338000", "194318.340000", "194318.343000", "194318.346000", "194318.348000", "194318.351000", "194318.353000", "194318.356000", "194318.358000", "194318.360000", "194318.363000", "194318.366000", "194318.368000", "194318.371000", "194318.373000", "194318.376000", "194318.378000", "194318.381000", "194318.383000", "194318.386000", "194318.388000", "194318.391000", "194318.393000", "194318.396000", "194358.281000", "194358.283000", "194358.286000", "194358.288000", "194358.291000", "194358.293000", "194358.296000", "194358.299000", "194358.302000", "194358.304000", "194358.307000", "194358.309000", "194358.312000", "194358.314000", "194358.317000", "194358.319000", "194358.322000", "194358.324000", "194358.327000", "194358.329000", "194358.332000", "194358.334000", "194358.337000", "194358.339000", "194358.342000", "194358.344000", "194358.347000", "194438.277000", "194438.280000", "194438.283000", "194438.285000", "194438.288000", "194438.290000", "194438.293000", "194438.295000", "194438.298000", "194438.301000", "194438.303000", "194438.306000", "194438.308000", "194438.311000", "194438.313000", "194438.316000", "194438.318000", "194438.321000", "194438.323000", "194438.326000", "194438.328000", "194438.331000", "194438.333000", "194438.336000", "194438.338000", "194438.341000", "194438.343000", "194458.224000", "194458.227000", "194458.229000", "194458.232000", "194458.234000", "194458.237000", "194458.239000", "194458.242000", "194458.244000", "194458.247000", "194458.249000", "194458.252000", "194458.254000", "194538.291000", "194538.294000", "194538.296000", "194538.298000", "194538.301000", "194538.304000", "194538.306000", "194538.309000", "194538.311000", "194538.314000", "194538.316000", "194538.319000", "194538.321000", "194538.324000", "194538.326000", "194538.329000", "194538.331000", "194538.333000", "194538.336000", "194538.339000", "194538.341000", "194538.344000", "194538.346000", "194538.349000", "194538.351000", "194538.353000", "194538.356000", "194618.275000", "194618.278000", "194618.281000", "194618.283000", "194618.286000", "194618.288000", "194618.291000", "194618.294000", "194618.296000", "194618.299000", "194618.301000", "194618.304000", "194618.306000", "194618.309000", "194618.311000", "194618.314000", "194618.316000", "194618.319000", "194618.321000", "194618.324000", "194618.326000", "194618.329000", "194618.331000", "194618.334000", "194618.336000", "194618.339000", "194618.341000", "194658.295000", "194658.298000", "194658.300000", "194658.303000", "194658.306000", "194658.308000", "194658.311000", "194658.313000", "194658.316000", "194658.318000", "194658.320000", "194658.323000", "194658.325000", "194658.328000", "194658.331000", "194658.333000", "194658.336000", "194658.338000", "194658.341000", "194658.343000", "194658.346000", "194658.348000", "194658.351000", "194658.353000", "194658.356000", "194658.358000", "194658.361000", "194738.652000", "194738.655000", "194738.658000", "194738.660000", "194738.663000", "194738.665000", "194738.668000", "194738.670000", "194738.673000", "194738.675000", "194738.678000", "194738.680000", "194738.683000", "194738.685000", "194738.688000", "194738.690000", "194738.693000", "194738.695000", "194738.698000", "194738.700000", "194738.703000", "194738.705000", "194738.708000", "194738.710000", "194738.713000", "194738.716000", "194738.718000", "194818.273000", "194818.275000", "194818.293000", "194818.295000", "194818.298000", "194818.300000", "194818.303000", "194818.306000", "194818.308000", "194818.311000", "194818.313000", "194818.316000", "194818.319000", "194818.321000", "194818.324000", "194818.326000", "194818.329000", "194818.331000", "194818.334000", "194818.336000", "194818.339000", "194818.341000", "194818.344000", "194818.347000", "194818.349000", "194818.352000", "194823.461000", "194823.464000", "194823.466000", "194823.469000"],
