{
  "AcquisitionMatrixPE": 104,
  "AcquisitionNumber": 1,
  "AcquisitionTime": "19:02:46.895000",
  "BandwidthPerPixelPhaseEncode": 17.17,
  "BaseResolution": 104,
  "BodyPartExamined": "BRAIN",
  "CoilCombinationMethod": "Sum of Squares",
  "ConsistencyInfo": "N4_VE11C_LATEST_20160120",
  "ConversionSoftware": "dcm2niix",
  "ConversionSoftwareVersion": "v1.0.20220505",
  "DerivedVendorReportedEchoSpacing": 0.000560011,
  "DeviceSerialNumber": "167006",
  "DwellTime": 2.1e-06,
  "EchoTime": 0.037,
  "EchoTime1": 0.037,
  "EchoTime2": 0.001,
  "EchoTrainLength": 104,
  "EffectiveEchoSpacing": 0.000560011,
  "FlipAngle": 52,
  "HeudiconvVersion": "0.5.3.post811+g6206e14",
  "ImageComments": "Unaliased MB4/PE3/LB",
  "ImageOrientationPatientDICOM": [0.999923, -0.00879741, 0.00872216, 0.0113442, 0.933144, -0.359324],
  "ImageOrientationText": "Tra>Cor(-21.1)>Sag(0.3)",
  "ImageType": [
    "ORIGINAL",
    "PRIMARY",
    "P",
    "MB",
    "ND",
    "MOSAIC",
    "PHASE"
],
  "ImagingFrequency": 123.26,
  "InPlanePhaseEncodingDirectionDICOM": "COL",
  "InstitutionAddress": "Chemin Queen-Mary 4565,Montreal,District,CA,H3W 1W5",
  "InstitutionName": "IUGM",
  "InstitutionalDepartmentName": "Department",
  "MRAcquisitionType": "2D",
  "MagneticFieldStrength": 3,
  "Manufacturer": "Siemens",
  "ManufacturersModelName": "Prisma_fit",
  "MatrixCoilMode": "SENSE",
  "Modality": "MR",
  "MultibandAccelerationFactor": 4,
  "PartialFourier": 1,
  "PatientPosition": "HFS",
  "PercentPhaseFOV": 100,
  "PercentSampling": 100,
  "PhaseEncodingDirection": "j",
  "PhaseEncodingSteps": 104,
  "PhaseResolution": 1,
  "PixelBandwidth": 2290,
  "ProcedureStepDescription": "games^mariostars",
  "ProtocolName": "func_task-mariostars_run-07",
  "PulseSequenceDetails": "%CustomerSeq%\\cmrr_mbep2d_bold",
  "ReceiveCoilActiveElements": "HC1-7;NC1,2",
  "ReceiveCoilName": "HeadNeck_64",
  "ReconMatrixPE": 104,
  "RepetitionTime": 1.49,
  "SAR": 0.0644135,
  "ScanOptions": "FS",
  "ScanningSequence": "EP",
  "SequenceName": "epfid2d1_104",
  "SequenceVariant": "SK\\SS",
  "SeriesDescription": "func_task-mariostars_run-07",
  "SeriesNumber": 30,
  "ShimSetting": [600, -7242, -8807, 471, 11, -283, 1, 27],
  "SliceThickness": 2,
  "SliceTiming": [0, 0.785, 0.1, 0.8825, 0.1975, 0.98, 0.295, 1.08, 0.3925, 1.1775, 0.49, 1.275, 0.59, 1.3725, 0.6875, 0, 0.785, 0.1, 0.8825, 0.1975, 0.98, 0.295, 1.08, 0.3925, 1.1775, 0.49, 1.275, 0.59, 1.3725, 0.6875, 0, 0.785, 0.1, 0.8825, 0.1975, 0.98, 0.295, 1.08, 0.3925, 1.1775, 0.49, 1.275, 0.59, 1.3725, 0.6875, 0, 0.785, 0.1, 0.8825, 0.1975, 0.98, 0.295, 1.08, 0.3925, 1.1775, 0.49, 1.275, 0.59, 1.3725, 0.6875],
  "SoftwareVersions": "syngo MR E11",
  "SpacingBetweenSlices": 2,
  "StationName": "MRC35049",
  "TaskName": "mariostars",
  "TotalReadoutTime": 0.0576811,
  "TxRefAmp": 282.326,
  "WipMemBlock": "f7ff0799-57c1-4710-84b2-6ff7dfcdbc5b||Sequence: R017 ve11c/master r/75a17815+; Jun 28 2022 16:32:11 by eja",
  "dcmmeta_affine": [
    [-1.9998465776443481, 0.022688409313559532, 0.009955830872058868, 102.74142456054688],
    [0.017594829201698303, 1.8662880659103394, -0.7187899947166443, -67.89131927490234],
    [0.017444325610995293, 0.718647301197052, 1.8663444519042969, -62.61528015136719],
    [0.0, 0.0, 0.0, 1.0]
],
  "dcmmeta_reorient_transform": [
    [0.0, -1.0, 0.0, 103.0],
    [1.0, 0.0, 0.0, 0.0],
    [0.0, 0.0, 1.0, 0.0],
    [0.0, 0.0, 0.0, 1.0]
],
  "dcmmeta_shape": [104, 104, 60, 600],
  "dcmmeta_slice_dim": 2,
  "dcmmeta_version": 0.6,
  "global": {
    "const": {
      "AcquisitionMatrix": [104, 0, 0, 104],
      "AngioFlag": "N",
      "BitsAllocated": 16,
      "BitsStored": 16,
      "BodyPartExamined": "BRAIN",
      "Columns": 832,
      "EchoNumbers": 1,
      "EchoTime": 37.0,
      "EchoTrainLength": 104,
      "FlipAngle": 52.0,
      "HighBit": 15,
      "ImageOrientationPatient": [0.99992326174086, -0.008797414482, 0.00872216303166, 0.01134420497795, 0.93314405427534, -0.3593236465695],
      "ImagePositionPatient": [-841.28104745386, -797.26070995684, 266.64327106496],
      "ImageType": [
        "ORIGINAL",
        "PRIMARY",
        "P",
        "MB",
        "ND",
        "MOSAIC"
],
      "ImagedNucleus": "1H",
      "ImagingFrequency": 123.260222,
      "InPlanePhaseEncodingDirection": "COL",
      "LargestImagePixelValue": 4095,
      "MRAcquisitionType": "2D",
      "MagneticFieldStrength": 3.0,
      "Manufacturer": "SIEMENS",
      "ManufacturerModelName": "Prisma_fit",
      "Modality": "MR",
      "NumberOfAverages": 1.0,
      "NumberOfPhaseEncodingSteps": 104,
      "PercentPhaseFieldOfView": 100.0,
      "PercentSampling": 100.0,
      "PerformedProcedureStepStartTime": "170509.622000",
      "PhotometricInterpretation": "MONOCHROME2",
      "PixelBandwidth": 2290.0,
      "PixelRepresentation": 0,
      "PixelSpacing": [2.0, 2.0],
      "ProtocolName": "func_task-mariostars_run-07",
      "RepetitionTime": 1490.0,
      "RescaleIntercept": -4096.0,
      "RescaleSlope": 2.0,
      "RescaleType": "US",
      "Rows": 832,
      "SAR": 0.06441344978651,
      "SamplesPerPixel": 1,
      "ScanOptions": "FS",
      "ScanningSequence": "EP",
      "SequenceName": "epfid2d1_104",
      "SequenceVariant": [
        "SK",
        "SS"
],
      "SeriesDescription": "func_task-mariostars_run-07",
      "SeriesNumber": 30,
      "SeriesTime": "190402.734000",
      "SliceLocation": -33.519601616038,
      "SliceThickness": 2.0,
      "SmallestImagePixelValue": 0,
      "SoftwareVersions": "syngo MR E11",
      "SpacingBetweenSlices": 1.9999999625522,
      "SpecificCharacterSet": "ISO_IR 100",
      "StudyID": "1",
      "StudyTime": "170509.530000",
      "TransmitCoilName": "Body",
      "VariableFlipAngleFlag": "N",
      "WindowCenterWidthExplanation": "Algo1",
      "dBdt": 0.0},
    "slices": {}
  },
  "time": {
    "samples": {
      "AcquisitionNumber": [1, 2, 3, 4, 5, 6, 7, 8, 9, 10, 11, 12, 13, 14, 15, 16, 17, 18, 19, 20, 21, 22, 23, 24, 25, 26, 27, 28, 29, 30, 31, 32, 33, 34, 35, 36, 37, 38, 39, 40, 41, 42, 43, 44, 45, 46, 47, 48, 49, 50, 51, 52, 53, 54, 55, 56, 57, 58, 59, 60, 61, 62, 63, 64, 65, 66, 67, 68, 69, 70, 71, 72, 73, 74, 75, 76, 77, 78, 79, 80, 81, 82, 83, 84, 85, 86, 87, 88, 89, 90, 91, 92, 93, 94, 95, 96, 97, 98, 99, 100, 101, 102, 103, 104, 105, 106, 107, 108, 109, 110, 111, 112, 113, 114, 115, 116, 117, 118, 119, 120, 121, 122, 123, 124, 125, 126, 127, 128, 129, 130, 131, 132, 133, 134, 135, 136, 137, 138, 139, 140, 141, 142, 143, 144, 145, 146, 147, 148, 149, 150, 151, 152, 153, 154, 155, 156, 157, 158, 159, 160, 161, 162, 163, 164, 165, 166, 167, 168, 169, 170, 171, 172, 173, 174, 175, 176, 177, 178, 179, 180, 181, 182, 183, 184, 185, 186, 187, 188, 189, 190, 191, 192, 193, 194, 195, 196, 197, 198, 199, 200, 201, 202, 203, 204, 205, 206, 207, 208, 209, 210, 211, 212, 213, 214, 215, 216, 217, 218, 219, 220, 221, 222, 223, 224, 225, 226, 227, 228, 229, 230, 231, 232, 233, 234, 235, 236, 237, 238, 239, 240, 241, 242, 243, 244, 245, 246, 247, 248, 249, 250, 251, 252, 253, 254, 255, 256, 257, 258, 259, 260, 261, 262, 263, 264, 265, 266, 267, 268, 269, 270, 271, 272, 273, 274, 275, 276, 277, 278, 279, 280, 281, 282, 283, 284, 285, 286, 287, 288, 289, 290, 291, 292, 293, 294, 295, 296, 297, 298, 299, 300, 301, 302, 303, 304, 305, 306, 307, 308, 309, 310, 311, 312, 313, 314, 315, 316, 317, 318, 319, 320, 321, 322, 323, 324, 325, 326, 327, 328, 329, 330, 331, 332, 333, 334, 335, 336, 337, 338, 339, 340, 341, 342, 343, 344, 345, 346, 347, 348, 349, 350, 351, 352, 353, 354, 355, 356, 357, 358, 359, 360, 361, 362, 363, 364, 365, 366, 367, 368, 369, 370, 371, 372, 373, 374, 375, 376, 377, 378, 379, 380, 381, 382, 383, 384, 385, 386, 387, 388, 389, 390, 391, 392, 393, 394, 395, 396, 397, 398, 399, 400, 401, 402, 403, 404, 405, 406, 407, 408, 409, 410, 411, 412, 413, 414, 415, 416, 417, 418, 419, 420, 421, 422, 423, 424, 425, 426, 427, 428, 429, 430, 431, 432, 433, 434, 435, 436, 437, 438, 439, 440, 441, 442, 443, 444, 445, 446, 447, 448, 449, 450, 451, 452, 453, 454, 455, 456, 457, 458, 459, 460, 461, 462, 463, 464, 465, 466, 467, 468, 469, 470, 471, 472, 473, 474, 475, 476, 477, 478, 479, 480, 481, 482, 483, 484, 485, 486, 487, 488, 489, 490, 491, 492, 493, 494, 495, 496, 497, 498, 499, 500, 501, 502, 503, 504, 505, 506, 507, 508, 509, 510, 511, 512, 513, 514, 515, 516, 517, 518, 519, 520, 521, 522, 523, 524, 525, 526, 527, 528, 529, 530, 531, 532, 533, 534, 535, 536, 537, 538, 539, 540, 541, 542, 543, 544, 545, 546, 547, 548, 549, 550, 551, 552, 553, 554, 555, 556, 557, 558, 559, 560, 561, 562, 563, 564, 565, 566, 567, 568, 569, 570, 571, 572, 573, 574, 575, 576, 577, 578, 579, 580, 581, 582, 583, 584, 585, 586, 587, 588, 589, 590, 591, 592, 593, 594, 595, 596, 597, 598, 599, 600],
      "AcquisitionTime": ["190246.895000", "190248.385000", "190249.875000", "190251.365000", "190252.855000", "190254.345000", "190255.835000", "190257.325000", "190258.815000", "190300.305000", "190301.795000", "190303.285000", "190304.775000", "190306.265000", "190307.755000", "190309.245000", "190310.735000", "190312.225000", "190313.715000", "190315.205000", "190316.695000", "190318.185000", "190319.675000", "190321.165000", "190322.655000", "190324.145000", "190325.635000", "190327.125000", "190328.615000", "190330.105000", "190331.595000", "190333.085000", "190334.575000", "190336.065000", "190337.555000", "190339.045000", "190340.535000", "190342.025000", "190343.515000", "190345.005000", "190346.495000", "190347.985000", "190349.475000", "190350.965000", "190352.455000", "190353.945000", "190355.435000", "190356.925000", "190358.415000", "190359.905000", "190401.395000", "190402.885000", "190404.375000", "190405.865000", "190407.355000", "190408.845000", "190410.335000", "190411.825000", "190413.315000", "190414.805000", "190416.295000", "190417.785000", "190419.275000", "190420.765000", "190422.255000", "190423.745000", "190425.235000", "190426.725000", "190428.215000", "190429.705000", "190431.195000", "190432.685000", "190434.175000", "190435.665000", "190437.155000", "190438.645000", "190440.135000", "190441.625000", "190443.115000", "190444.605000", "190446.095000", "190447.585000", "190449.075000", "190450.565000", "190452.055000", "190453.545000", "190455.035000", "190456.525000", "190458.015000", "190459.505000", "190500.995000", "190502.485000", "190503.975000", "190505.465000", "190506.955000", "190508.445000", "190509.935000", "190511.425000", "190512.915000", "190514.405000", "190515.895000", "190517.385000", "190518.875000", "190520.365000", "190521.855000", "190523.345000", "190524.835000", "190526.325000", "190527.815000", "190529.305000", "190530.795000", "190532.285000", "190533.775000", "190535.265000", "190536.755000", "190538.245000", "190539.735000", "190541.225000", "190542.715000", "190544.205000", "190545.695000", "190547.185000", "190548.675000", "190550.165000", "190551.655000", "190553.145000", "190554.635000", "190556.125000", "190557.615000", "190559.105000", "190600.595000", "190602.085000", "190603.575000", "190605.065000", "190606.555000", "190608.045000", "190609.535000", "190611.025000", "190612.515000", "190614.005000", "190615.495000", "190616.985000", "190618.475000", "190619.965000", "190621.455000", "190622.945000", "190624.435000", "190625.925000", "190627.415000", "190628.905000", "190630.395000", "190631.885000", "190633.375000", "190634.865000", "190636.355000", "190637.845000", "190639.335000", "190640.825000", "190642.315000", "190643.805000", "190645.295000", "190646.785000", "190648.275000", "190649.765000", "190651.255000", "190652.745000", "190654.235000", "190655.725000", "190657.215000", "190658.705000", "190700.195000", "190701.685000", "190703.175000", "190704.665000", "190706.155000", "190707.645000", "190709.135000", "190710.625000", "190712.115000", "190713.605000", "190715.095000", "190716.585000", "190718.075000", "190719.565000", "190721.055000", "190722.545000", "190724.035000", "190725.525000", "190727.015000", "190728.505000", "190729.995000", "190731.485000", "190732.975000", "190734.465000", "190735.955000", "190737.445000", "190738.935000", "190740.425000", "190741.915000", "190743.405000", "190744.895000", "190746.385000", "190747.875000", "190749.365000", "190750.855000", "190752.345000", "190753.835000", "190755.325000", "190756.815000", "190758.305000", "190759.795000", "190801.285000", "190802.775000", "190804.265000", "190805.755000", "190807.245000", "190808.735000", "190810.225000", "190811.715000", "190813.205000", "190814.695000", "190816.185000", "190817.675000", "190819.165000", "190820.655000", "190822.145000", "190823.635000", "190825.125000", "190826.615000", "190828.105000", "190829.595000", "190831.085000", "190832.575000", "190834.065000", "190835.555000", "190837.045000", "190838.535000", "190840.025000", "190841.515000", "190843.005000", "190844.495000", "190845.985000", "190847.475000", "190848.965000", "190850.455000", "190851.945000", "190853.435000", "190854.925000", "190856.415000", "190857.905000", "190859.395000", "190900.885000", "190902.375000", "190903.865000", "190905.355000", "190906.845000", "190908.335000", "190909.825000", "190911.315000", "190912.805000", "190914.295000", "190915.785000", "190917.275000", "190918.765000", "190920.255000", "190921.745000", "190923.235000", "190924.725000", "190926.215000", "190927.705000", "190929.195000", "190930.685000", "190932.175000", "190933.665000", "190935.155000", "190936.645000", "190938.135000", "190939.625000", "190941.115000", "190942.605000", "190944.095000", "190945.585000", "190947.075000", "190948.565000", "190950.055000", "190951.545000", "190953.035000", "190954.525000", "190956.015000", "190957.505000", "190958.995000", "191000.485000", "191001.975000", "191003.465000", "191004.955000", "191006.445000", "191007.935000", "191009.425000", "191010.915000", "191012.405000", "191013.895000", "191015.385000", "191016.875000", "191018.365000", "191019.855000", "191021.345000", "191022.835000", "191024.325000", "191025.815000", "191027.305000", "191028.795000", "191030.285000", "191031.775000", "191033.265000", "191034.755000", "191036.245000", "191037.735000", "191039.225000", "191040.715000", "191042.205000", "191043.695000", "191045.185000", "191046.675000", "191048.165000", "191049.655000", "191051.145000", "191052.635000", "191054.125000", "191055.615000", "191057.105000", "191058.595000", "191100.085000", "191101.575000", "191103.065000", "191104.555000", "191106.045000", "191107.535000", "191109.025000", "191110.515000", "191112.005000", "191113.495000", "191114.985000", "191116.475000", "191117.965000", "191119.455000", "191120.945000", "191122.435000", "191123.925000", "191125.415000", "191126.905000", "191128.395000", "191129.885000", "191131.375000", "191132.865000", "191134.355000", "191135.845000", "191137.335000", "191138.825000", "191140.315000", "191141.805000", "191143.295000", "191144.785000", "191146.275000", "191147.765000", "191149.255000", "191150.745000", "191152.235000", "191153.725000", "191155.215000", "191156.705000", "191158.195000", "191159.685000", "191201.175000", "191202.665000", "191204.155000", "191205.645000", "191207.135000", "191208.625000", "191210.115000", "191211.605000", "191213.095000", "191214.585000", "191216.075000", "191217.565000", "191219.055000", "191220.545000", "191222.035000", "191223.525000", "191225.015000", "191226.505000", "191227.995000", "191229.485000", "191230.975000", "191232.465000", "191233.955000", "191235.445000", "191236.935000", "191238.425000", "191239.915000", "191241.405000", "191242.895000", "191244.385000", "191245.875000", "191247.365000", "191248.855000", "191250.345000", "191251.835000", "191253.325000", "191254.815000", "191256.305000", "191257.795000", "191259.285000", "191300.775000", "191302.265000", "191303.755000", "191305.245000", "191306.735000", "191308.225000", "191309.715000", "191311.205000", "191312.695000", "191314.185000", "191315.675000", "191317.165000", "191318.655000", "191320.145000", "191321.635000", "191323.125000", "191324.615000", "191326.105000", "191327.595000", "191329.085000", "191330.575000", "191332.065000", "191333.555000", "191335.045000", "191336.535000", "191338.025000", "191339.515000", "191341.005000", "191342.495000", "191343.985000", "191345.475000", "191346.965000", "191348.455000", "191349.945000", "191351.435000", "191352.925000", "191354.415000", "191355.905000", "191357.395000", "191358.885000", "191400.375000", "191401.865000", "191403.355000", "191404.845000", "191406.335000", "191407.825000", "191409.315000", "191410.805000", "191412.295000", "191413.785000", "191415.275000", "191416.765000", "191418.255000", "191419.745000", "191421.235000", "191422.725000", "191424.215000", "191425.705000", "191427.195000", "191428.685000", "191430.175000", "191431.665000", "191433.155000", "191434.645000", "191436.135000", "191437.625000", "191439.115000", "191440.605000", "191442.095000", "191443.585000", "191445.075000", "191446.565000", "191448.055000", "191449.545000", "191451.035000", "191452.525000", "191454.015000", "191455.505000", "191456.995000", "191458.485000", "191459.975000", "191501.465000", "191502.955000", "191504.445000", "191505.935000", "191507.425000", "191508.915000", "191510.405000", "191511.895000", "191513.385000", "191514.875000", "191516.365000", "191517.855000", "191519.345000", "191520.835000", "191522.325000", "191523.815000", "191525.305000", "191526.795000", "191528.285000", "191529.775000", "191531.265000", "191532.755000", "191534.245000", "191535.735000", "191537.225000", "191538.715000", "191540.205000", "191541.695000", "191543.185000", "191544.675000", "191546.165000", "191547.655000", "191549.145000", "191550.635000", "191552.125000", "191553.615000", "191555.105000", "191556.595000", "191558.085000", "191559.575000", "191601.065000", "191602.555000", "191604.045000", "191605.535000", "191607.025000", "191608.515000", "191610.005000", "191611.495000", "191612.985000", "191614.475000", "191615.965000", "191617.455000", "191618.945000", "191620.435000", "191621.925000", "191623.415000", "191624.905000", "191626.395000", "191627.885000", "191629.375000", "191630.865000", "191632.355000", "191633.845000", "191635.335000", "191636.825000", "191638.315000", "191639.805000", "191641.295000", "191642.785000", "191644.275000", "191645.765000", "191647.255000", "191648.745000", "191650.235000", "191651.725000", "191653.215000", "191654.705000", "191656.195000", "191657.685000", "191659.175000", "191700.665000", "191702.155000", "191703.645000", "191705.135000", "191706.625000", "191708.115000", "191709.605000", "191711.095000", "191712.585000", "191714.075000", "191715.565000", "191717.055000", "191718.545000", "191720.035000", "191721.525000", "191723.015000", "191724.505000", "191725.995000", "191727.485000", "191728.975000", "191730.465000", "191731.955000", "191733.445000", "191734.935000", "191736.425000", "191737.915000", "191739.405000"],
      "ContentTime": ["190402.736000", "190402.739000", "190402.742000", "190402.744000", "190402.747000", "190402.749000", "190402.752000", "190402.755000", "190402.757000", "190402.760000", "190402.762000", "190402.765000", "190402.767000", "190402.770000", "190402.772000", "190402.775000", "190402.777000", "190402.780000", "190402.782000", "190402.785000", "190402.787000", "190402.790000", "190402.792000", "190402.795000", "190402.797000", "190402.800000", "190402.803000", "190422.694000", "190422.697000", "190422.699000", "190422.702000", "190422.704000", "190422.707000", "190422.709000", "190422.712000", "190422.714000", "190422.717000", "190422.720000", "190422.722000", "190422.724000", "190422.727000", "190422.730000", "190422.732000", "190422.734000", "190422.737000", "190422.740000", "190422.742000", "190442.693000", "190442.696000", "190442.698000", "190442.700000", "190442.703000", "190442.705000", "190442.708000", "190442.710000", "190442.713000", "190442.715000", "190442.718000", "190442.720000", "190442.723000", "190442.725000", "190442.728000", "190442.730000", "190442.733000", "190442.735000", "190442.738000", "190442.740000", "190502.692000", "190502.695000", "190502.698000", "190502.701000", "190502.703000", "190502.706000", "190502.708000", "190502.711000", "190502.713000", "190502.725000", "190502.728000", "190502.730000", "190502.733000", "190502.735000", "190502.738000", "190502.740000", "190502.743000", "190502.745000", "190502.748000", "190502.750000", "190542.724000", "190542.727000", "190542.729000", "190542.732000", "190542.734000", "190542.737000", "190542.739000", "190542.742000", "190542.744000", "190542.747000", "190542.749000", "190542.752000", "190542.755000", "190542.757000", "190542.760000", "190542.762000", "190542.765000", "190542.767000", "190542.770000", "190542.772000", "190542.775000", "190542.777000", "190542.780000", "190542.783000", "190542.785000", "190542.787000", "190542.790000", "190542.793000", "190542.795000", "190542.798000", "190622.714000", "190622.717000", "190622.719000", "190622.722000", "190622.724000", "190622.727000", "190622.729000", "190622.731000", "190622.734000", "190622.736000", "190622.739000", "190622.742000", "190622.744000", "190622.746000", "190622.749000", "190622.751000", "190622.754000", "190622.756000", "190622.759000", "190622.761000", "190622.764000", "190622.766000", "190622.769000", "190622.771000", "190622.774000", "190622.776000", "190622.779000", "190702.716000", "190702.718000", "190702.721000", "190702.723000", "190702.726000", "190702.729000", "190702.731000", "190702.734000", "190702.736000", "190702.739000", "190702.741000", "190702.744000", "190702.746000", "190702.749000", "190702.751000", "190702.754000", "190702.756000", "190702.758000", "190702.761000", "190702.763000", "190702.766000", "190702.768000", "190702.771000", "190702.773000", "190702.776000", "190702.778000", "190702.781000", "190742.718000", "190742.720000", "190742.723000", "190742.725000", "190742.728000", "190742.730000", "190742.733000", "190742.736000", "190742.738000", "190742.740000", "190742.743000", "190742.745000", "190742.748000", "190742.750000", "190742.753000", "190742.755000", "190742.758000", "190742.760000", "190742.763000", "190742.765000", "190742.768000", "190742.770000", "190742.773000", "190742.775000", "190742.778000", "190742.780000", "190742.783000", "190822.721000", "190822.724000", "190822.726000", "190822.729000", "190822.731000", "190822.734000", "190822.736000", "190822.739000", "190822.741000", "190822.744000", "190822.747000", "190822.749000", "190822.752000", "190822.754000", "190822.757000", "190822.759000", "190822.762000", "190822.764000", "190822.767000", "190822.769000", "190822.772000", "190822.774000", "190822.777000", "190822.780000", "190822.782000", "190822.785000", "190822.787000", "190902.762000", "190902.765000", "190902.768000", "190902.770000", "190902.773000", "190902.775000", "190902.778000", "190902.780000", "190902.783000", "190902.785000", "190902.788000", "190902.790000", "190902.793000", "190902.795000", "190902.797000", "190902.800000", "190902.802000", "190902.805000", "190902.807000", "190902.810000", "190902.812000", "190902.815000", "190902.817000", "190902.820000", "190902.822000", "190902.825000", "190942.702000", "190942.704000", "190942.707000", "190942.709000", "190942.712000", "190942.714000", "190942.717000", "190942.719000", "190942.722000", "190942.724000", "190942.727000", "190942.729000", "190942.732000", "190942.734000", "190942.737000", "190942.739000", "190942.742000", "190942.744000", "190942.747000", "190942.749000", "190942.752000", "190942.754000", "190942.758000", "190942.761000", "190942.764000", "190942.766000", "190942.769000", "191022.716000", "191022.719000", "191022.722000", "191022.724000", "191022.727000", "191022.729000", "191022.732000", "191022.734000", "191022.737000", "191022.739000", "191022.742000", "191022.744000", "191022.747000", "191022.749000", "191022.752000", "191022.754000", "191022.757000", "191022.759000", "191022.762000", "191022.764000", "191022.767000", "191022.769000", "191022.772000", "191022.774000", "191022.777000", "191022.779000", "191022.782000", "191102.724000", "191102.727000", "191102.730000", "191102.732000", "191102.735000", "191102.737000", "191102.740000", "191102.743000", "191102.745000", "191102.748000", "191102.750000", "191102.753000", "191102.755000", "191102.758000", "191102.760000", "191102.763000", "191102.765000", "191102.768000", "191102.771000", "191102.773000", "191102.776000", "191102.778000", "191102.781000", "191102.784000", "191102.786000", "191102.789000", "191102.791000", "191142.738000", "191142.741000", "191142.743000", "191142.746000", "191142.748000", "191142.751000", "191142.753000", "191142.756000", "191142.758000", "191142.761000", "191142.763000", "191142.766000", "191142.768000", "191142.771000", "191142.773000", "191142.776000", "191142.778000", "191142.781000", "191142.783000", "191142.786000", "191142.788000", "191142.791000", "191142.793000", "191142.796000", "191142.798000", "191142.801000", "191142.803000", "191222.729000", "191222.732000", "191222.734000", "191222.737000", "191222.741000", "191222.743000", "191222.746000", "191222.749000", "191222.751000", "191222.753000", "191222.756000", "191222.759000", "191222.761000", "191222.764000", "191222.766000", "191222.769000", "191222.771000", "191222.774000", "191222.776000", "191222.779000", "191222.782000", "191222.784000", "191222.786000", "191222.789000", "191222.792000", "191222.794000", "191222.797000", "191303.109000", "191303.112000", "191303.114000", "191303.117000", "191303.120000", "191303.122000", "191303.125000", "191303.127000", "191303.130000", "191303.132000", "191303.135000", "191303.137000", "191303.140000", "191303.142000", "191303.145000", "191303.147000", "191303.150000", "191303.153000", "191303.155000", "191303.158000", "191303.222000", "191303.224000", "191303.227000", "191303.229000", "191303.232000", "191303.234000", "191303.237000", "191342.707000", "191342.710000", "191342.712000", "191342.715000", "191342.717000", "191342.720000", "191342.722000", "191342.724000", "191342.727000", "191342.730000", "191342.732000", "191342.735000", "191342.737000", "191342.740000", "191342.742000", "191342.745000", "191342.747000", "191342.750000", "191342.752000", "191342.755000", "191342.757000", "191342.760000", "191342.762000", "191342.765000", "191342.768000", "191342.770000", "191422.714000", "191422.716000", "191422.719000", "191422.721000", "191422.724000", "191422.726000", "191422.729000", "191422.731000", "191422.734000", "191422.736000", "191422.739000", "191422.741000", "191422.744000", "191422.746000", "191422.749000", "191422.751000", "191422.754000", "191422.756000", "191422.759000", "191422.761000", "191422.764000", "191422.766000", "191422.769000", "191422.775000", "191422.777000", "191422.780000", "191422.782000", "191442.651000", "191442.653000", "191442.656000", "191442.658000", "191442.661000", "191442.663000", "191442.666000", "191442.668000", "191442.671000", "191442.673000", "191442.676000", "191442.678000", "191442.681000", "191442.683000", "191522.723000", "191522.725000", "191522.728000", "191522.730000", "191522.733000", "191522.735000", "191522.738000", "191522.740000", "191522.743000", "191522.745000", "191522.748000", "191522.750000", "191522.753000", "191522.755000", "191522.758000", "191522.760000", "191522.763000", "191522.765000", "191522.768000", "191522.770000", "191522.773000", "191522.775000", "191522.778000", "191522.781000", "191522.783000", "191522.785000", "191602.714000", "191602.717000", "191602.720000", "191602.722000", "191602.724000", "191602.727000", "191602.729000", "191602.732000", "191602.734000", "191602.737000", "191602.739000", "191602.742000", "191602.744000", "191602.747000", "191602.749000", "191602.752000", "191602.754000", "191602.757000", "191602.760000", "191602.762000", "191602.765000", "191602.767000", "191602.770000", "191602.772000", "191602.775000", "191602.777000", "191602.780000", "191642.774000", "191642.780000", "191642.783000", "191642.785000", "191642.788000", "191642.790000", "191642.793000", "191642.795000", "191642.798000", "191642.800000", "191642.803000", "191642.805000", "191642.808000", "191642.810000", "191642.813000", "191642.815000", "191642.818000", "191642.820000", "191642.823000", "191642.825000", "191642.828000", "191642.830000", "191642.833000", "191642.835000", "191642.838000", "191642.840000", "191642.843000", "191722.721000", "191722.724000", "191722.726000", "191722.729000", "191722.732000", "191722.735000", "191722.737000", "191722.740000", "191722.743000", "191722.745000", "191722.748000", "191722.751000", "191722.753000", "191722.762000", "191722.764000", "191722.767000", "191722.769000", "191722.772000", "191722.774000", "191722.777000", "191722.779000", "191722.782000", "191722.785000", "191722.787000", "191722.790000", "191722.792000", "191722.795000", "191741.346000", "191741.348000", "191741.351000", "191741.353000", "191741.356000", "191741.358000", "191741.361000", "191741.364000", "191741.366000", "191741.368000", "191741.371000", "191741.374000", "191741.376000"],
