{
  "AcquisitionMatrixPE": 104,
  "AcquisitionNumber": 1,
  "AcquisitionTime": "18:23:12.712500",
  "BandwidthPerPixelPhaseEncode": 17.17,
  "BaseResolution": 104,
  "BodyPartExamined": "BRAIN",
  "CoilCombinationMethod": "Sum of Squares",
  "ConsistencyInfo": "N4_VE11C_LATEST_20160120",
  "ConversionSoftware": "dcm2niix",
  "ConversionSoftwareVersion": "v1.0.20220505",
  "DerivedVendorReportedEchoSpacing": 0.000560011,
  "DeviceSerialNumber": "167006",
  "DwellTime": 2.1e-06,
  "EchoTime": 0.037,
  "EchoTime1": 0.037,
  "EchoTime2": 0.001,
  "EchoTrainLength": 104,
  "EffectiveEchoSpacing": 0.000560011,
  "FlipAngle": 52,
  "HeudiconvVersion": "0.5.3.post811+g6206e14",
  "ImageComments": "Unaliased MB4/PE3/LB",
  "ImageOrientationPatientDICOM": [0.999923, -0.00879741, 0.00872216, 0.0113442, 0.933144, -0.359324],
  "ImageOrientationText": "Tra>Cor(-21.1)>Sag(0.3)",
  "ImageType": [
    "ORIGINAL",
    "PRIMARY",
    "P",
    "MB",
    "ND",
    "MOSAIC",
    "PHASE"
],
  "ImagingFrequency": 123.26,
  "InPlanePhaseEncodingDirectionDICOM": "COL",
  "InstitutionAddress": "Chemin Queen-Mary 4565,Montreal,District,CA,H3W 1W5",
  "InstitutionName": "IUGM",
  "InstitutionalDepartmentName": "Department",
  "MRAcquisitionType": "2D",
  "MagneticFieldStrength": 3,
  "Manufacturer": "Siemens",
  "ManufacturersModelName": "Prisma_fit",
  "MatrixCoilMode": "SENSE",
  "Modality": "MR",
  "MultibandAccelerationFactor": 4,
  "PartialFourier": 1,
  "PatientPosition": "HFS",
  "PercentPhaseFOV": 100,
  "PercentSampling": 100,
  "PhaseEncodingDirection": "j",
  "PhaseEncodingSteps": 104,
  "PhaseResolution": 1,
  "PixelBandwidth": 2290,
  "ProcedureStepDescription": "games^mariostars",
  "ProtocolName": "func_task-mariostars_run-04",
  "PulseSequenceDetails": "%CustomerSeq%\\cmrr_mbep2d_bold",
  "ReceiveCoilActiveElements": "HC1-7;NC1,2",
  "ReceiveCoilName": "HeadNeck_64",
  "ReconMatrixPE": 104,
  "RepetitionTime": 1.49,
  "SAR": 0.0644135,
  "ScanOptions": "FS",
  "ScanningSequence": "EP",
  "SequenceName": "epfid2d1_104",
  "SequenceVariant": "SK\\SS",
  "SeriesDescription": "func_task-mariostars_run-04",
  "SeriesNumber": 21,
  "ShimSetting": [600, -7242, -8807, 471, 11, -283, 1, 27],
  "SliceThickness": 2,
  "SliceTiming": [0, 0.785, 0.0975, 0.8825, 0.1975, 0.98, 0.295, 1.0775, 0.3925, 1.1775, 0.49, 1.275, 0.5875, 1.3725, 0.6875, 0, 0.785, 0.0975, 0.8825, 0.1975, 0.98, 0.295, 1.0775, 0.3925, 1.1775, 0.49, 1.275, 0.5875, 1.3725, 0.6875, 0, 0.785, 0.0975, 0.8825, 0.1975, 0.98, 0.295, 1.0775, 0.3925, 1.1775, 0.49, 1.275, 0.5875, 1.3725, 0.6875, 0, 0.785, 0.0975, 0.8825, 0.1975, 0.98, 0.295, 1.0775, 0.3925, 1.1775, 0.49, 1.275, 0.5875, 1.3725, 0.6875],
  "SoftwareVersions": "syngo MR E11",
  "SpacingBetweenSlices": 2,
  "StationName": "MRC35049",
  "TaskName": "mariostars",
  "TotalReadoutTime": 0.0576811,
  "TxRefAmp": 282.326,
  "WipMemBlock": "19fdc125-2d0f-4cfb-8e3e-f250a55a9889||Sequence: R017 ve11c/master r/75a17815+; Jun 28 2022 16:32:11 by eja",
  "dcmmeta_affine": [
    [-1.9998465776443481, 0.022688409313559532, 0.009955830872058868, 102.74142456054688],
    [0.017594829201698303, 1.8662880659103394, -0.7187899947166443, -67.89131927490234],
    [0.017444325610995293, 0.718647301197052, 1.8663444519042969, -62.61528015136719],
    [0.0, 0.0, 0.0, 1.0]
],
  "dcmmeta_reorient_transform": [
    [0.0, -1.0, 0.0, 103.0],
    [1.0, 0.0, 0.0, 0.0],
    [0.0, 0.0, 1.0, 0.0],
    [0.0, 0.0, 0.0, 1.0]
],
  "dcmmeta_shape": [104, 104, 60, 430],
  "dcmmeta_slice_dim": 2,
  "dcmmeta_version": 0.6,
  "global": {
    "const": {
      "AcquisitionMatrix": [104, 0, 0, 104],
      "AngioFlag": "N",
      "BitsAllocated": 16,
      "BitsStored": 16,
      "BodyPartExamined": "BRAIN",
      "Columns": 832,
      "EchoNumbers": 1,
      "EchoTime": 37.0,
      "EchoTrainLength": 104,
      "FlipAngle": 52.0,
      "HighBit": 15,
      "ImageOrientationPatient": [0.99992326174086, -0.008797414482, 0.00872216303166, 0.01134420497795, 0.93314405427534, -0.3593236465695],
      "ImagePositionPatient": [-841.28104745386, -797.26070995684, 266.64327106496],
      "ImageType": [
        "ORIGINAL",
        "PRIMARY",
        "P",
        "MB",
        "ND",
        "MOSAIC"
],
      "ImagedNucleus": "1H",
      "ImagingFrequency": 123.260214,
      "InPlanePhaseEncodingDirection": "COL",
      "LargestImagePixelValue": 4095,
      "MRAcquisitionType": "2D",
      "MagneticFieldStrength": 3.0,
      "Manufacturer": "SIEMENS",
      "ManufacturerModelName": "Prisma_fit",
      "Modality": "MR",
      "NumberOfAverages": 1.0,
      "NumberOfPhaseEncodingSteps": 104,
      "PercentPhaseFieldOfView": 100.0,
      "PercentSampling": 100.0,
      "PerformedProcedureStepStartTime": "170509.622000",
      "PhotometricInterpretation": "MONOCHROME2",
      "PixelBandwidth": 2290.0,
      "PixelRepresentation": 0,
      "PixelSpacing": [2.0, 2.0],
      "ProtocolName": "func_task-mariostars_run-04",
      "RepetitionTime": 1490.0,
      "RescaleIntercept": -4096.0,
      "RescaleSlope": 2.0,
      "RescaleType": "US",
      "Rows": 832,
      "SAR": 0.06441344978651,
      "SamplesPerPixel": 1,
      "ScanOptions": "FS",
      "ScanningSequence": "EP",
      "SequenceName": "epfid2d1_104",
      "SequenceVariant": [
        "SK",
        "SS"
],
      "SeriesDescription": "func_task-mariostars_run-04",
      "SeriesNumber": 21,
      "SeriesTime": "182422.721000",
      "SliceLocation": -33.519601616038,
      "SliceThickness": 2.0,
      "SmallestImagePixelValue": 0,
      "SoftwareVersions": "syngo MR E11",
      "SpacingBetweenSlices": 1.9999999625522,
      "SpecificCharacterSet": "ISO_IR 100",
      "StudyID": "1",
      "StudyTime": "170509.530000",
      "TransmitCoilName": "Body",
      "VariableFlipAngleFlag": "N",
      "WindowCenterWidthExplanation": "Algo1",
      "dBdt": 0.0},
    "slices": {}
  },
  "time": {
    "samples": {
      "AcquisitionNumber": [1, 2, 3, 4, 5, 6, 7, 8, 9, 10, 11, 12, 13, 14, 15, 16, 17, 18, 19, 20, 21, 22, 23, 24, 25, 26, 27, 28, 29, 30, 31, 32, 33, 34, 35, 36, 37, 38, 39, 40, 41, 42, 43, 44, 45, 46, 47, 48, 49, 50, 51, 52, 53, 54, 55, 56, 57, 58, 59, 60, 61, 62, 63, 64, 65, 66, 67, 68, 69, 70, 71, 72, 73, 74, 75, 76, 77, 78, 79, 80, 81, 82, 83, 84, 85, 86, 87, 88, 89, 90, 91, 92, 93, 94, 95, 96, 97, 98, 99, 100, 101, 102, 103, 104, 105, 106, 107, 108, 109, 110, 111, 112, 113, 114, 115, 116, 117, 118, 119, 120, 121, 122, 123, 124, 125, 126, 127, 128, 129, 130, 131, 132, 133, 134, 135, 136, 137, 138, 139, 140, 141, 142, 143, 144, 145, 146, 147, 148, 149, 150, 151, 152, 153, 154, 155, 156, 157, 158, 159, 160, 161, 162, 163, 164, 165, 166, 167, 168, 169, 170, 171, 172, 173, 174, 175, 176, 177, 178, 179, 180, 181, 182, 183, 184, 185, 186, 187, 188, 189, 190, 191, 192, 193, 194, 195, 196, 197, 198, 199, 200, 201, 202, 203, 204, 205, 206, 207, 208, 209, 210, 211, 212, 213, 214, 215, 216, 217, 218, 219, 220, 221, 222, 223, 224, 225, 226, 227, 228, 229, 230, 231, 232, 233, 234, 235, 236, 237, 238, 239, 240, 241, 242, 243, 244, 245, 246, 247, 248, 249, 250, 251, 252, 253, 254, 255, 256, 257, 258, 259, 260, 261, 262, 263, 264, 265, 266, 267, 268, 269, 270, 271, 272, 273, 274, 275, 276, 277, 278, 279, 280, 281, 282, 283, 284, 285, 286, 287, 288, 289, 290, 291, 292, 293, 294, 295, 296, 297, 298, 299, 300, 301, 302, 303, 304, 305, 306, 307, 308, 309, 310, 311, 312, 313, 314, 315, 316, 317, 318, 319, 320, 321, 322, 323, 324, 325, 326, 327, 328, 329, 330, 331, 332, 333, 334, 335, 336, 337, 338, 339, 340, 341, 342, 343, 344, 345, 346, 347, 348, 349, 350, 351, 352, 353, 354, 355, 356, 357, 358, 359, 360, 361, 362, 363, 364, 365, 366, 367, 368, 369, 370, 371, 372, 373, 374, 375, 376, 377, 378, 379, 380, 381, 382, 383, 384, 385, 386, 387, 388, 389, 390, 391, 392, 393, 394, 395, 396, 397, 398, 399, 400, 401, 402, 403, 404, 405, 406, 407, 408, 409, 410, 411, 412, 413, 414, 415, 416, 417, 418, 419, 420, 421, 422, 423, 424, 425, 426, 427, 428, 429, 430],
      "AcquisitionTime": ["182312.712500", "182314.202500", "182315.692500", "182317.182500", "182318.672500", "182320.162500", "182321.652500", "182323.142500", "182324.632500", "182326.122500", "182327.612500", "182329.102500", "182330.592500", "182332.082500", "182333.572500", "182335.062500", "182336.552500", "182338.042500", "182339.532500", "182341.022500", "182342.512500", "182344.002500", "182345.492500", "182346.982500", "182348.472500", "182349.962500", "182351.452500", "182352.942500", "182354.432500", "182355.922500", "182357.412500", "182358.902500", "182400.392500", "182401.882500", "182403.372500", "182404.862500", "182406.352500", "182407.842500", "182409.332500", "182410.822500", "182412.312500", "182413.802500", "182415.292500", "182416.782500", "182418.272500", "182419.762500", "182421.252500", "182422.742500", "182424.232500", "182425.722500", "182427.212500", "182428.702500", "182430.192500", "182431.682500", "182433.172500", "182434.662500", "182436.152500", "182437.642500", "182439.132500", "182440.622500", "182442.112500", "182443.602500", "182445.092500", "182446.582500", "182448.072500", "182449.562500", "182451.052500", "182452.542500", "182454.032500", "182455.522500", "182457.012500", "182458.502500", "182459.992500", "182501.482500", "182502.972500", "182504.462500", "182505.952500", "182507.442500", "182508.932500", "182510.422500", "182511.912500", "182513.402500", "182514.892500", "182516.382500", "182517.872500", "182519.362500", "182520.852500", "182522.342500", "182523.832500", "182525.322500", "182526.812500", "182528.302500", "182529.792500", "182531.282500", "182532.772500", "182534.262500", "182535.752500", "182537.242500", "182538.732500", "182540.222500", "182541.712500", "182543.202500", "182544.692500", "182546.182500", "182547.672500", "182549.162500", "182550.652500", "182552.142500", "182553.632500", "182555.122500", "182556.612500", "182558.102500", "182559.592500", "182601.082500", "182602.572500", "182604.062500", "182605.552500", "182607.042500", "182608.532500", "182610.022500", "182611.512500", "182613.002500", "182614.492500", "182615.982500", "182617.472500", "182618.962500", "182620.452500", "182621.942500", "182623.432500", "182624.922500", "182626.412500", "182627.902500", "182629.392500", "182630.882500", "182632.372500", "182633.862500", "182635.352500", "182636.842500", "182638.332500", "182639.822500", "182641.312500", "182642.802500", "182644.292500", "182645.782500", "182647.272500", "182648.762500", "182650.252500", "182651.742500", "182653.232500", "182654.722500", "182656.212500", "182657.702500", "182659.192500", "182700.682500", "182702.172500", "182703.662500", "182705.152500", "182706.642500", "182708.132500", "182709.622500", "182711.112500", "182712.602500", "182714.092500", "182715.582500", "182717.072500", "182718.562500", "182720.052500", "182721.542500", "182723.032500", "182724.522500", "182726.012500", "182727.502500", "182728.992500", "182730.482500", "182731.972500", "182733.462500", "182734.952500", "182736.442500", "182737.932500", "182739.422500", "182740.912500", "182742.402500", "182743.892500", "182745.382500", "182746.872500", "182748.362500", "182749.852500", "182751.342500", "182752.832500", "182754.322500", "182755.812500", "182757.302500", "182758.792500", "182800.282500", "182801.772500", "182803.262500", "182804.752500", "182806.242500", "182807.732500", "182809.222500", "182810.712500", "182812.202500", "182813.692500", "182815.182500", "182816.672500", "182818.162500", "182819.652500", "182821.142500", "182822.632500", "182824.122500", "182825.612500", "182827.102500", "182828.592500", "182830.082500", "182831.572500", "182833.062500", "182834.552500", "182836.042500", "182837.532500", "182839.022500", "182840.512500", "182842.002500", "182843.492500", "182844.982500", "182846.472500", "182847.962500", "182849.452500", "182850.942500", "182852.432500", "182853.922500", "182855.412500", "182856.902500", "182858.392500", "182859.882500", "182901.372500", "182902.862500", "182904.352500", "182905.842500", "182907.332500", "182908.822500", "182910.312500", "182911.802500", "182913.292500", "182914.782500", "182916.272500", "182917.762500", "182919.252500", "182920.742500", "182922.232500", "182923.722500", "182925.212500", "182926.702500", "182928.192500", "182929.682500", "182931.172500", "182932.662500", "182934.152500", "182935.642500", "182937.132500", "182938.622500", "182940.112500", "182941.602500", "182943.092500", "182944.582500", "182946.072500", "182947.562500", "182949.052500", "182950.542500", "182952.032500", "182953.522500", "182955.012500", "182956.502500", "182957.992500", "182959.482500", "183000.972500", "183002.462500", "183003.952500", "183005.442500", "183006.932500", "183008.422500", "183009.912500", "183011.402500", "183012.892500", "183014.382500", "183015.872500", "183017.362500", "183018.852500", "183020.342500", "183021.832500", "183023.322500", "183024.812500", "183026.302500", "183027.792500", "183029.282500", "183030.772500", "183032.262500", "183033.752500", "183035.242500", "183036.732500", "183038.222500", "183039.712500", "183041.202500", "183042.692500", "183044.182500", "183045.672500", "183047.162500", "183048.652500", "183050.142500", "183051.632500", "183053.122500", "183054.612500", "183056.102500", "183057.592500", "183059.082500", "183100.572500", "183102.062500", "183103.552500", "183105.042500", "183106.532500", "183108.022500", "183109.512500", "183111.002500", "183112.492500", "183113.982500", "183115.472500", "183116.962500", "183118.452500", "183119.942500", "183121.432500", "183122.922500", "183124.412500", "183125.902500", "183127.392500", "183128.882500", "183130.372500", "183131.862500", "183133.352500", "183134.842500", "183136.332500", "183137.822500", "183139.312500", "183140.802500", "183142.292500", "183143.782500", "183145.272500", "183146.762500", "183148.252500", "183149.742500", "183151.232500", "183152.722500", "183154.212500", "183155.702500", "183157.192500", "183158.682500", "183200.172500", "183201.662500", "183203.152500", "183204.642500", "183206.132500", "183207.622500", "183209.112500", "183210.602500", "183212.092500", "183213.582500", "183215.072500", "183216.562500", "183218.052500", "183219.542500", "183221.032500", "183222.522500", "183224.012500", "183225.502500", "183226.992500", "183228.482500", "183229.972500", "183231.462500", "183232.952500", "183234.442500", "183235.932500", "183237.422500", "183238.912500", "183240.402500", "183241.892500", "183243.382500", "183244.872500", "183246.362500", "183247.852500", "183249.342500", "183250.832500", "183252.322500", "183253.812500", "183255.302500", "183256.792500", "183258.282500", "183259.772500", "183301.262500", "183302.752500", "183304.242500", "183305.732500", "183307.222500", "183308.712500", "183310.202500", "183311.692500", "183313.182500", "183314.672500", "183316.162500", "183317.652500", "183319.142500", "183320.632500", "183322.122500", "183323.612500", "183325.102500", "183326.592500", "183328.082500", "183329.572500", "183331.062500", "183332.552500", "183334.042500", "183335.532500", "183337.022500", "183338.512500", "183340.002500", "183341.492500", "183342.982500", "183344.472500", "183345.962500", "183347.452500", "183348.942500", "183350.432500", "183351.922500"],
      "ContentTime": ["182422.723000", "182422.726000", "182422.728000", "182422.731000", "182422.733000", "182422.736000", "182422.745000", "182422.747000", "182422.750000", "182422.752000", "182422.755000", "182422.757000", "182422.760000", "182422.762000", "182422.765000", "182422.767000", "182422.770000", "182422.772000", "182422.775000", "182422.777000", "182442.680000", "182442.683000", "182442.685000", "182442.688000", "182442.690000", "182442.693000", "182442.695000", "182442.698000", "182442.700000", "182442.703000", "182442.705000", "182442.708000", "182442.710000", "182442.712000", "182442.715000", "182442.717000", "182442.720000", "182442.722000", "182442.725000", "182442.727000", "182503.111000", "182503.114000", "182503.117000", "182503.119000", "182503.121000", "182503.124000", "182503.126000", "182503.129000", "182503.131000", "182503.134000", "182503.136000", "182503.139000", "182503.141000", "182503.144000", "182503.146000", "182503.148000", "182503.151000", "182503.153000", "182503.156000", "182503.158000", "182522.683000", "182522.685000", "182522.688000", "182522.690000", "182522.693000", "182522.695000", "182522.698000", "182522.700000", "182522.703000", "182522.705000", "182522.708000", "182522.710000", "182522.713000", "182522.715000", "182522.718000", "182522.720000", "182522.723000", "182522.725000", "182522.728000", "182522.730000", "182522.732000", "182602.737000", "182602.740000", "182602.742000", "182602.745000", "182602.747000", "182602.750000", "182602.752000", "182602.754000", "182602.757000", "182602.760000", "182602.762000", "182602.765000", "182602.767000", "182602.769000", "182602.772000", "182602.774000", "182602.785000", "182602.788000", "182602.790000", "182602.793000", "182602.795000", "182602.798000", "182602.800000", "182602.803000", "182602.805000", "182602.808000", "182602.810000", "182602.813000", "182602.815000", "182602.818000", "182602.820000", "182602.823000", "182642.716000", "182642.719000", "182642.722000", "182642.724000", "182642.727000", "182642.729000", "182642.732000", "182642.734000", "182642.737000", "182642.739000", "182642.742000", "182642.744000", "182642.747000", "182642.749000", "182642.752000", "182642.754000", "182642.757000", "182642.759000", "182642.762000", "182642.764000", "182642.767000", "182642.769000", "182642.772000", "182642.774000", "182642.777000", "182642.779000", "182642.782000", "182722.724000", "182722.727000", "182722.744000", "182722.747000", "182722.749000", "182722.752000", "182722.754000", "182722.757000", "182722.759000", "182722.762000", "182722.765000", "182722.767000", "182722.770000", "182722.772000", "182722.775000", "182722.777000", "182722.780000", "182722.789000", "182722.792000", "182722.794000", "182722.797000", "182722.799000", "182722.802000", "182722.805000", "182722.807000", "182722.809000", "182722.812000", "182802.720000", "182802.723000", "182802.725000", "182802.728000", "182802.730000", "182802.733000", "182802.735000", "182802.738000", "182802.740000", "182802.743000", "182802.745000", "182802.748000", "182802.750000", "182802.753000", "182802.755000", "182802.758000", "182802.760000", "182802.762000", "182802.765000", "182802.768000", "182802.770000", "182802.773000", "182802.775000", "182802.778000", "182802.780000", "182802.782000", "182842.718000", "182842.720000", "182842.723000", "182842.726000", "182842.729000", "182842.731000", "182842.734000", "182842.736000", "182842.739000", "182842.741000", "182842.744000", "182842.746000", "182842.749000", "182842.751000", "182842.754000", "182842.756000", "182842.759000", "182842.761000", "182842.764000", "182842.766000", "182842.769000", "182842.772000", "182842.774000", "182842.777000", "182842.779000", "182842.782000", "182842.784000", "182922.719000", "182922.722000", "182922.724000", "182922.727000", "182922.729000", "182922.732000", "182922.735000", "182922.737000", "182922.740000", "182922.742000", "182922.745000", "182922.747000", "182922.750000", "182922.752000", "182922.755000", "182922.757000", "182922.759000", "182922.762000", "182922.771000", "182922.773000", "182922.776000", "182922.778000", "182922.781000", "182922.783000", "182922.786000", "182922.788000", "182922.791000", "183002.721000", "183002.724000", "183002.727000", "183002.729000", "183002.732000", "183002.734000", "183002.737000", "183002.739000", "183002.742000", "183002.744000", "183002.747000", "183002.750000", "183002.752000", "183002.755000", "183002.757000", "183002.760000", "183002.762000", "183002.765000", "183002.767000", "183002.770000", "183002.773000", "183002.775000", "183002.778000", "183002.780000", "183002.783000", "183002.785000", "183002.788000", "183042.742000", "183042.744000", "183042.747000", "183042.750000", "183042.752000", "183042.755000", "183042.757000", "183042.760000", "183042.762000", "183042.765000", "183042.767000", "183042.770000", "183042.772000", "183042.775000", "183042.777000", "183042.780000", "183042.783000", "183042.785000", "183042.788000", "183042.790000", "183042.793000", "183042.795000", "183042.798000", "183042.800000", "183042.803000", "183042.805000", "183042.808000", "183122.721000", "183122.724000", "183122.726000", "183122.729000", "183122.731000", "183122.734000", "183122.736000", "183122.739000", "183122.741000", "183122.744000", "183122.746000", "183122.749000", "183122.752000", "183122.754000", "183122.757000", "183122.759000", "183122.762000", "183122.764000", "183122.767000", "183122.769000", "183122.772000", "183122.774000", "183122.777000", "183122.779000", "183122.782000", "183122.784000", "183122.787000", "183202.723000", "183202.726000", "183202.729000", "183202.731000", "183202.734000", "183202.736000", "183202.739000", "183202.741000", "183202.744000", "183202.746000", "183202.749000", "183202.751000", "183202.754000", "183202.756000", "183202.759000", "183202.761000", "183202.764000", "183202.766000", "183202.769000", "183202.771000", "183202.774000", "183202.776000", "183202.779000", "183202.781000", "183202.784000", "183202.786000", "183202.789000", "183242.708000", "183242.711000", "183242.714000", "183242.716000", "183242.719000", "183242.721000", "183242.724000", "183242.726000", "183242.729000", "183242.731000", "183242.735000", "183242.738000", "183242.741000", "183242.744000", "183242.747000", "183242.750000", "183242.754000", "183242.756000", "183242.759000", "183242.761000", "183242.764000", "183242.767000", "183242.769000", "183242.772000", "183242.774000", "183242.777000", "183322.735000", "183322.738000", "183322.740000", "183322.742000", "183322.745000", "183322.747000", "183322.750000", "183322.753000", "183322.755000", "183322.758000", "183322.760000", "183322.762000", "183322.765000", "183322.767000", "183322.770000", "183322.772000", "183322.775000", "183322.777000", "183322.780000", "183322.782000", "183322.785000", "183322.787000", "183322.790000", "183322.792000", "183322.795000", "183322.797000", "183322.800000", "183355.790000", "183355.793000", "183355.796000", "183355.798000", "183355.800000", "183355.803000", "183355.805000", "183355.808000", "183355.810000", "183355.813000", "183355.815000", "183355.818000", "183355.820000", "183355.823000", "183355.825000", "183355.828000", "183355.830000", "183355.833000", "183355.836000", "183355.838000", "183355.841000", "183355.843000"],
      "InstanceCreationTime": ["182422.723000", "182422.726000", "182422.728000", "182422.731000", "182422.733000", "182422.736000", "182422.745000", "182422.747000", "182422.750000", "182422.752000", "182422.755000", "182422.757000", "182422.760000", "182422.762000", "182422.765000", "182422.767000", "182422.770000", "182422.772000", "182422.775000", "182422.777000", "182442.680000", "182442.683000", "182442.685000", "182442.688000", "182442.690000", "182442.693000", "182442.695000", "182442.698000", "182442.700000", "182442.703000", "182442.705000", "182442.708000", "182442.710000", "182442.712000", "182442.715000", "182442.717000", "182442.720000", "182442.722000", "182442.725000", "182442.727000", "182503.111000", "182503.114000", "182503.117000", "182503.119000", "182503.121000", "182503.124000", "182503.126000", "182503.129000", "182503.131000", "182503.134000", "182503.136000", "182503.139000", "182503.141000", "182503.144000", "182503.146000", "182503.148000", "182503.151000", "182503.153000", "182503.156000", "182503.158000", "182522.683000", "182522.685000", "182522.688000", "182522.690000", "182522.693000", "182522.695000", "182522.698000", "182522.700000", "182522.703000", "182522.705000", "182522.708000", "182522.710000", "182522.713000", "182522.715000", "182522.718000", "182522.720000", "182522.723000", "182522.725000", "182522.728000", "182522.730000", "182522.732000", "182602.737000", "182602.740000", "182602.742000", "182602.745000", "182602.747000", "182602.750000", "182602.752000", "182602.754000", "182602.757000", "182602.760000", "182602.762000", "182602.765000", "182602.767000", "182602.769000", "182602.772000", "182602.774000", "182602.785000", "182602.788000", "182602.790000", "182602.793000", "182602.795000", "182602.798000", "182602.800000", "182602.803000", "182602.805000", "182602.808000", "182602.810000", "182602.813000", "182602.815000", "182602.818000", "182602.820000", "182602.823000", "182642.716000", "182642.719000", "182642.722000", "182642.724000", "182642.727000", "182642.729000", "182642.732000", "182642.734000", "182642.737000", "182642.739000", "182642.742000", "182642.744000", "182642.747000", "182642.749000", "182642.752000", "182642.754000", "182642.757000", "182642.759000", "182642.762000", "182642.764000", "182642.767000", "182642.769000", "182642.772000", "182642.774000", "182642.777000", "182642.779000", "182642.782000", "182722.724000", "182722.727000", "182722.744000", "182722.747000", "182722.749000", "182722.752000", "182722.754000", "182722.757000", "182722.759000", "182722.762000", "182722.765000", "182722.767000", "182722.770000", "182722.772000", "182722.775000", "182722.777000", "182722.780000", "182722.789000", "182722.792000", "182722.794000", "182722.797000", "182722.799000", "182722.802000", "182722.805000", "182722.807000", "182722.809000", "182722.812000", "182802.720000", "182802.723000", "182802.725000", "182802.728000", "182802.730000", "182802.733000", "182802.735000", "182802.738000", "182802.740000", "182802.743000", "182802.745000", "182802.748000", "182802.750000", "182802.753000", "182802.755000", "182802.758000", "182802.760000", "182802.762000", "182802.765000", "182802.768000", "182802.770000", "182802.773000", "182802.775000", "182802.778000", "182802.780000", "182802.782000", "182842.718000", "182842.720000", "182842.723000", "182842.726000", "182842.729000", "182842.731000", "182842.734000", "182842.736000", "182842.739000", "182842.741000", "182842.744000", "182842.746000", "182842.749000", "182842.751000", "182842.754000", "182842.756000", "182842.759000", "182842.761000", "182842.764000", "182842.766000", "182842.769000", "182842.772000", "182842.774000", "182842.777000", "182842.779000", "182842.782000", "182842.784000", "182922.719000", "182922.722000", "182922.724000", "182922.727000", "182922.729000", "182922.732000", "182922.735000", "182922.737000", "182922.740000", "182922.742000", "182922.745000", "182922.747000", "182922.750000", "182922.752000", "182922.755000", "182922.757000", "182922.759000", "182922.762000", "182922.771000", "182922.773000", "182922.776000", "182922.778000", "182922.781000", "182922.783000", "182922.786000", "182922.788000", "182922.791000", "183002.721000", "183002.724000", "183002.727000", "183002.729000", "183002.732000", "183002.734000", "183002.737000", "183002.739000", "183002.742000", "183002.744000", "183002.747000", "183002.750000", "183002.752000", "183002.755000", "183002.757000", "183002.760000", "183002.762000", "183002.765000", "183002.767000", "183002.770000", "183002.773000", "183002.775000", "183002.778000", "183002.780000", "183002.783000", "183002.785000", "183002.788000", "183042.742000", "183042.744000", "183042.747000", "183042.750000", "183042.752000", "183042.755000", "183042.757000", "183042.760000", "183042.762000", "183042.765000", "183042.767000", "183042.770000", "183042.772000", "183042.775000", "183042.777000", "183042.780000", "183042.783000", "183042.785000", "183042.788000", "183042.790000", "183042.793000", "183042.795000", "183042.798000", "183042.800000", "183042.803000", "183042.805000", "183042.808000", "183122.721000", "183122.724000", "183122.726000", "183122.729000", "183122.731000", "183122.734000", "183122.736000", "183122.739000", "183122.741000", "183122.744000", "183122.746000", "183122.749000", "183122.752000", "183122.754000", "183122.757000", "183122.759000", "183122.762000", "183122.764000", "183122.767000", "183122.769000", "183122.772000", "183122.774000", "183122.777000", "183122.779000", "183122.782000", "183122.784000", "183122.787000", "183202.723000", "183202.726000", "183202.729000", "183202.731000", "183202.734000", "183202.736000", "183202.739000", "183202.741000", "183202.744000", "183202.746000", "183202.749000", "183202.751000", "183202.754000", "183202.756000", "183202.759000", "183202.761000", "183202.764000", "183202.766000", "183202.769000", "183202.771000", "183202.774000", "183202.776000", "183202.779000", "183202.781000", "183202.784000", "183202.786000", "183202.789000", "183242.708000", "183242.711000", "183242.714000", "183242.716000", "183242.719000", "183242.721000", "183242.724000", "183242.726000", "183242.729000", "183242.731000", "183242.735000", "183242.738000", "183242.741000", "183242.744000", "183242.747000", "183242.750000", "183242.754000", "183242.756000", "183242.759000", "183242.761000", "183242.764000", "183242.767000", "183242.769000", "183242.772000", "183242.774000", "183242.777000", "183322.735000", "183322.738000", "183322.740000", "183322.742000", "183322.745000", "183322.747000", "183322.750000", "183322.753000", "183322.755000", "183322.758000", "183322.760000", "183322.762000", "183322.765000", "183322.767000", "183322.770000", "183322.772000", "183322.775000", "183322.777000", "183322.780000", "183322.782000", "183322.785000", "183322.787000", "183322.790000", "183322.792000", "183322.795000", "183322.797000", "183322.800000", "183355.790000", "183355.793000", "183355.796000", "183355.798000", "183355.800000", "183355.803000", "183355.805000", "183355.808000", "183355.810000", "183355.813000", "183355.815000", "183355.818000", "183355.820000", "183355.823000", "183355.825000", "183355.828000", "183355.830000", "183355.833000", "183355.836000", "183355.838000", "183355.841000", "183355.843000"],
