{
  "AcquisitionMatrixPE": 104,
  "AcquisitionNumber": 1,
  "AcquisitionTime": "18:50:14.995000",
  "BandwidthPerPixelPhaseEncode": 17.17,
  "BaseResolution": 104,
  "BodyPartExamined": "BRAIN",
  "CoilCombinationMethod": "Sum of Squares",
  "ConsistencyInfo": "N4_VE11C_LATEST_20160120",
  "ConversionSoftware": "dcm2niix",
  "ConversionSoftwareVersion": "v1.0.20220505",
  "DerivedVendorReportedEchoSpacing": 0.000560011,
  "DeviceSerialNumber": "167006",
  "DwellTime": 2.1e-06,
  "EchoTime": 0.037,
  "EchoTime1": 0.037,
  "EchoTime2": 0.001,
  "EchoTrainLength": 104,
  "EffectiveEchoSpacing": 0.000560011,
  "FlipAngle": 52,
  "HeudiconvVersion": "0.5.3.post811+g6206e14",
  "ImageComments": "Unaliased MB4/PE3/LB",
  "ImageOrientationPatientDICOM": [0.999923, -0.00879741, 0.00872216, 0.0113442, 0.933144, -0.359324],
  "ImageOrientationText": "Tra>Cor(-21.1)>Sag(0.3)",
  "ImageType": [
    "ORIGINAL",
    "PRIMARY",
    "P",
    "MB",
    "ND",
    "MOSAIC",
    "PHASE"
],
  "ImagingFrequency": 123.26,
  "InPlanePhaseEncodingDirectionDICOM": "COL",
  "InstitutionAddress": "Chemin Queen-Mary 4565,Montreal,District,CA,H3W 1W5",
  "InstitutionName": "IUGM",
  "InstitutionalDepartmentName": "Department",
  "MRAcquisitionType": "2D",
  "MagneticFieldStrength": 3,
  "Manufacturer": "Siemens",
  "ManufacturersModelName": "Prisma_fit",
  "MatrixCoilMode": "SENSE",
  "Modality": "MR",
  "MultibandAccelerationFactor": 4,
  "PartialFourier": 1,
  "PatientPosition": "HFS",
  "PercentPhaseFOV": 100,
  "PercentSampling": 100,
  "PhaseEncodingDirection": "j",
  "PhaseEncodingSteps": 104,
  "PhaseResolution": 1,
  "PixelBandwidth": 2290,
  "ProcedureStepDescription": "games^mariostars",
  "ProtocolName": "func_task-mariostars_run-06",
  "PulseSequenceDetails": "%CustomerSeq%\\cmrr_mbep2d_bold",
  "ReceiveCoilActiveElements": "HC1-7;NC1,2",
  "ReceiveCoilName": "HeadNeck_64",
  "ReconMatrixPE": 104,
  "RepetitionTime": 1.49,
  "SAR": 0.0644135,
  "ScanOptions": "FS",
  "ScanningSequence": "EP",
  "SequenceName": "epfid2d1_104",
  "SequenceVariant": "SK\\SS",
  "SeriesDescription": "func_task-mariostars_run-06",
  "SeriesNumber": 27,
  "ShimSetting": [600, -7242, -8807, 471, 11, -283, 1, 27],
  "SliceThickness": 2,
  "SliceTiming": [0, 0.785, 0.1, 0.8825, 0.1975, 0.98, 0.295, 1.08, 0.3925, 1.1775, 0.49, 1.275, 0.59, 1.3725, 0.6875, 0, 0.785, 0.1, 0.8825, 0.1975, 0.98, 0.295, 1.08, 0.3925, 1.1775, 0.49, 1.275, 0.59, 1.3725, 0.6875, 0, 0.785, 0.1, 0.8825, 0.1975, 0.98, 0.295, 1.08, 0.3925, 1.1775, 0.49, 1.275, 0.59, 1.3725, 0.6875, 0, 0.785, 0.1, 0.8825, 0.1975, 0.98, 0.295, 1.08, 0.3925, 1.1775, 0.49, 1.275, 0.59, 1.3725, 0.6875],
  "SoftwareVersions": "syngo MR E11",
  "SpacingBetweenSlices": 2,
  "StationName": "MRC35049",
  "TaskName": "mariostars",
  "TotalReadoutTime": 0.0576811,
  "TxRefAmp": 282.326,
  "WipMemBlock": "0025584d-7c2c-45d0-a9fc-9197be8a55e0||Sequence: R017 ve11c/master r/75a17815+; Jun 28 2022 16:32:11 by eja",
  "dcmmeta_affine": [
    [-1.9998465776443481, 0.022688409313559532, 0.009955830872058868, 102.74142456054688],
    [0.017594829201698303, 1.8662880659103394, -0.7187899947166443, -67.89131927490234],
    [0.017444325610995293, 0.718647301197052, 1.8663444519042969, -62.61528015136719],
    [0.0, 0.0, 0.0, 1.0]
],
  "dcmmeta_reorient_transform": [
    [0.0, -1.0, 0.0, 103.0],
    [1.0, 0.0, 0.0, 0.0],
    [0.0, 0.0, 1.0, 0.0],
    [0.0, 0.0, 0.0, 1.0]
],
  "dcmmeta_shape": [104, 104, 60, 452],
  "dcmmeta_slice_dim": 2,
  "dcmmeta_version": 0.6,
  "global": {
    "const": {
      "AcquisitionMatrix": [104, 0, 0, 104],
      "AngioFlag": "N",
      "BitsAllocated": 16,
      "BitsStored": 16,
      "BodyPartExamined": "BRAIN",
      "Columns": 832,
      "EchoNumbers": 1,
      "EchoTime": 37.0,
      "EchoTrainLength": 104,
      "FlipAngle": 52.0,
      "HighBit": 15,
      "ImageOrientationPatient": [0.99992326174086, -0.008797414482, 0.00872216303166, 0.01134420497795, 0.93314405427534, -0.3593236465695],
      "ImagePositionPatient": [-841.28104745386, -797.26070995684, 266.64327106496],
      "ImageType": [
        "ORIGINAL",
        "PRIMARY",
        "P",
        "MB",
        "ND",
        "MOSAIC"
],
      "ImagedNucleus": "1H",
      "ImagingFrequency": 123.26022,
      "InPlanePhaseEncodingDirection": "COL",
      "LargestImagePixelValue": 4095,
      "MRAcquisitionType": "2D",
      "MagneticFieldStrength": 3.0,
      "Manufacturer": "SIEMENS",
      "ManufacturerModelName": "Prisma_fit",
      "Modality": "MR",
      "NumberOfAverages": 1.0,
      "NumberOfPhaseEncodingSteps": 104,
      "PercentPhaseFieldOfView": 100.0,
      "PercentSampling": 100.0,
      "PerformedProcedureStepStartTime": "170509.622000",
      "PhotometricInterpretation": "MONOCHROME2",
      "PixelBandwidth": 2290.0,
      "PixelRepresentation": 0,
      "PixelSpacing": [2.0, 2.0],
      "ProtocolName": "func_task-mariostars_run-06",
      "RepetitionTime": 1490.0,
      "RescaleIntercept": -4096.0,
      "RescaleSlope": 2.0,
      "RescaleType": "US",
      "Rows": 832,
      "SAR": 0.06441344978651,
      "SamplesPerPixel": 1,
      "ScanOptions": "FS",
      "ScanningSequence": "EP",
      "SequenceName": "epfid2d1_104",
      "SequenceVariant": [
        "SK",
        "SS"
],
      "SeriesDescription": "func_task-mariostars_run-06",
      "SeriesNumber": 27,
      "SeriesTime": "185138.682000",
      "SliceLocation": -33.519601616038,
      "SliceThickness": 2.0,
      "SmallestImagePixelValue": 0,
      "SoftwareVersions": "syngo MR E11",
      "SpacingBetweenSlices": 1.9999999625522,
      "SpecificCharacterSet": "ISO_IR 100",
      "StudyID": "1",
      "StudyTime": "170509.530000",
      "TransmitCoilName": "Body",
      "VariableFlipAngleFlag": "N",
      "WindowCenterWidthExplanation": "Algo1",
      "dBdt": 0.0},
    "slices": {}
  },
  "time": {
    "samples": {
      "AcquisitionNumber": [1, 2, 3, 4, 5, 6, 7, 8, 9, 10, 11, 12, 13, 14, 15, 16, 17, 18, 19, 20, 21, 22, 23, 24, 25, 26, 27, 28, 29, 30, 31, 32, 33, 34, 35, 36, 37, 38, 39, 40, 41, 42, 43, 44, 45, 46, 47, 48, 49, 50, 51, 52, 53, 54, 55, 56, 57, 58, 59, 60, 61, 62, 63, 64, 65, 66, 67, 68, 69, 70, 71, 72, 73, 74, 75, 76, 77, 78, 79, 80, 81, 82, 83, 84, 85, 86, 87, 88, 89, 90, 91, 92, 93, 94, 95, 96, 97, 98, 99, 100, 101, 102, 103, 104, 105, 106, 107, 108, 109, 110, 111, 112, 113, 114, 115, 116, 117, 118, 119, 120, 121, 122, 123, 124, 125, 126, 127, 128, 129, 130, 131, 132, 133, 134, 135, 136, 137, 138, 139, 140, 141, 142, 143, 144, 145, 146, 147, 148, 149, 150, 151, 152, 153, 154, 155, 156, 157, 158, 159, 160, 161, 162, 163, 164, 165, 166, 167, 168, 169, 170, 171, 172, 173, 174, 175, 176, 177, 178, 179, 180, 181, 182, 183, 184, 185, 186, 187, 188, 189, 190, 191, 192, 193, 194, 195, 196, 197, 198, 199, 200, 201, 202, 203, 204, 205, 206, 207, 208, 209, 210, 211, 212, 213, 214, 215, 216, 217, 218, 219, 220, 221, 222, 223, 224, 225, 226, 227, 228, 229, 230, 231, 232, 233, 234, 235, 236, 237, 238, 239, 240, 241, 242, 243, 244, 245, 246, 247, 248, 249, 250, 251, 252, 253, 254, 255, 256, 257, 258, 259, 260, 261, 262, 263, 264, 265, 266, 267, 268, 269, 270, 271, 272, 273, 274, 275, 276, 277, 278, 279, 280, 281, 282, 283, 284, 285, 286, 287, 288, 289, 290, 291, 292, 293, 294, 295, 296, 297, 298, 299, 300, 301, 302, 303, 304, 305, 306, 307, 308, 309, 310, 311, 312, 313, 314, 315, 316, 317, 318, 319, 320, 321, 322, 323, 324, 325, 326, 327, 328, 329, 330, 331, 332, 333, 334, 335, 336, 337, 338, 339, 340, 341, 342, 343, 344, 345, 346, 347, 348, 349, 350, 351, 352, 353, 354, 355, 356, 357, 358, 359, 360, 361, 362, 363, 364, 365, 366, 367, 368, 369, 370, 371, 372, 373, 374, 375, 376, 377, 378, 379, 380, 381, 382, 383, 384, 385, 386, 387, 388, 389, 390, 391, 392, 393, 394, 395, 396, 397, 398, 399, 400, 401, 402, 403, 404, 405, 406, 407, 408, 409, 410, 411, 412, 413, 414, 415, 416, 417, 418, 419, 420, 421, 422, 423, 424, 425, 426, 427, 428, 429, 430, 431, 432, 433, 434, 435, 436, 437, 438, 439, 440, 441, 442, 443, 444, 445, 446, 447, 448, 449, 450, 451, 452],
      "AcquisitionTime": ["185014.995000", "185016.485000", "185017.975000", "185019.465000", "185020.955000", "185022.445000", "185023.935000", "185025.425000", "185026.915000", "185028.405000", "185029.895000", "185031.385000", "185032.875000", "185034.365000", "185035.855000", "185037.345000", "185038.835000", "185040.325000", "185041.815000", "185043.305000", "185044.795000", "185046.285000", "185047.775000", "185049.265000", "185050.755000", "185052.245000", "185053.735000", "185055.225000", "185056.715000", "185058.205000", "185059.695000", "185101.185000", "185102.675000", "185104.165000", "185105.655000", "185107.145000", "185108.635000", "185110.125000", "185111.615000", "185113.105000", "185114.595000", "185116.085000", "185117.575000", "185119.065000", "185120.555000", "185122.045000", "185123.535000", "185125.025000", "185126.515000", "185128.005000", "185129.495000", "185130.985000", "185132.475000", "185133.965000", "185135.455000", "185136.945000", "185138.435000", "185139.925000", "185141.415000", "185142.905000", "185144.395000", "185145.885000", "185147.375000", "185148.865000", "185150.355000", "185151.845000", "185153.335000", "185154.825000", "185156.315000", "185157.805000", "185159.295000", "185200.785000", "185202.275000", "185203.765000", "185205.255000", "185206.745000", "185208.235000", "185209.725000", "185211.215000", "185212.705000", "185214.195000", "185215.685000", "185217.175000", "185218.665000", "185220.155000", "185221.645000", "185223.135000", "185224.625000", "185226.115000", "185227.605000", "185229.095000", "185230.585000", "185232.075000", "185233.565000", "185235.055000", "185236.545000", "185238.035000", "185239.525000", "185241.015000", "185242.505000", "185243.995000", "185245.485000", "185246.975000", "185248.465000", "185249.955000", "185251.445000", "185252.935000", "185254.425000", "185255.915000", "185257.405000", "185258.895000", "185300.385000", "185301.875000", "185303.365000", "185304.855000", "185306.345000", "185307.835000", "185309.325000", "185310.815000", "185312.305000", "185313.795000", "185315.285000", "185316.775000", "185318.265000", "185319.755000", "185321.245000", "185322.735000", "185324.225000", "185325.715000", "185327.205000", "185328.695000", "185330.185000", "185331.675000", "185333.165000", "185334.655000", "185336.145000", "185337.635000", "185339.125000", "185340.615000", "185342.105000", "185343.595000", "185345.085000", "185346.575000", "185348.065000", "185349.555000", "185351.045000", "185352.535000", "185354.025000", "185355.515000", "185357.005000", "185358.495000", "185359.985000", "185401.475000", "185402.965000", "185404.455000", "185405.945000", "185407.435000", "185408.925000", "185410.415000", "185411.905000", "185413.395000", "185414.885000", "185416.375000", "185417.865000", "185419.355000", "185420.845000", "185422.335000", "185423.825000", "185425.315000", "185426.805000", "185428.295000", "185429.785000", "185431.275000", "185432.765000", "185434.255000", "185435.745000", "185437.235000", "185438.725000", "185440.215000", "185441.705000", "185443.195000", "185444.685000", "185446.175000", "185447.665000", "185449.155000", "185450.645000", "185452.135000", "185453.625000", "185455.115000", "185456.605000", "185458.095000", "185459.585000", "185501.075000", "185502.565000", "185504.055000", "185505.545000", "185507.035000", "185508.525000", "185510.015000", "185511.505000", "185512.995000", "185514.485000", "185515.975000", "185517.465000", "185518.955000", "185520.445000", "185521.935000", "185523.425000", "185524.915000", "185526.405000", "185527.895000", "185529.385000", "185530.875000", "185532.365000", "185533.855000", "185535.345000", "185536.835000", "185538.325000", "185539.815000", "185541.305000", "185542.795000", "185544.285000", "185545.775000", "185547.265000", "185548.755000", "185550.245000", "185551.735000", "185553.225000", "185554.715000", "185556.205000", "185557.695000", "185559.185000", "185600.675000", "185602.165000", "185603.655000", "185605.145000", "185606.635000", "185608.125000", "185609.615000", "185611.105000", "185612.595000", "185614.085000", "185615.575000", "185617.065000", "185618.555000", "185620.045000", "185621.535000", "185623.025000", "185624.515000", "185626.005000", "185627.495000", "185628.985000", "185630.475000", "185631.965000", "185633.455000", "185634.945000", "185636.435000", "185637.925000", "185639.415000", "185640.905000", "185642.395000", "185643.885000", "185645.375000", "185646.865000", "185648.355000", "185649.845000", "185651.335000", "185652.825000", "185654.315000", "185655.805000", "185657.295000", "185658.785000", "185700.275000", "185701.765000", "185703.255000", "185704.745000", "185706.235000", "185707.725000", "185709.215000", "185710.705000", "185712.195000", "185713.685000", "185715.175000", "185716.665000", "185718.155000", "185719.645000", "185721.135000", "185722.625000", "185724.115000", "185725.605000", "185727.095000", "185728.585000", "185730.075000", "185731.565000", "185733.055000", "185734.545000", "185736.035000", "185737.525000", "185739.015000", "185740.505000", "185741.995000", "185743.485000", "185744.975000", "185746.465000", "185747.955000", "185749.445000", "185750.935000", "185752.425000", "185753.915000", "185755.405000", "185756.895000", "185758.385000", "185759.875000", "185801.365000", "185802.855000", "185804.345000", "185805.835000", "185807.325000", "185808.815000", "185810.305000", "185811.795000", "185813.285000", "185814.775000", "185816.265000", "185817.755000", "185819.245000", "185820.735000", "185822.225000", "185823.715000", "185825.205000", "185826.695000", "185828.185000", "185829.675000", "185831.165000", "185832.655000", "185834.145000", "185835.635000", "185837.125000", "185838.615000", "185840.105000", "185841.595000", "185843.085000", "185844.575000", "185846.065000", "185847.555000", "185849.045000", "185850.535000", "185852.025000", "185853.515000", "185855.005000", "185856.495000", "185857.985000", "185859.475000", "185900.965000", "185902.455000", "185903.945000", "185905.435000", "185906.925000", "185908.415000", "185909.905000", "185911.395000", "185912.885000", "185914.375000", "185915.865000", "185917.355000", "185918.845000", "185920.335000", "185921.825000", "185923.315000", "185924.805000", "185926.295000", "185927.785000", "185929.275000", "185930.765000", "185932.255000", "185933.745000", "185935.235000", "185936.725000", "185938.215000", "185939.705000", "185941.195000", "185942.685000", "185944.175000", "185945.665000", "185947.155000", "185948.645000", "185950.135000", "185951.625000", "185953.115000", "185954.605000", "185956.095000", "185957.585000", "185959.075000", "190000.565000", "190002.055000", "190003.545000", "190005.035000", "190006.525000", "190008.015000", "190009.505000", "190010.995000", "190012.485000", "190013.975000", "190015.465000", "190016.955000", "190018.445000", "190019.935000", "190021.425000", "190022.915000", "190024.405000", "190025.895000", "190027.385000", "190028.875000", "190030.365000", "190031.855000", "190033.345000", "190034.835000", "190036.325000", "190037.815000", "190039.305000", "190040.795000", "190042.285000", "190043.775000", "190045.265000", "190046.755000", "190048.245000", "190049.735000", "190051.225000", "190052.715000", "190054.205000", "190055.695000", "190057.185000", "190058.675000", "190100.165000", "190101.655000", "190103.145000", "190104.635000", "190106.125000", "190107.615000", "190109.105000", "190110.595000", "190112.085000", "190113.575000", "190115.065000", "190116.555000", "190118.045000", "190119.535000", "190121.025000", "190122.515000", "190124.005000", "190125.495000", "190126.985000"],
      "ContentTime": ["185138.684000", "185138.687000", "185138.690000", "185138.692000", "185138.695000", "185138.697000", "185138.700000", "185138.702000", "185138.705000", "185138.707000", "185138.710000", "185138.713000", "185138.715000", "185138.718000", "185138.720000", "185138.722000", "185138.725000", "185138.727000", "185138.730000", "185138.732000", "185138.735000", "185138.744000", "185138.747000", "185138.749000", "185138.752000", "185138.755000", "185138.759000", "185138.762000", "185138.765000", "185138.767000", "185138.770000", "185138.773000", "185138.775000", "185158.269000", "185158.272000", "185158.274000", "185158.277000", "185158.279000", "185158.282000", "185158.284000", "185158.287000", "185158.289000", "185158.292000", "185158.294000", "185158.297000", "185158.299000", "185158.302000", "185158.311000", "185158.314000", "185158.316000", "185158.319000", "185158.321000", "185158.324000", "185218.258000", "185218.261000", "185218.263000", "185218.265000", "185218.268000", "185218.270000", "185218.273000", "185218.275000", "185218.278000", "185218.280000", "185218.283000", "185218.285000", "185218.288000", "185218.290000", "185218.293000", "185218.296000", "185218.300000", "185218.303000", "185218.306000", "185218.309000", "185238.305000", "185238.308000", "185238.310000", "185238.313000", "185238.316000", "185238.319000", "185238.321000", "185238.324000", "185238.333000", "185238.336000", "185238.338000", "185238.341000", "185238.343000", "185238.346000", "185238.348000", "185238.351000", "185238.353000", "185238.356000", "185238.358000", "185238.361000", "185238.364000", "185318.288000", "185318.290000", "185318.293000", "185318.296000", "185318.298000", "185318.301000", "185318.303000", "185318.306000", "185318.308000", "185318.311000", "185318.313000", "185318.315000", "185318.318000", "185318.320000", "185318.323000", "185318.325000", "185318.328000", "185318.330000", "185318.333000", "185318.335000", "185318.338000", "185318.340000", "185318.343000", "185318.345000", "185318.348000", "185318.350000", "185318.353000", "185318.355000", "185358.302000", "185358.305000", "185358.307000", "185358.310000", "185358.312000", "185358.315000", "185358.317000", "185358.320000", "185358.322000", "185358.325000", "185358.327000", "185358.330000", "185358.332000", "185358.335000", "185358.337000", "185358.340000", "185358.342000", "185358.345000", "185358.347000", "185358.350000", "185358.352000", "185358.355000", "185358.357000", "185358.360000", "185358.362000", "185358.365000", "185358.367000", "185438.282000", "185438.285000", "185438.287000", "185438.290000", "185438.292000", "185438.295000", "185438.297000", "185438.300000", "185438.302000", "185438.305000", "185438.307000", "185438.310000", "185438.312000", "185438.315000", "185438.317000", "185438.320000", "185438.322000", "185438.325000", "185438.327000", "185438.330000", "185438.332000", "185438.335000", "185438.337000", "185438.340000", "185438.342000", "185438.345000", "185438.347000", "185458.222000", "185458.225000", "185458.228000", "185458.230000", "185458.233000", "185458.235000", "185458.238000", "185458.240000", "185458.243000", "185458.245000", "185458.248000", "185458.251000", "185458.253000", "185538.305000", "185538.308000", "185538.310000", "185538.313000", "185538.315000", "185538.318000", "185538.320000", "185538.323000", "185538.325000", "185538.328000", "185538.330000", "185538.333000", "185538.335000", "185538.338000", "185538.340000", "185538.343000", "185538.345000", "185538.348000", "185538.350000", "185538.353000", "185538.355000", "185538.358000", "185538.360000", "185538.363000", "185538.365000", "185538.368000", "185538.370000", "185618.290000", "185618.293000", "185618.295000", "185618.298000", "185618.300000", "185618.303000", "185618.305000", "185618.308000", "185618.310000", "185618.313000", "185618.315000", "185618.318000", "185618.320000", "185618.323000", "185618.325000", "185618.328000", "185618.330000", "185618.333000", "185618.335000", "185618.338000", "185618.341000", "185618.343000", "185618.346000", "185618.348000", "185618.350000", "185618.353000", "185618.355000", "185658.295000", "185658.298000", "185658.301000", "185658.303000", "185658.306000", "185658.308000", "185658.311000", "185658.313000", "185658.316000", "185658.318000", "185658.321000", "185658.324000", "185658.326000", "185658.329000", "185658.331000", "185658.334000", "185658.336000", "185658.339000", "185658.342000", "185658.344000", "185658.347000", "185658.349000", "185658.352000", "185658.354000", "185658.357000", "185658.359000", "185738.289000", "185738.292000", "185738.295000", "185738.297000", "185738.300000", "185738.302000", "185738.305000", "185738.307000", "185738.310000", "185738.312000", "185738.315000", "185738.318000", "185738.320000", "185738.323000", "185738.325000", "185738.328000", "185738.330000", "185738.333000", "185738.335000", "185738.338000", "185738.340000", "185738.343000", "185738.345000", "185738.348000", "185738.351000", "185738.355000", "185738.358000", "185818.286000", "185818.288000", "185818.291000", "185818.294000", "185818.296000", "185818.299000", "185818.301000", "185818.304000", "185818.306000", "185818.309000", "185818.311000", "185818.314000", "185818.316000", "185818.319000", "185818.321000", "185818.324000", "185818.326000", "185818.329000", "185818.331000", "185818.334000", "185818.336000", "185818.339000", "185818.341000", "185818.344000", "185818.346000", "185818.349000", "185818.351000", "185858.300000", "185858.302000", "185858.305000", "185858.307000", "185858.310000", "185858.313000", "185858.315000", "185858.318000", "185858.320000", "185858.323000", "185858.325000", "185858.328000", "185858.330000", "185858.333000", "185858.335000", "185858.338000", "185858.340000", "185858.343000", "185858.345000", "185858.348000", "185858.350000", "185858.353000", "185858.355000", "185858.357000", "185858.360000", "185858.363000", "185858.365000", "185938.286000", "185938.289000", "185938.291000", "185938.294000", "185938.296000", "185938.299000", "185938.301000", "185938.304000", "185938.307000", "185938.309000", "185938.311000", "185938.314000", "185938.317000", "185938.319000", "185938.322000", "185938.324000", "185938.327000", "185938.329000", "185938.332000", "185938.334000", "185938.337000", "185938.339000", "185938.342000", "185938.344000", "185938.347000", "185938.350000", "185938.352000", "190018.300000", "190018.303000", "190018.305000", "190018.308000", "190018.310000", "190018.313000", "190018.315000", "190018.318000", "190018.320000", "190018.323000", "190018.325000", "190018.328000", "190018.330000", "190018.333000", "190018.336000", "190018.346000", "190018.349000", "190018.352000", "190018.354000", "190018.357000", "190018.359000", "190018.363000", "190018.365000", "190018.368000", "190018.370000", "190018.373000", "190018.375000", "190058.291000", "190058.293000", "190058.296000", "190058.298000", "190058.301000", "190058.304000", "190058.306000", "190058.309000", "190058.311000", "190058.314000", "190058.316000", "190058.319000", "190058.322000", "190058.324000", "190058.326000", "190058.329000", "190058.332000", "190058.334000", "190058.337000", "190058.339000", "190058.342000", "190058.344000", "190058.347000", "190058.350000", "190058.352000", "190058.354000", "190058.357000", "190129.766000", "190129.769000", "190129.772000", "190129.774000", "190129.777000", "190129.779000", "190129.782000", "190129.785000", "190129.787000", "190129.790000", "190129.792000", "190129.795000", "190129.797000", "190129.800000", "190129.802000", "190129.805000", "190129.807000", "190129.810000", "190129.812000", "190129.815000", "190129.818000"],
