{
  "AcquisitionMatrixPE": 104,
  "AcquisitionNumber": 1,
  "AcquisitionTime": "18:50:14.995000",
  "BandwidthPerPixelPhaseEncode": 17.17,
  "BaseResolution": 104,
  "BodyPartExamined": "BRAIN",
  "CoilCombinationMethod": "Sum of Squares",
  "ConsistencyInfo": "N4_VE11C_LATEST_20160120",
  "ConversionSoftware": "dcm2niix",
  "ConversionSoftwareVersion": "v1.0.20220505",
  "DerivedVendorReportedEchoSpacing": 0.000560011,
  "DeviceSerialNumber": "167006",
  "DwellTime": 2.1e-06,
  "EchoTime": 0.037,
  "EchoTrainLength": 104,
  "EffectiveEchoSpacing": 0.000560011,
  "FlipAngle": 52,
  "HeudiconvVersion": "0.5.3.post811+g6206e14",
  "ImageComments": "Unaliased MB4/PE3/LB",
  "ImageOrientationPatientDICOM": [0.999923, -0.00879741, 0.00872216, 0.0113442, 0.933144, -0.359324],
  "ImageOrientationText": "Tra>Cor(-21.1)>Sag(0.3)",
  "ImageType": [
    "ORIGINAL",
    "PRIMARY",
    "M",
    "MB",
    "ND",
    "MOSAIC"
],
  "ImagingFrequency": 123.26,
  "InPlanePhaseEncodingDirectionDICOM": "COL",
  "InstitutionAddress": "Chemin Queen-Mary 4565,Montreal,District,CA,H3W 1W5",
  "InstitutionName": "IUGM",
  "InstitutionalDepartmentName": "Department",
  "MRAcquisitionType": "2D",
  "MagneticFieldStrength": 3,
  "Manufacturer": "Siemens",
  "ManufacturersModelName": "Prisma_fit",
  "MatrixCoilMode": "SENSE",
  "Modality": "MR",
  "MultibandAccelerationFactor": 4,
  "PartialFourier": 1,
  "PatientPosition": "HFS",
  "PercentPhaseFOV": 100,
  "PercentSampling": 100,
  "PhaseEncodingDirection": "j",
  "PhaseEncodingSteps": 104,
  "PhaseResolution": 1,
  "PixelBandwidth": 2290,
  "ProcedureStepDescription": "games^mariostars",
  "ProtocolName": "func_task-mariostars_run-06",
  "PulseSequenceDetails": "%CustomerSeq%\\cmrr_mbep2d_bold",
  "ReceiveCoilActiveElements": "HC1-7;NC1,2",
  "ReceiveCoilName": "HeadNeck_64",
  "ReconMatrixPE": 104,
  "RepetitionTime": 1.49,
  "SAR": 0.0644135,
  "ScanOptions": "FS",
  "ScanningSequence": "EP",
  "SequenceName": "epfid2d1_104",
  "SequenceVariant": "SK\\SS",
  "SeriesDescription": "func_task-mariostars_run-06",
  "SeriesNumber": 26,
  "ShimSetting": [600, -7242, -8807, 471, 11, -283, 1, 27],
  "SliceThickness": 2,
  "SliceTiming": [0, 0.785, 0.1, 0.8825, 0.1975, 0.98, 0.295, 1.08, 0.3925, 1.1775, 0.49, 1.275, 0.59, 1.3725, 0.6875, 0, 0.785, 0.1, 0.8825, 0.1975, 0.98, 0.295, 1.08, 0.3925, 1.1775, 0.49, 1.275, 0.59, 1.3725, 0.6875, 0, 0.785, 0.1, 0.8825, 0.1975, 0.98, 0.295, 1.08, 0.3925, 1.1775, 0.49, 1.275, 0.59, 1.3725, 0.6875, 0, 0.785, 0.1, 0.8825, 0.1975, 0.98, 0.295, 1.08, 0.3925, 1.1775, 0.49, 1.275, 0.59, 1.3725, 0.6875],
  "SoftwareVersions": "syngo MR E11",
  "SpacingBetweenSlices": 2,
  "StationName": "MRC35049",
  "TaskName": "mariostars",
  "TotalReadoutTime": 0.0576811,
  "TxRefAmp": 282.326,
  "WipMemBlock": "0025584d-7c2c-45d0-a9fc-9197be8a55e0||Sequence: R017 ve11c/master r/75a17815+; Jun 28 2022 16:32:11 by eja",
  "dcmmeta_affine": [
    [-1.9998465776443481, 0.022688409313559532, 0.009955830872058868, 102.74142456054688],
    [0.017594829201698303, 1.8662880659103394, -0.7187899947166443, -67.89131927490234],
    [0.017444325610995293, 0.718647301197052, 1.8663444519042969, -62.61528015136719],
    [0.0, 0.0, 0.0, 1.0]
],
  "dcmmeta_reorient_transform": [
    [0.0, -1.0, 0.0, 103.0],
    [1.0, 0.0, 0.0, 0.0],
    [0.0, 0.0, 1.0, 0.0],
    [0.0, 0.0, 0.0, 1.0]
],
  "dcmmeta_shape": [104, 104, 60, 452],
  "dcmmeta_slice_dim": 2,
  "dcmmeta_version": 0.6,
  "global": {
    "const": {
      "AcquisitionMatrix": [104, 0, 0, 104],
      "AngioFlag": "N",
      "BitsAllocated": 16,
      "BitsStored": 16,
      "BodyPartExamined": "BRAIN",
      "Columns": 832,
      "EchoNumbers": 1,
      "EchoTime": 37.0,
      "EchoTrainLength": 104,
      "FlipAngle": 52.0,
      "HighBit": 15,
      "ImageOrientationPatient": [0.99992326174086, -0.008797414482, 0.00872216303166, 0.01134420497795, 0.93314405427534, -0.3593236465695],
      "ImagePositionPatient": [-841.28104745386, -797.26070995684, 266.64327106496],
      "ImageType": [
        "ORIGINAL",
        "PRIMARY",
        "M",
        "MB",
        "ND",
        "MOSAIC"
],
      "ImagedNucleus": "1H",
      "ImagingFrequency": 123.26022,
      "InPlanePhaseEncodingDirection": "COL",
      "MRAcquisitionType": "2D",
      "MagneticFieldStrength": 3.0,
      "Manufacturer": "SIEMENS",
      "ManufacturerModelName": "Prisma_fit",
      "Modality": "MR",
      "NumberOfAverages": 1.0,
      "NumberOfPhaseEncodingSteps": 104,
      "PercentPhaseFieldOfView": 100.0,
      "PercentSampling": 100.0,
      "PerformedProcedureStepStartTime": "170509.622000",
      "PhotometricInterpretation": "MONOCHROME2",
      "PixelBandwidth": 2290.0,
      "PixelRepresentation": 0,
      "PixelSpacing": [2.0, 2.0],
      "ProtocolName": "func_task-mariostars_run-06",
      "RepetitionTime": 1490.0,
      "Rows": 832,
      "SAR": 0.06441344978651,
      "SamplesPerPixel": 1,
      "ScanOptions": "FS",
      "ScanningSequence": "EP",
      "SequenceName": "epfid2d1_104",
      "SequenceVariant": [
        "SK",
        "SS"
],
      "SeriesDescription": "func_task-mariostars_run-06",
      "SeriesNumber": 26,
      "SeriesTime": "185138.175000",
      "SliceLocation": -33.519601616038,
      "SliceThickness": 2.0,
      "SmallestImagePixelValue": 0,
      "SoftwareVersions": "syngo MR E11",
      "SpacingBetweenSlices": 1.9999999625522,
      "SpecificCharacterSet": "ISO_IR 100",
      "StudyID": "1",
      "StudyTime": "170509.530000",
      "TransmitCoilName": "Body",
      "VariableFlipAngleFlag": "N",
      "WindowCenterWidthExplanation": "Algo1",
      "dBdt": 0.0},
    "slices": {}
  },
  "time": {
    "samples": {
      "AcquisitionNumber": [1, 2, 3, 4, 5, 6, 7, 8, 9, 10, 11, 12, 13, 14, 15, 16, 17, 18, 19, 20, 21, 22, 23, 24, 25, 26, 27, 28, 29, 30, 31, 32, 33, 34, 35, 36, 37, 38, 39, 40, 41, 42, 43, 44, 45, 46, 47, 48, 49, 50, 51, 52, 53, 54, 55, 56, 57, 58, 59, 60, 61, 62, 63, 64, 65, 66, 67, 68, 69, 70, 71, 72, 73, 74, 75, 76, 77, 78, 79, 80, 81, 82, 83, 84, 85, 86, 87, 88, 89, 90, 91, 92, 93, 94, 95, 96, 97, 98, 99, 100, 101, 102, 103, 104, 105, 106, 107, 108, 109, 110, 111, 112, 113, 114, 115, 116, 117, 118, 119, 120, 121, 122, 123, 124, 125, 126, 127, 128, 129, 130, 131, 132, 133, 134, 135, 136, 137, 138, 139, 140, 141, 142, 143, 144, 145, 146, 147, 148, 149, 150, 151, 152, 153, 154, 155, 156, 157, 158, 159, 160, 161, 162, 163, 164, 165, 166, 167, 168, 169, 170, 171, 172, 173, 174, 175, 176, 177, 178, 179, 180, 181, 182, 183, 184, 185, 186, 187, 188, 189, 190, 191, 192, 193, 194, 195, 196, 197, 198, 199, 200, 201, 202, 203, 204, 205, 206, 207, 208, 209, 210, 211, 212, 213, 214, 215, 216, 217, 218, 219, 220, 221, 222, 223, 224, 225, 226, 227, 228, 229, 230, 231, 232, 233, 234, 235, 236, 237, 238, 239, 240, 241, 242, 243, 244, 245, 246, 247, 248, 249, 250, 251, 252, 253, 254, 255, 256, 257, 258, 259, 260, 261, 262, 263, 264, 265, 266, 267, 268, 269, 270, 271, 272, 273, 274, 275, 276, 277, 278, 279, 280, 281, 282, 283, 284, 285, 286, 287, 288, 289, 290, 291, 292, 293, 294, 295, 296, 297, 298, 299, 300, 301, 302, 303, 304, 305, 306, 307, 308, 309, 310, 311, 312, 313, 314, 315, 316, 317, 318, 319, 320, 321, 322, 323, 324, 325, 326, 327, 328, 329, 330, 331, 332, 333, 334, 335, 336, 337, 338, 339, 340, 341, 342, 343, 344, 345, 346, 347, 348, 349, 350, 351, 352, 353, 354, 355, 356, 357, 358, 359, 360, 361, 362, 363, 364, 365, 366, 367, 368, 369, 370, 371, 372, 373, 374, 375, 376, 377, 378, 379, 380, 381, 382, 383, 384, 385, 386, 387, 388, 389, 390, 391, 392, 393, 394, 395, 396, 397, 398, 399, 400, 401, 402, 403, 404, 405, 406, 407, 408, 409, 410, 411, 412, 413, 414, 415, 416, 417, 418, 419, 420, 421, 422, 423, 424, 425, 426, 427, 428, 429, 430, 431, 432, 433, 434, 435, 436, 437, 438, 439, 440, 441, 442, 443, 444, 445, 446, 447, 448, 449, 450, 451, 452],
      "AcquisitionTime": ["185014.995000", "185016.485000", "185017.975000", "185019.465000", "185020.955000", "185022.445000", "185023.935000", "185025.425000", "185026.915000", "185028.405000", "185029.895000", "185031.385000", "185032.875000", "185034.365000", "185035.855000", "185037.345000", "185038.835000", "185040.325000", "185041.815000", "185043.305000", "185044.795000", "185046.285000", "185047.775000", "185049.265000", "185050.755000", "185052.245000", "185053.735000", "185055.225000", "185056.715000", "185058.205000", "185059.695000", "185101.185000", "185102.675000", "185104.165000", "185105.655000", "185107.145000", "185108.635000", "185110.125000", "185111.615000", "185113.105000", "185114.595000", "185116.085000", "185117.575000", "185119.065000", "185120.555000", "185122.045000", "185123.535000", "185125.025000", "185126.515000", "185128.005000", "185129.495000", "185130.985000", "185132.475000", "185133.965000", "185135.455000", "185136.945000", "185138.435000", "185139.925000", "185141.415000", "185142.905000", "185144.395000", "185145.885000", "185147.375000", "185148.865000", "185150.355000", "185151.845000", "185153.335000", "185154.825000", "185156.315000", "185157.805000", "185159.295000", "185200.785000", "185202.275000", "185203.765000", "185205.255000", "185206.745000", "185208.235000", "185209.725000", "185211.215000", "185212.705000", "185214.195000", "185215.685000", "185217.175000", "185218.665000", "185220.155000", "185221.645000", "185223.135000", "185224.625000", "185226.115000", "185227.605000", "185229.095000", "185230.585000", "185232.075000", "185233.565000", "185235.055000", "185236.545000", "185238.035000", "185239.525000", "185241.015000", "185242.505000", "185243.995000", "185245.485000", "185246.975000", "185248.465000", "185249.955000", "185251.445000", "185252.935000", "185254.425000", "185255.915000", "185257.405000", "185258.895000", "185300.385000", "185301.875000", "185303.365000", "185304.855000", "185306.345000", "185307.835000", "185309.325000", "185310.815000", "185312.305000", "185313.795000", "185315.285000", "185316.775000", "185318.265000", "185319.755000", "185321.245000", "185322.735000", "185324.225000", "185325.715000", "185327.205000", "185328.695000", "185330.185000", "185331.675000", "185333.165000", "185334.655000", "185336.145000", "185337.635000", "185339.125000", "185340.615000", "185342.105000", "185343.595000", "185345.085000", "185346.575000", "185348.065000", "185349.555000", "185351.045000", "185352.535000", "185354.025000", "185355.515000", "185357.005000", "185358.495000", "185359.985000", "185401.475000", "185402.965000", "185404.455000", "185405.945000", "185407.435000", "185408.925000", "185410.415000", "185411.905000", "185413.395000", "185414.885000", "185416.375000", "185417.865000", "185419.355000", "185420.845000", "185422.335000", "185423.825000", "185425.315000", "185426.805000", "185428.295000", "185429.785000", "185431.275000", "185432.765000", "185434.255000", "185435.745000", "185437.235000", "185438.725000", "185440.215000", "185441.705000", "185443.195000", "185444.685000", "185446.175000", "185447.665000", "185449.155000", "185450.645000", "185452.135000", "185453.625000", "185455.115000", "185456.605000", "185458.095000", "185459.585000", "185501.075000", "185502.565000", "185504.055000", "185505.545000", "185507.035000", "185508.525000", "185510.015000", "185511.505000", "185512.995000", "185514.485000", "185515.975000", "185517.465000", "185518.955000", "185520.445000", "185521.935000", "185523.425000", "185524.915000", "185526.405000", "185527.895000", "185529.385000", "185530.875000", "185532.365000", "185533.855000", "185535.345000", "185536.835000", "185538.325000", "185539.815000", "185541.305000", "185542.795000", "185544.285000", "185545.775000", "185547.265000", "185548.755000", "185550.245000", "185551.735000", "185553.225000", "185554.715000", "185556.205000", "185557.695000", "185559.185000", "185600.675000", "185602.165000", "185603.655000", "185605.145000", "185606.635000", "185608.125000", "185609.615000", "185611.105000", "185612.595000", "185614.085000", "185615.575000", "185617.065000", "185618.555000", "185620.045000", "185621.535000", "185623.025000", "185624.515000", "185626.005000", "185627.495000", "185628.985000", "185630.475000", "185631.965000", "185633.455000", "185634.945000", "185636.435000", "185637.925000", "185639.415000", "185640.905000", "185642.395000", "185643.885000", "185645.375000", "185646.865000", "185648.355000", "185649.845000", "185651.335000", "185652.825000", "185654.315000", "185655.805000", "185657.295000", "185658.785000", "185700.275000", "185701.765000", "185703.255000", "185704.745000", "185706.235000", "185707.725000", "185709.215000", "185710.705000", "185712.195000", "185713.685000", "185715.175000", "185716.665000", "185718.155000", "185719.645000", "185721.135000", "185722.625000", "185724.115000", "185725.605000", "185727.095000", "185728.585000", "185730.075000", "185731.565000", "185733.055000", "185734.545000", "185736.035000", "185737.525000", "185739.015000", "185740.505000", "185741.995000", "185743.485000", "185744.975000", "185746.465000", "185747.955000", "185749.445000", "185750.935000", "185752.425000", "185753.915000", "185755.405000", "185756.895000", "185758.385000", "185759.875000", "185801.365000", "185802.855000", "185804.345000", "185805.835000", "185807.325000", "185808.815000", "185810.305000", "185811.795000", "185813.285000", "185814.775000", "185816.265000", "185817.755000", "185819.245000", "185820.735000", "185822.225000", "185823.715000", "185825.205000", "185826.695000", "185828.185000", "185829.675000", "185831.165000", "185832.655000", "185834.145000", "185835.635000", "185837.125000", "185838.615000", "185840.105000", "185841.595000", "185843.085000", "185844.575000", "185846.065000", "185847.555000", "185849.045000", "185850.535000", "185852.025000", "185853.515000", "185855.005000", "185856.495000", "185857.985000", "185859.475000", "185900.965000", "185902.455000", "185903.945000", "185905.435000", "185906.925000", "185908.415000", "185909.905000", "185911.395000", "185912.885000", "185914.375000", "185915.865000", "185917.355000", "185918.845000", "185920.335000", "185921.825000", "185923.315000", "185924.805000", "185926.295000", "185927.785000", "185929.275000", "185930.765000", "185932.255000", "185933.745000", "185935.235000", "185936.725000", "185938.215000", "185939.705000", "185941.195000", "185942.685000", "185944.175000", "185945.665000", "185947.155000", "185948.645000", "185950.135000", "185951.625000", "185953.115000", "185954.605000", "185956.095000", "185957.585000", "185959.075000", "190000.565000", "190002.055000", "190003.545000", "190005.035000", "190006.525000", "190008.015000", "190009.505000", "190010.995000", "190012.485000", "190013.975000", "190015.465000", "190016.955000", "190018.445000", "190019.935000", "190021.425000", "190022.915000", "190024.405000", "190025.895000", "190027.385000", "190028.875000", "190030.365000", "190031.855000", "190033.345000", "190034.835000", "190036.325000", "190037.815000", "190039.305000", "190040.795000", "190042.285000", "190043.775000", "190045.265000", "190046.755000", "190048.245000", "190049.735000", "190051.225000", "190052.715000", "190054.205000", "190055.695000", "190057.185000", "190058.675000", "190100.165000", "190101.655000", "190103.145000", "190104.635000", "190106.125000", "190107.615000", "190109.105000", "190110.595000", "190112.085000", "190113.575000", "190115.065000", "190116.555000", "190118.045000", "190119.535000", "190121.025000", "190122.515000", "190124.005000", "190125.495000", "190126.985000"],
      "ContentTime": ["185138.178000", "185138.182000", "185138.186000", "185138.189000", "185138.192000", "185138.196000", "185138.202000", "185138.205000", "185138.208000", "185138.211000", "185138.215000", "185138.218000", "185138.221000", "185138.225000", "185138.228000", "185138.231000", "185138.234000", "185138.238000", "185138.241000", "185138.244000", "185138.248000", "185138.251000", "185138.254000", "185138.258000", "185138.266000", "185138.270000", "185138.273000", "185138.276000", "185138.279000", "185138.283000", "185138.286000", "185138.289000", "185138.293000", "185158.144000", "185158.148000", "185158.151000", "185158.154000", "185158.158000", "185158.161000", "185158.164000", "185158.167000", "185158.171000", "185158.174000", "185158.177000", "185158.180000", "185158.184000", "185158.202000", "185158.205000", "185158.209000", "185158.212000", "185158.215000", "185158.219000", "185158.222000", "185218.145000", "185218.149000", "185218.152000", "185218.155000", "185218.167000", "185218.170000", "185218.173000", "185218.176000", "185218.180000", "185218.183000", "185218.186000", "185218.189000", "185218.193000", "185218.196000", "185218.199000", "185218.202000", "185218.206000", "185218.209000", "185218.212000", "185218.215000", "185238.145000", "185238.149000", "185238.152000", "185238.155000", "185238.159000", "185238.201000", "185238.205000", "185238.208000", "185238.211000", "185238.215000", "185238.218000", "185238.221000", "185238.224000", "185238.228000", "185238.231000", "185238.234000", "185238.238000", "185238.241000", "185238.245000", "185238.249000", "185238.253000", "185318.144000", "185318.148000", "185318.151000", "185318.154000", "185318.158000", "185318.161000", "185318.165000", "185318.168000", "185318.171000", "185318.175000", "185318.178000", "185318.181000", "185318.184000", "185318.188000", "185318.191000", "185318.194000", "185318.197000", "185318.201000", "185318.204000", "185318.207000", "185318.211000", "185318.214000", "185318.217000", "185318.221000", "185318.224000", "185318.227000", "185318.230000", "185318.234000", "185358.163000", "185358.167000", "185358.170000", "185358.173000", "185358.176000", "185358.180000", "185358.183000", "185358.186000", "185358.190000", "185358.193000", "185358.196000", "185358.200000", "185358.203000", "185358.206000", "185358.209000", "185358.213000", "185358.216000", "185358.220000", "185358.223000", "185358.226000", "185358.229000", "185358.232000", "185358.236000", "185358.239000", "185358.242000", "185358.246000", "185358.249000", "185438.145000", "185438.149000", "185438.152000", "185438.155000", "185438.159000", "185438.169000", "185438.172000", "185438.176000", "185438.179000", "185438.182000", "185438.185000", "185438.189000", "185438.192000", "185438.195000", "185438.199000", "185438.203000", "185438.206000", "185438.209000", "185438.212000", "185438.216000", "185438.219000", "185438.222000", "185438.225000", "185438.229000", "185438.232000", "185438.235000", "185438.238000", "185458.145000", "185458.149000", "185458.152000", "185458.156000", "185458.159000", "185458.162000", "185458.166000", "185458.169000", "185458.172000", "185458.176000", "185458.179000", "185458.182000", "185458.185000", "185538.144000", "185538.148000", "185538.151000", "185538.155000", "185538.158000", "185538.173000", "185538.177000", "185538.180000", "185538.183000", "185538.189000", "185538.192000", "185538.195000", "185538.199000", "185538.202000", "185538.205000", "185538.209000", "185538.212000", "185538.215000", "185538.219000", "185538.222000", "185538.225000", "185538.228000", "185538.232000", "185538.235000", "185538.238000", "185538.242000", "185538.245000", "185618.144000", "185618.148000", "185618.151000", "185618.155000", "185618.168000", "185618.172000", "185618.175000", "185618.178000", "185618.182000", "185618.185000", "185618.188000", "185618.192000", "185618.195000", "185618.198000", "185618.202000", "185618.205000", "185618.208000", "185618.212000", "185618.215000", "185618.218000", "185618.222000", "185618.225000", "185618.228000", "185618.232000", "185618.235000", "185618.238000", "185618.241000", "185658.146000", "185658.150000", "185658.153000", "185658.157000", "185658.161000", "185658.165000", "185658.169000", "185658.172000", "185658.176000", "185658.180000", "185658.183000", "185658.187000", "185658.191000", "185658.195000", "185658.199000", "185658.203000", "185658.206000", "185658.210000", "185658.214000", "185658.217000", "185658.221000", "185658.224000", "185658.228000", "185658.231000", "185658.235000", "185658.238000", "185658.242000", "185738.145000", "185738.149000", "185738.153000", "185738.157000", "185738.161000", "185738.165000", "185738.168000", "185738.172000", "185738.175000", "185738.178000", "185738.182000", "185738.185000", "185738.189000", "185738.192000", "185738.195000", "185738.199000", "185738.202000", "185738.206000", "185738.209000", "185738.212000", "185738.216000", "185738.219000", "185738.222000", "185738.226000", "185738.229000", "185738.235000", "185818.144000", "185818.148000", "185818.151000", "185818.155000", "185818.158000", "185818.161000", "185818.165000", "185818.168000", "185818.171000", "185818.175000", "185818.178000", "185818.182000", "185818.185000", "185818.188000", "185818.192000", "185818.195000", "185818.198000", "185818.210000", "185818.213000", "185818.216000", "185818.220000", "185818.223000", "185818.226000", "185818.230000", "185818.233000", "185818.236000", "185818.240000", "185858.144000", "185858.148000", "185858.151000", "185858.155000", "185858.158000", "185858.161000", "185858.165000", "185858.168000", "185858.171000", "185858.175000", "185858.178000", "185858.181000", "185858.185000", "185858.188000", "185858.191000", "185858.195000", "185858.198000", "185858.201000", "185858.205000", "185858.208000", "185858.211000", "185858.214000", "185858.218000", "185858.221000", "185858.225000", "185858.228000", "185858.231000", "185938.145000", "185938.149000", "185938.160000", "185938.164000", "185938.167000", "185938.170000", "185938.174000", "185938.177000", "185938.180000", "185938.184000", "185938.187000", "185938.190000", "185938.194000", "185938.197000", "185938.200000", "185938.204000", "185938.207000", "185938.210000", "185938.214000", "185938.217000", "185938.220000", "185938.223000", "185938.227000", "185938.230000", "185938.233000", "185938.237000", "185938.240000", "190018.144000", "190018.148000", "190018.151000", "190018.155000", "190018.158000", "190018.162000", "190018.165000", "190018.168000", "190018.172000", "190018.175000", "190018.178000", "190018.182000", "190018.185000", "190018.189000", "190018.192000", "190018.195000", "190018.199000", "190018.202000", "190018.206000", "190018.209000", "190018.212000", "190018.216000", "190018.219000", "190018.222000", "190018.226000", "190018.229000", "190018.232000", "190058.144000", "190058.148000", "190058.151000", "190058.154000", "190058.158000", "190058.161000", "190058.164000", "190058.168000", "190058.171000", "190058.174000", "190058.178000", "190058.181000", "190058.184000", "190058.187000", "190058.191000", "190058.194000", "190058.197000", "190058.201000", "190058.204000", "190058.207000", "190058.210000", "190058.214000", "190058.217000", "190058.220000", "190058.224000", "190058.227000", "190058.230000", "190129.638000", "190129.641000", "190129.645000", "190129.648000", "190129.651000", "190129.655000", "190129.658000", "190129.661000", "190129.665000", "190129.668000", "190129.671000", "190129.674000", "190129.678000", "190129.681000", "190129.684000", "190129.688000", "190129.691000", "190129.694000", "190129.698000", "190129.701000", "190129.704000"],
