{
  "AcquisitionMatrixPE": 104,
  "AcquisitionNumber": 1,
  "AcquisitionTime": "18:07:11.122500",
  "BandwidthPerPixelPhaseEncode": 17.17,
  "BaseResolution": 104,
  "BodyPartExamined": "BRAIN",
  "CoilCombinationMethod": "Sum of Squares",
  "ConsistencyInfo": "N4_VE11C_LATEST_20160120",
  "ConversionSoftware": "dcm2niix",
  "ConversionSoftwareVersion": "v1.0.20220505",
  "DerivedVendorReportedEchoSpacing": 0.000560011,
  "DeviceSerialNumber": "167006",
  "DwellTime": 2.1e-06,
  "EchoTime": 0.037,
  "EchoTime1": 0.037,
  "EchoTime2": 0.001,
  "EchoTrainLength": 104,
  "EffectiveEchoSpacing": 0.000560011,
  "FlipAngle": 52,
  "HeudiconvVersion": "0.5.3.post811+g6206e14",
  "ImageComments": "Unaliased MB4/PE3/LB",
  "ImageOrientationPatientDICOM": [0.999923, -0.00879741, 0.00872216, 0.0113442, 0.933144, -0.359324],
  "ImageOrientationText": "Tra>Cor(-21.1)>Sag(0.3)",
  "ImageType": [
    "ORIGINAL",
    "PRIMARY",
    "P",
    "MB",
    "ND",
    "MOSAIC",
    "PHASE"
],
  "ImagingFrequency": 123.26,
  "InPlanePhaseEncodingDirectionDICOM": "COL",
  "InstitutionAddress": "Chemin Queen-Mary 4565,Montreal,District,CA,H3W 1W5",
  "InstitutionName": "IUGM",
  "InstitutionalDepartmentName": "Department",
  "MRAcquisitionType": "2D",
  "MagneticFieldStrength": 3,
  "Manufacturer": "Siemens",
  "ManufacturersModelName": "Prisma_fit",
  "MatrixCoilMode": "SENSE",
  "Modality": "MR",
  "MultibandAccelerationFactor": 4,
  "PartialFourier": 1,
  "PatientPosition": "HFS",
  "PercentPhaseFOV": 100,
  "PercentSampling": 100,
  "PhaseEncodingDirection": "j",
  "PhaseEncodingSteps": 104,
  "PhaseResolution": 1,
  "PixelBandwidth": 2290,
  "ProcedureStepDescription": "games^mariostars",
  "ProtocolName": "func_task-mariostars_run-03",
  "PulseSequenceDetails": "%CustomerSeq%\\cmrr_mbep2d_bold",
  "ReceiveCoilActiveElements": "HC1-7;NC1,2",
  "ReceiveCoilName": "HeadNeck_64",
  "ReconMatrixPE": 104,
  "RepetitionTime": 1.49,
  "SAR": 0.0644135,
  "ScanOptions": "FS",
  "ScanningSequence": "EP",
  "SequenceName": "epfid2d1_104",
  "SequenceVariant": "SK\\SS",
  "SeriesDescription": "func_task-mariostars_run-03",
  "SeriesNumber": 18,
  "ShimSetting": [600, -7242, -8807, 471, 11, -283, 1, 27],
  "SliceThickness": 2,
  "SliceTiming": [0, 0.7825, 0.0975, 0.88, 0.195, 0.98, 0.2925, 1.0775, 0.39, 1.175, 0.49, 1.2725, 0.5875, 1.37, 0.685, 0, 0.7825, 0.0975, 0.88, 0.195, 0.98, 0.2925, 1.0775, 0.39, 1.175, 0.49, 1.2725, 0.5875, 1.37, 0.685, 0, 0.7825, 0.0975, 0.88, 0.195, 0.98, 0.2925, 1.0775, 0.39, 1.175, 0.49, 1.2725, 0.5875, 1.37, 0.685, 0, 0.7825, 0.0975, 0.88, 0.195, 0.98, 0.2925, 1.0775, 0.39, 1.175, 0.49, 1.2725, 0.5875, 1.37, 0.685],
  "SoftwareVersions": "syngo MR E11",
  "SpacingBetweenSlices": 2,
  "StationName": "MRC35049",
  "TaskName": "mariostars",
  "TotalReadoutTime": 0.0576811,
  "TxRefAmp": 282.326,
  "WipMemBlock": "5385e6de-dbff-4d90-b976-14a380d6d7d2||Sequence: R017 ve11c/master r/75a17815+; Jun 28 2022 16:32:11 by eja",
  "dcmmeta_affine": [
    [-1.9998465776443481, 0.022688409313559532, 0.009955830872058868, 102.74142456054688],
    [0.017594829201698303, 1.8662880659103394, -0.7187899947166443, -67.89131927490234],
    [0.017444325610995293, 0.718647301197052, 1.8663444519042969, -62.61528015136719],
    [0.0, 0.0, 0.0, 1.0]
],
  "dcmmeta_reorient_transform": [
    [0.0, -1.0, 0.0, 103.0],
    [1.0, 0.0, 0.0, 0.0],
    [0.0, 0.0, 1.0, 0.0],
    [0.0, 0.0, 0.0, 1.0]
],
  "dcmmeta_shape": [104, 104, 60, 474],
  "dcmmeta_slice_dim": 2,
  "dcmmeta_version": 0.6,
  "global": {
    "const": {
      "AcquisitionMatrix": [104, 0, 0, 104],
      "AngioFlag": "N",
      "BitsAllocated": 16,
      "BitsStored": 16,
      "BodyPartExamined": "BRAIN",
      "Columns": 832,
      "EchoNumbers": 1,
      "EchoTime": 37.0,
      "EchoTrainLength": 104,
      "FlipAngle": 52.0,
      "HighBit": 15,
      "ImageOrientationPatient": [0.99992326174086, -0.008797414482, 0.00872216303166, 0.01134420497795, 0.93314405427534, -0.3593236465695],
      "ImagePositionPatient": [-841.28104745386, -797.26070995684, 266.64327106496],
      "ImageType": [
        "ORIGINAL",
        "PRIMARY",
        "P",
        "MB",
        "ND",
        "MOSAIC"
],
      "ImagedNucleus": "1H",
      "ImagingFrequency": 123.260212,
      "InPlanePhaseEncodingDirection": "COL",
      "LargestImagePixelValue": 4095,
      "MRAcquisitionType": "2D",
      "MagneticFieldStrength": 3.0,
      "Manufacturer": "SIEMENS",
      "ManufacturerModelName": "Prisma_fit",
      "Modality": "MR",
      "NumberOfAverages": 1.0,
      "NumberOfPhaseEncodingSteps": 104,
      "PercentPhaseFieldOfView": 100.0,
      "PercentSampling": 100.0,
      "PerformedProcedureStepStartTime": "170509.622000",
      "PhotometricInterpretation": "MONOCHROME2",
      "PixelBandwidth": 2290.0,
      "PixelRepresentation": 0,
      "PixelSpacing": [2.0, 2.0],
      "ProtocolName": "func_task-mariostars_run-03",
      "RepetitionTime": 1490.0,
      "RescaleIntercept": -4096.0,
      "RescaleSlope": 2.0,
      "RescaleType": "US",
      "Rows": 832,
      "SAR": 0.06441344978651,
      "SamplesPerPixel": 1,
      "ScanOptions": "FS",
      "ScanningSequence": "EP",
      "SequenceName": "epfid2d1_104",
      "SequenceVariant": [
        "SK",
        "SS"
],
      "SeriesDescription": "func_task-mariostars_run-03",
      "SeriesNumber": 18,
      "SeriesTime": "180818.291000",
      "SliceLocation": -33.519601616038,
      "SliceThickness": 2.0,
      "SmallestImagePixelValue": 0,
      "SoftwareVersions": "syngo MR E11",
      "SpacingBetweenSlices": 1.9999999625522,
      "SpecificCharacterSet": "ISO_IR 100",
      "StudyID": "1",
      "StudyTime": "170509.530000",
      "TransmitCoilName": "Body",
      "VariableFlipAngleFlag": "N",
      "WindowCenterWidthExplanation": "Algo1",
      "dBdt": 0.0},
    "slices": {}
  },
  "time": {
    "samples": {
      "AcquisitionNumber": [1, 2, 3, 4, 5, 6, 7, 8, 9, 10, 11, 12, 13, 14, 15, 16, 17, 18, 19, 20, 21, 22, 23, 24, 25, 26, 27, 28, 29, 30, 31, 32, 33, 34, 35, 36, 37, 38, 39, 40, 41, 42, 43, 44, 45, 46, 47, 48, 49, 50, 51, 52, 53, 54, 55, 56, 57, 58, 59, 60, 61, 62, 63, 64, 65, 66, 67, 68, 69, 70, 71, 72, 73, 74, 75, 76, 77, 78, 79, 80, 81, 82, 83, 84, 85, 86, 87, 88, 89, 90, 91, 92, 93, 94, 95, 96, 97, 98, 99, 100, 101, 102, 103, 104, 105, 106, 107, 108, 109, 110, 111, 112, 113, 114, 115, 116, 117, 118, 119, 120, 121, 122, 123, 124, 125, 126, 127, 128, 129, 130, 131, 132, 133, 134, 135, 136, 137, 138, 139, 140, 141, 142, 143, 144, 145, 146, 147, 148, 149, 150, 151, 152, 153, 154, 155, 156, 157, 158, 159, 160, 161, 162, 163, 164, 165, 166, 167, 168, 169, 170, 171, 172, 173, 174, 175, 176, 177, 178, 179, 180, 181, 182, 183, 184, 185, 186, 187, 188, 189, 190, 191, 192, 193, 194, 195, 196, 197, 198, 199, 200, 201, 202, 203, 204, 205, 206, 207, 208, 209, 210, 211, 212, 213, 214, 215, 216, 217, 218, 219, 220, 221, 222, 223, 224, 225, 226, 227, 228, 229, 230, 231, 232, 233, 234, 235, 236, 237, 238, 239, 240, 241, 242, 243, 244, 245, 246, 247, 248, 249, 250, 251, 252, 253, 254, 255, 256, 257, 258, 259, 260, 261, 262, 263, 264, 265, 266, 267, 268, 269, 270, 271, 272, 273, 274, 275, 276, 277, 278, 279, 280, 281, 282, 283, 284, 285, 286, 287, 288, 289, 290, 291, 292, 293, 294, 295, 296, 297, 298, 299, 300, 301, 302, 303, 304, 305, 306, 307, 308, 309, 310, 311, 312, 313, 314, 315, 316, 317, 318, 319, 320, 321, 322, 323, 324, 325, 326, 327, 328, 329, 330, 331, 332, 333, 334, 335, 336, 337, 338, 339, 340, 341, 342, 343, 344, 345, 346, 347, 348, 349, 350, 351, 352, 353, 354, 355, 356, 357, 358, 359, 360, 361, 362, 363, 364, 365, 366, 367, 368, 369, 370, 371, 372, 373, 374, 375, 376, 377, 378, 379, 380, 381, 382, 383, 384, 385, 386, 387, 388, 389, 390, 391, 392, 393, 394, 395, 396, 397, 398, 399, 400, 401, 402, 403, 404, 405, 406, 407, 408, 409, 410, 411, 412, 413, 414, 415, 416, 417, 418, 419, 420, 421, 422, 423, 424, 425, 426, 427, 428, 429, 430, 431, 432, 433, 434, 435, 436, 437, 438, 439, 440, 441, 442, 443, 444, 445, 446, 447, 448, 449, 450, 451, 452, 453, 454, 455, 456, 457, 458, 459, 460, 461, 462, 463, 464, 465, 466, 467, 468, 469, 470, 471, 472, 473, 474],
      "AcquisitionTime": ["180711.122500", "180712.612500", "180714.102500", "180715.592500", "180717.082500", "180718.572500", "180720.062500", "180721.552500", "180723.042500", "180724.532500", "180726.022500", "180727.512500", "180729.002500", "180730.492500", "180731.982500", "180733.472500", "180734.962500", "180736.452500", "180737.942500", "180739.432500", "180740.922500", "180742.412500", "180743.902500", "180745.392500", "180746.882500", "180748.372500", "180749.862500", "180751.352500", "180752.842500", "180754.332500", "180755.822500", "180757.312500", "180758.802500", "180800.292500", "180801.782500", "180803.272500", "180804.762500", "180806.252500", "180807.742500", "180809.232500", "180810.722500", "180812.212500", "180813.702500", "180815.192500", "180816.682500", "180818.172500", "180819.662500", "180821.152500", "180822.642500", "180824.132500", "180825.622500", "180827.112500", "180828.602500", "180830.092500", "180831.582500", "180833.072500", "180834.562500", "180836.052500", "180837.542500", "180839.032500", "180840.522500", "180842.012500", "180843.502500", "180844.992500", "180846.482500", "180847.972500", "180849.462500", "180850.952500", "180852.442500", "180853.932500", "180855.422500", "180856.912500", "180858.402500", "180859.892500", "180901.382500", "180902.872500", "180904.362500", "180905.852500", "180907.342500", "180908.832500", "180910.322500", "180911.812500", "180913.302500", "180914.792500", "180916.282500", "180917.772500", "180919.262500", "180920.752500", "180922.242500", "180923.732500", "180925.222500", "180926.712500", "180928.202500", "180929.692500", "180931.182500", "180932.672500", "180934.162500", "180935.652500", "180937.142500", "180938.632500", "180940.122500", "180941.612500", "180943.102500", "180944.592500", "180946.082500", "180947.572500", "180949.062500", "180950.552500", "180952.042500", "180953.532500", "180955.022500", "180956.512500", "180958.002500", "180959.492500", "181000.982500", "181002.472500", "181003.962500", "181005.452500", "181006.942500", "181008.432500", "181009.922500", "181011.412500", "181012.902500", "181014.392500", "181015.882500", "181017.372500", "181018.862500", "181020.352500", "181021.842500", "181023.332500", "181024.822500", "181026.312500", "181027.802500", "181029.292500", "181030.782500", "181032.272500", "181033.762500", "181035.252500", "181036.742500", "181038.232500", "181039.722500", "181041.212500", "181042.702500", "181044.192500", "181045.682500", "181047.172500", "181048.662500", "181050.152500", "181051.642500", "181053.132500", "181054.622500", "181056.112500", "181057.602500", "181059.092500", "181100.582500", "181102.072500", "181103.562500", "181105.052500", "181106.542500", "181108.032500", "181109.522500", "181111.012500", "181112.502500", "181113.992500", "181115.482500", "181116.972500", "181118.462500", "181119.952500", "181121.442500", "181122.932500", "181124.422500", "181125.912500", "181127.402500", "181128.892500", "181130.382500", "181131.872500", "181133.362500", "181134.852500", "181136.342500", "181137.832500", "181139.322500", "181140.812500", "181142.302500", "181143.792500", "181145.282500", "181146.772500", "181148.262500", "181149.752500", "181151.242500", "181152.732500", "181154.222500", "181155.712500", "181157.202500", "181158.692500", "181200.182500", "181201.672500", "181203.162500", "181204.652500", "181206.142500", "181207.632500", "181209.122500", "181210.612500", "181212.102500", "181213.592500", "181215.082500", "181216.572500", "181218.062500", "181219.552500", "181221.042500", "181222.532500", "181224.022500", "181225.512500", "181227.002500", "181228.492500", "181229.982500", "181231.472500", "181232.962500", "181234.452500", "181235.942500", "181237.432500", "181238.922500", "181240.412500", "181241.902500", "181243.392500", "181244.882500", "181246.372500", "181247.862500", "181249.352500", "181250.842500", "181252.332500", "181253.822500", "181255.312500", "181256.802500", "181258.292500", "181259.782500", "181301.272500", "181302.762500", "181304.252500", "181305.742500", "181307.232500", "181308.722500", "181310.212500", "181311.702500", "181313.192500", "181314.682500", "181316.172500", "181317.662500", "181319.152500", "181320.642500", "181322.132500", "181323.622500", "181325.112500", "181326.602500", "181328.092500", "181329.582500", "181331.072500", "181332.562500", "181334.052500", "181335.542500", "181337.032500", "181338.522500", "181340.012500", "181341.502500", "181342.992500", "181344.482500", "181345.972500", "181347.462500", "181348.952500", "181350.442500", "181351.932500", "181353.422500", "181354.912500", "181356.402500", "181357.892500", "181359.382500", "181400.872500", "181402.362500", "181403.852500", "181405.342500", "181406.832500", "181408.322500", "181409.812500", "181411.302500", "181412.792500", "181414.282500", "181415.772500", "181417.262500", "181418.752500", "181420.242500", "181421.732500", "181423.222500", "181424.712500", "181426.202500", "181427.692500", "181429.182500", "181430.672500", "181432.162500", "181433.652500", "181435.142500", "181436.632500", "181438.122500", "181439.612500", "181441.102500", "181442.592500", "181444.082500", "181445.572500", "181447.062500", "181448.552500", "181450.042500", "181451.532500", "181453.022500", "181454.512500", "181456.002500", "181457.492500", "181458.982500", "181500.472500", "181501.962500", "181503.452500", "181504.942500", "181506.432500", "181507.922500", "181509.412500", "181510.902500", "181512.392500", "181513.882500", "181515.372500", "181516.862500", "181518.352500", "181519.842500", "181521.332500", "181522.822500", "181524.312500", "181525.802500", "181527.292500", "181528.782500", "181530.272500", "181531.762500", "181533.252500", "181534.742500", "181536.232500", "181537.722500", "181539.212500", "181540.702500", "181542.192500", "181543.682500", "181545.172500", "181546.662500", "181548.152500", "181549.642500", "181551.132500", "181552.622500", "181554.112500", "181555.602500", "181557.092500", "181558.582500", "181600.072500", "181601.562500", "181603.052500", "181604.542500", "181606.032500", "181607.522500", "181609.012500", "181610.502500", "181611.992500", "181613.482500", "181614.972500", "181616.462500", "181617.952500", "181619.442500", "181620.932500", "181622.422500", "181623.912500", "181625.402500", "181626.892500", "181628.382500", "181629.872500", "181631.362500", "181632.852500", "181634.342500", "181635.832500", "181637.322500", "181638.812500", "181640.302500", "181641.792500", "181643.282500", "181644.772500", "181646.262500", "181647.752500", "181649.242500", "181650.732500", "181652.222500", "181653.712500", "181655.202500", "181656.692500", "181658.182500", "181659.672500", "181701.162500", "181702.652500", "181704.142500", "181705.632500", "181707.122500", "181708.612500", "181710.102500", "181711.592500", "181713.082500", "181714.572500", "181716.062500", "181717.552500", "181719.042500", "181720.532500", "181722.022500", "181723.512500", "181725.002500", "181726.492500", "181727.982500", "181729.472500", "181730.962500", "181732.452500", "181733.942500", "181735.432500", "181736.922500", "181738.412500", "181739.902500", "181741.392500", "181742.882500", "181744.372500", "181745.862500", "181747.352500", "181748.842500", "181750.332500", "181751.822500", "181753.312500", "181754.802500", "181756.292500", "181757.782500", "181759.272500", "181800.762500", "181802.252500", "181803.742500", "181805.232500", "181806.722500", "181808.212500", "181809.702500", "181811.192500", "181812.682500", "181814.172500", "181815.662500", "181817.152500", "181818.642500", "181820.132500", "181821.622500", "181823.112500", "181824.602500", "181826.092500", "181827.582500", "181829.072500", "181830.562500", "181832.052500", "181833.542500", "181835.032500", "181836.522500", "181838.012500", "181839.502500", "181840.992500", "181842.482500", "181843.972500", "181845.462500", "181846.952500", "181848.442500", "181849.932500", "181851.422500", "181852.912500", "181854.402500", "181855.892500"],
      "ContentTime": ["180818.293000", "180818.295000", "180818.298000", "180818.300000", "180818.303000", "180818.305000", "180818.308000", "180818.310000", "180818.313000", "180818.315000", "180818.318000", "180818.320000", "180818.323000", "180818.334000", "180818.336000", "180818.339000", "180818.341000", "180838.285000", "180838.287000", "180838.290000", "180838.292000", "180838.295000", "180838.297000", "180838.300000", "180838.302000", "180838.305000", "180838.307000", "180838.310000", "180838.312000", "180838.315000", "180838.317000", "180838.320000", "180838.322000", "180838.325000", "180838.327000", "180838.330000", "180838.332000", "180858.255000", "180858.258000", "180858.261000", "180858.263000", "180858.266000", "180858.268000", "180858.271000", "180858.273000", "180858.276000", "180858.278000", "180858.280000", "180858.283000", "180858.285000", "180858.288000", "180858.290000", "180858.293000", "180858.295000", "180858.298000", "180858.300000", "180858.303000", "180858.305000", "180918.243000", "180918.245000", "180918.248000", "180918.251000", "180918.253000", "180918.256000", "180918.258000", "180918.261000", "180918.263000", "180918.266000", "180918.268000", "180918.272000", "180918.274000", "180918.277000", "180918.280000", "180918.282000", "180918.285000", "180918.287000", "180918.290000", "180918.292000", "180938.246000", "180938.249000", "180938.251000", "180938.254000", "180938.256000", "180938.259000", "180938.261000", "180938.264000", "180938.266000", "180938.269000", "180938.271000", "180938.274000", "180938.276000", "180938.279000", "180938.281000", "180938.284000", "180938.286000", "180938.289000", "180938.291000", "180938.294000", "181018.728000", "181018.730000", "181018.733000", "181018.735000", "181018.738000", "181018.740000", "181018.743000", "181018.745000", "181018.748000", "181018.750000", "181018.754000", "181018.756000", "181018.759000", "181018.761000", "181018.764000", "181018.767000", "181018.769000", "181018.771000", "181018.774000", "181018.777000", "181018.779000", "181018.781000", "181018.784000", "181018.786000", "181018.789000", "181018.791000", "181018.794000", "181058.319000", "181058.322000", "181058.324000", "181058.327000", "181058.330000", "181058.332000", "181058.335000", "181058.337000", "181058.340000", "181058.342000", "181058.345000", "181058.347000", "181058.350000", "181058.352000", "181058.355000", "181058.357000", "181058.360000", "181058.362000", "181058.365000", "181058.367000", "181058.370000", "181058.372000", "181058.375000", "181058.377000", "181058.380000", "181058.382000", "181138.287000", "181138.290000", "181138.292000", "181138.295000", "181138.297000", "181138.300000", "181138.302000", "181138.305000", "181138.307000", "181138.310000", "181138.312000", "181138.315000", "181138.317000", "181138.320000", "181138.323000", "181138.325000", "181138.328000", "181138.332000", "181138.334000", "181138.337000", "181138.339000", "181138.342000", "181138.344000", "181138.347000", "181138.349000", "181138.352000", "181138.354000", "181218.312000", "181218.314000", "181218.317000", "181218.320000", "181218.322000", "181218.325000", "181218.327000", "181218.329000", "181218.332000", "181218.334000", "181218.337000", "181218.339000", "181218.342000", "181218.344000", "181218.347000", "181218.349000", "181218.352000", "181218.354000", "181218.357000", "181218.359000", "181218.362000", "181218.364000", "181218.367000", "181218.369000", "181218.372000", "181218.374000", "181218.377000", "181258.286000", "181258.289000", "181258.291000", "181258.294000", "181258.296000", "181258.299000", "181258.301000", "181258.304000", "181258.306000", "181258.309000", "181258.311000", "181258.314000", "181258.316000", "181258.319000", "181258.321000", "181258.324000", "181258.326000", "181258.329000", "181258.331000", "181258.334000", "181258.336000", "181258.339000", "181258.341000", "181258.344000", "181258.346000", "181258.349000", "181258.351000", "181338.299000", "181338.302000", "181338.305000", "181338.307000", "181338.310000", "181338.312000", "181338.315000", "181338.317000", "181338.320000", "181338.322000", "181338.325000", "181338.327000", "181338.330000", "181338.332000", "181338.335000", "181338.337000", "181338.353000", "181338.356000", "181338.358000", "181338.361000", "181338.364000", "181338.366000", "181338.368000", "181338.371000", "181338.374000", "181338.376000", "181338.379000", "181418.285000", "181418.287000", "181418.290000", "181418.292000", "181418.295000", "181418.297000", "181418.300000", "181418.302000", "181418.305000", "181418.307000", "181418.310000", "181418.312000", "181418.315000", "181418.317000", "181418.320000", "181418.322000", "181418.325000", "181418.327000", "181418.330000", "181418.332000", "181418.335000", "181418.337000", "181418.340000", "181418.342000", "181418.345000", "181418.347000", "181418.350000", "181458.315000", "181458.318000", "181458.320000", "181458.323000", "181458.340000", "181458.342000", "181458.345000", "181458.347000", "181458.350000", "181458.352000", "181458.355000", "181458.357000", "181458.360000", "181458.362000", "181458.365000", "181458.367000", "181458.370000", "181458.372000", "181458.375000", "181458.377000", "181458.380000", "181458.382000", "181458.385000", "181458.387000", "181458.390000", "181458.392000", "181458.395000", "181538.296000", "181538.299000", "181538.301000", "181538.304000", "181538.306000", "181538.309000", "181538.311000", "181538.314000", "181538.316000", "181538.319000", "181538.321000", "181538.324000", "181538.327000", "181538.329000", "181538.332000", "181538.335000", "181538.337000", "181538.340000", "181538.342000", "181538.345000", "181538.348000", "181538.351000", "181538.354000", "181538.357000", "181538.359000", "181538.362000", "181618.281000", "181618.284000", "181618.286000", "181618.289000", "181618.291000", "181618.294000", "181618.296000", "181618.299000", "181618.301000", "181618.304000", "181618.306000", "181618.309000", "181618.311000", "181618.314000", "181618.316000", "181618.319000", "181618.321000", "181618.324000", "181618.326000", "181618.329000", "181618.331000", "181618.334000", "181618.337000", "181618.339000", "181618.341000", "181618.344000", "181618.347000", "181658.283000", "181658.286000", "181658.289000", "181658.291000", "181658.294000", "181658.296000", "181658.299000", "181658.301000", "181658.304000", "181658.306000", "181658.309000", "181658.311000", "181658.314000", "181658.316000", "181658.319000", "181658.321000", "181658.324000", "181658.326000", "181658.329000", "181658.331000", "181658.334000", "181658.336000", "181658.339000", "181658.341000", "181658.344000", "181658.346000", "181658.349000", "181738.281000", "181738.284000", "181738.286000", "181738.289000", "181738.291000", "181738.294000", "181738.297000", "181738.299000", "181738.301000", "181738.304000", "181738.307000", "181738.309000", "181738.312000", "181738.314000", "181738.317000", "181738.319000", "181738.322000", "181738.324000", "181738.327000", "181738.329000", "181738.332000", "181738.334000", "181738.337000", "181738.339000", "181738.342000", "181738.344000", "181738.347000", "181818.278000", "181818.281000", "181818.283000", "181818.286000", "181818.288000", "181818.291000", "181818.293000", "181818.296000", "181818.299000", "181818.301000", "181818.304000", "181818.306000", "181818.309000", "181818.311000", "181818.314000", "181818.316000", "181818.319000", "181818.321000", "181818.324000", "181818.326000", "181818.329000", "181818.331000", "181818.334000", "181818.336000", "181818.339000", "181818.341000", "181818.344000", "181858.287000", "181858.289000", "181858.292000", "181858.294000", "181858.297000", "181858.299000", "181858.302000", "181858.305000", "181858.307000", "181858.309000", "181858.312000", "181858.315000", "181858.317000", "181858.320000", "181858.322000", "181858.325000", "181858.327000", "181858.330000", "181858.332000", "181858.340000", "181858.343000", "181858.346000", "181858.349000", "181858.354000", "181858.357000", "181858.360000", "181858.364000"],
