{
  "AcquisitionMatrixPE": 104,
  "AcquisitionNumber": 1,
  "AcquisitionTime": "18:54:37.117500",
  "BandwidthPerPixelPhaseEncode": 17.17,
  "BaseResolution": 104,
  "BodyPartExamined": "BRAIN",
  "CoilCombinationMethod": "Sum of Squares",
  "ConsistencyInfo": "N4_VE11C_LATEST_20160120",
  "ConversionSoftware": "dcm2niix",
  "ConversionSoftwareVersion": "v1.0.20220505",
  "DerivedVendorReportedEchoSpacing": 0.000560011,
  "DeviceSerialNumber": "167006",
  "DwellTime": 2.1e-06,
  "EchoTime": 0.037,
  "EchoTrainLength": 104,
  "EffectiveEchoSpacing": 0.000560011,
  "FlipAngle": 52,
  "HeudiconvVersion": "0.5.3.post811+g6206e14",
  "ImageComments": "Unaliased MB4/PE3/LB",
  "ImageOrientationPatientDICOM": [0.999297, -0.0336783, 0.0164827, 0.0373411, 0.933713, -0.35607],
  "ImageOrientationText": "Tra>Cor(-20.9)>Sag(0.2)",
  "ImageType": [
    "ORIGINAL",
    "PRIMARY",
    "M",
    "MB",
    "ND",
    "MOSAIC"
],
  "ImagingFrequency": 123.26,
  "InPlanePhaseEncodingDirectionDICOM": "COL",
  "InstitutionAddress": "Chemin Queen-Mary 4565,Montreal,District,CA,H3W 1W5",
  "InstitutionName": "IUGM",
  "InstitutionalDepartmentName": "Department",
  "MRAcquisitionType": "2D",
  "MagneticFieldStrength": 3,
  "Manufacturer": "Siemens",
  "ManufacturersModelName": "Prisma_fit",
  "MatrixCoilMode": "SENSE",
  "Modality": "MR",
  "MultibandAccelerationFactor": 4,
  "PartialFourier": 1,
  "PatientPosition": "HFS",
  "PercentPhaseFOV": 100,
  "PercentSampling": 100,
  "PhaseEncodingDirection": "j",
  "PhaseEncodingSteps": 104,
  "PhaseResolution": 1,
  "PixelBandwidth": 2290,
  "ProcedureStepDescription": "games^mariostars",
  "ProtocolName": "func_task-mariostars_run-06",
  "PulseSequenceDetails": "%CustomerSeq%\\cmrr_mbep2d_bold",
  "ReceiveCoilActiveElements": "HC1-7;NC1,2",
  "ReceiveCoilName": "HeadNeck_64",
  "ReconMatrixPE": 104,
  "RepetitionTime": 1.49,
  "SAR": 0.0756142,
  "ScanOptions": "FS",
  "ScanningSequence": "EP",
  "SequenceName": "epfid2d1_104",
  "SequenceVariant": "SK\\SS",
  "SeriesDescription": "func_task-mariostars_run-06",
  "SeriesNumber": 26,
  "ShimSetting": [602, -7272, -8810, 415, 15, -365, -9, 23],
  "SliceThickness": 2,
  "SliceTiming": [0, 0.7825, 0.0975, 0.88, 0.195, 0.9775, 0.2925, 1.0775, 0.39, 1.175, 0.49, 1.2725, 0.5875, 1.37, 0.685, 0, 0.7825, 0.0975, 0.88, 0.195, 0.9775, 0.2925, 1.0775, 0.39, 1.175, 0.49, 1.2725, 0.5875, 1.37, 0.685, 0, 0.7825, 0.0975, 0.88, 0.195, 0.9775, 0.2925, 1.0775, 0.39, 1.175, 0.49, 1.2725, 0.5875, 1.37, 0.685, 0, 0.7825, 0.0975, 0.88, 0.195, 0.9775, 0.2925, 1.0775, 0.39, 1.175, 0.49, 1.2725, 0.5875, 1.37, 0.685],
  "SoftwareVersions": "syngo MR E11",
  "SpacingBetweenSlices": 2,
  "StationName": "MRC35049",
  "TaskName": "mariostars",
  "TotalReadoutTime": 0.0576811,
  "TxRefAmp": 301.259,
  "WipMemBlock": "d95d0be9-50d9-4e88-b4bd-27c3ab86061f||Sequence: R017 ve11c/master r/75a17815+; Jun 28 2022 16:32:11 by eja",
  "dcmmeta_affine": [
    [-1.9985935688018799, 0.07468225061893463, 0.006796552799642086, 100.20004272460938],
    [0.06735660135746002, 1.8674254417419434, -0.7128711342811584, -72.7115478515625],
    [0.032965436577796936, 0.7121409177780151, 1.8686274290084839, -58.157901763916016],
    [0.0, 0.0, 0.0, 1.0]
],
  "dcmmeta_reorient_transform": [
    [0.0, -1.0, 0.0, 103.0],
    [1.0, 0.0, 0.0, 0.0],
    [0.0, 0.0, 1.0, 0.0],
    [0.0, 0.0, 0.0, 1.0]
],
  "dcmmeta_shape": [104, 104, 60, 445],
  "dcmmeta_slice_dim": 2,
  "dcmmeta_version": 0.6,
  "global": {
    "const": {
      "AcquisitionMatrix": [104, 0, 0, 104],
      "AngioFlag": "N",
      "BitsAllocated": 16,
      "BitsStored": 16,
      "BodyPartExamined": "BRAIN",
      "Columns": 832,
      "EchoNumbers": 1,
      "EchoTime": 37.0,
      "EchoTrainLength": 104,
      "FlipAngle": 52.0,
      "HighBit": 15,
      "ImageOrientationPatient": [0.99929679875523, -0.0336783011113, 0.01648271918741, 0.03734112633553, 0.93371272967801, -0.3560704687576],
      "ImagePositionPatient": [-862.56472463541, -774.85834198572, 262.41249783096],
      "ImageType": [
        "ORIGINAL",
        "PRIMARY",
        "M",
        "MB",
        "ND",
        "MOSAIC"
],
      "ImagedNucleus": "1H",
      "ImagingFrequency": 123.260176,
      "InPlanePhaseEncodingDirection": "COL",
      "MRAcquisitionType": "2D",
      "MagneticFieldStrength": 3.0,
      "Manufacturer": "SIEMENS",
      "ManufacturerModelName": "Prisma_fit",
      "Modality": "MR",
      "NumberOfAverages": 1.0,
      "NumberOfPhaseEncodingSteps": 104,
      "PercentPhaseFieldOfView": 100.0,
      "PercentSampling": 100.0,
      "PerformedProcedureStepStartTime": "174154.203000",
      "PhotometricInterpretation": "MONOCHROME2",
      "PixelBandwidth": 2290.0,
      "PixelRepresentation": 0,
      "PixelSpacing": [2.0, 2.0],
      "ProtocolName": "func_task-mariostars_run-06",
      "RepetitionTime": 1490.0,
      "Rows": 832,
      "SAR": 0.07561423263098,
      "SamplesPerPixel": 1,
      "ScanOptions": "FS",
      "ScanningSequence": "EP",
      "SequenceName": "epfid2d1_104",
      "SequenceVariant": [
        "SK",
        "SS"
],
      "SeriesDescription": "func_task-mariostars_run-06",
      "SeriesNumber": 26,
      "SeriesTime": "185545.821000",
      "SliceLocation": -28.080237064782,
      "SliceThickness": 2.0,
      "SmallestImagePixelValue": 0,
      "SoftwareVersions": "syngo MR E11",
      "SpacingBetweenSlices": 2.0000000171668,
      "SpecificCharacterSet": "ISO_IR 100",
      "StudyID": "1",
      "StudyTime": "174154.127000",
      "TransmitCoilName": "Body",
      "VariableFlipAngleFlag": "N",
      "WindowCenterWidthExplanation": "Algo1",
      "dBdt": 0.0},
    "slices": {}
  },
  "time": {
    "samples": {
      "AcquisitionNumber": [1, 2, 3, 4, 5, 6, 7, 8, 9, 10, 11, 12, 13, 14, 15, 16, 17, 18, 19, 20, 21, 22, 23, 24, 25, 26, 27, 28, 29, 30, 31, 32, 33, 34, 35, 36, 37, 38, 39, 40, 41, 42, 43, 44, 45, 46, 47, 48, 49, 50, 51, 52, 53, 54, 55, 56, 57, 58, 59, 60, 61, 62, 63, 64, 65, 66, 67, 68, 69, 70, 71, 72, 73, 74, 75, 76, 77, 78, 79, 80, 81, 82, 83, 84, 85, 86, 87, 88, 89, 90, 91, 92, 93, 94, 95, 96, 97, 98, 99, 100, 101, 102, 103, 104, 105, 106, 107, 108, 109, 110, 111, 112, 113, 114, 115, 116, 117, 118, 119, 120, 121, 122, 123, 124, 125, 126, 127, 128, 129, 130, 131, 132, 133, 134, 135, 136, 137, 138, 139, 140, 141, 142, 143, 144, 145, 146, 147, 148, 149, 150, 151, 152, 153, 154, 155, 156, 157, 158, 159, 160, 161, 162, 163, 164, 165, 166, 167, 168, 169, 170, 171, 172, 173, 174, 175, 176, 177, 178, 179, 180, 181, 182, 183, 184, 185, 186, 187, 188, 189, 190, 191, 192, 193, 194, 195, 196, 197, 198, 199, 200, 201, 202, 203, 204, 205, 206, 207, 208, 209, 210, 211, 212, 213, 214, 215, 216, 217, 218, 219, 220, 221, 222, 223, 224, 225, 226, 227, 228, 229, 230, 231, 232, 233, 234, 235, 236, 237, 238, 239, 240, 241, 242, 243, 244, 245, 246, 247, 248, 249, 250, 251, 252, 253, 254, 255, 256, 257, 258, 259, 260, 261, 262, 263, 264, 265, 266, 267, 268, 269, 270, 271, 272, 273, 274, 275, 276, 277, 278, 279, 280, 281, 282, 283, 284, 285, 286, 287, 288, 289, 290, 291, 292, 293, 294, 295, 296, 297, 298, 299, 300, 301, 302, 303, 304, 305, 306, 307, 308, 309, 310, 311, 312, 313, 314, 315, 316, 317, 318, 319, 320, 321, 322, 323, 324, 325, 326, 327, 328, 329, 330, 331, 332, 333, 334, 335, 336, 337, 338, 339, 340, 341, 342, 343, 344, 345, 346, 347, 348, 349, 350, 351, 352, 353, 354, 355, 356, 357, 358, 359, 360, 361, 362, 363, 364, 365, 366, 367, 368, 369, 370, 371, 372, 373, 374, 375, 376, 377, 378, 379, 380, 381, 382, 383, 384, 385, 386, 387, 388, 389, 390, 391, 392, 393, 394, 395, 396, 397, 398, 399, 400, 401, 402, 403, 404, 405, 406, 407, 408, 409, 410, 411, 412, 413, 414, 415, 416, 417, 418, 419, 420, 421, 422, 423, 424, 425, 426, 427, 428, 429, 430, 431, 432, 433, 434, 435, 436, 437, 438, 439, 440, 441, 442, 443, 444, 445],
      "AcquisitionTime": ["185437.117500", "185438.607500", "185440.097500", "185441.587500", "185443.077500", "185444.567500", "185446.057500", "185447.547500", "185449.037500", "185450.527500", "185452.017500", "185453.507500", "185454.997500", "185456.487500", "185457.977500", "185459.467500", "185500.957500", "185502.447500", "185503.937500", "185505.427500", "185506.917500", "185508.407500", "185509.897500", "185511.387500", "185512.877500", "185514.367500", "185515.857500", "185517.347500", "185518.837500", "185520.327500", "185521.817500", "185523.307500", "185524.797500", "185526.287500", "185527.777500", "185529.267500", "185530.757500", "185532.247500", "185533.737500", "185535.227500", "185536.717500", "185538.207500", "185539.697500", "185541.187500", "185542.677500", "185544.167500", "185545.657500", "185547.147500", "185548.637500", "185550.127500", "185551.617500", "185553.107500", "185554.597500", "185556.087500", "185557.577500", "185559.067500", "185600.557500", "185602.047500", "185603.537500", "185605.027500", "185606.517500", "185608.007500", "185609.497500", "185610.987500", "185612.477500", "185613.967500", "185615.457500", "185616.947500", "185618.437500", "185619.927500", "185621.417500", "185622.907500", "185624.397500", "185625.887500", "185627.377500", "185628.867500", "185630.357500", "185631.847500", "185633.337500", "185634.827500", "185636.317500", "185637.807500", "185639.297500", "185640.787500", "185642.277500", "185643.767500", "185645.257500", "185646.747500", "185648.237500", "185649.727500", "185651.217500", "185652.707500", "185654.197500", "185655.687500", "185657.177500", "185658.667500", "185700.157500", "185701.647500", "185703.137500", "185704.627500", "185706.117500", "185707.607500", "185709.097500", "185710.587500", "185712.077500", "185713.567500", "185715.057500", "185716.547500", "185718.037500", "185719.527500", "185721.017500", "185722.507500", "185723.997500", "185725.487500", "185726.977500", "185728.467500", "185729.957500", "185731.447500", "185732.937500", "185734.427500", "185735.917500", "185737.407500", "185738.897500", "185740.387500", "185741.877500", "185743.367500", "185744.857500", "185746.347500", "185747.837500", "185749.327500", "185750.817500", "185752.307500", "185753.797500", "185755.287500", "185756.777500", "185758.267500", "185759.757500", "185801.247500", "185802.737500", "185804.227500", "185805.717500", "185807.207500", "185808.697500", "185810.187500", "185811.677500", "185813.167500", "185814.657500", "185816.147500", "185817.637500", "185819.127500", "185820.617500", "185822.107500", "185823.597500", "185825.087500", "185826.577500", "185828.067500", "185829.557500", "185831.047500", "185832.537500", "185834.027500", "185835.517500", "185837.007500", "185838.497500", "185839.987500", "185841.477500", "185842.967500", "185844.457500", "185845.947500", "185847.437500", "185848.927500", "185850.417500", "185851.907500", "185853.397500", "185854.887500", "185856.377500", "185857.867500", "185859.357500", "185900.847500", "185902.337500", "185903.827500", "185905.317500", "185906.807500", "185908.297500", "185909.787500", "185911.277500", "185912.767500", "185914.257500", "185915.747500", "185917.237500", "185918.727500", "185920.217500", "185921.707500", "185923.197500", "185924.687500", "185926.177500", "185927.667500", "185929.157500", "185930.647500", "185932.137500", "185933.627500", "185935.117500", "185936.607500", "185938.097500", "185939.587500", "185941.077500", "185942.567500", "185944.057500", "185945.547500", "185947.037500", "185948.527500", "185950.017500", "185951.507500", "185952.997500", "185954.487500", "185955.977500", "185957.467500", "185958.957500", "190000.447500", "190001.937500", "190003.427500", "190004.917500", "190006.407500", "190007.897500", "190009.387500", "190010.877500", "190012.367500", "190013.857500", "190015.347500", "190016.837500", "190018.327500", "190019.817500", "190021.307500", "190022.797500", "190024.287500", "190025.777500", "190027.267500", "190028.757500", "190030.247500", "190031.737500", "190033.227500", "190034.717500", "190036.207500", "190037.697500", "190039.187500", "190040.677500", "190042.167500", "190043.657500", "190045.147500", "190046.637500", "190048.127500", "190049.617500", "190051.107500", "190052.597500", "190054.087500", "190055.577500", "190057.067500", "190058.557500", "190100.047500", "190101.537500", "190103.027500", "190104.517500", "190106.007500", "190107.497500", "190108.987500", "190110.477500", "190111.967500", "190113.457500", "190114.947500", "190116.437500", "190117.927500", "190119.417500", "190120.907500", "190122.397500", "190123.887500", "190125.377500", "190126.867500", "190128.357500", "190129.847500", "190131.337500", "190132.827500", "190134.317500", "190135.807500", "190137.297500", "190138.787500", "190140.277500", "190141.767500", "190143.257500", "190144.747500", "190146.237500", "190147.727500", "190149.217500", "190150.707500", "190152.197500", "190153.687500", "190155.177500", "190156.667500", "190158.157500", "190159.647500", "190201.137500", "190202.627500", "190204.117500", "190205.607500", "190207.097500", "190208.587500", "190210.077500", "190211.567500", "190213.057500", "190214.547500", "190216.037500", "190217.527500", "190219.017500", "190220.507500", "190221.997500", "190223.487500", "190224.977500", "190226.467500", "190227.957500", "190229.447500", "190230.937500", "190232.427500", "190233.917500", "190235.407500", "190236.897500", "190238.387500", "190239.877500", "190241.367500", "190242.857500", "190244.347500", "190245.837500", "190247.327500", "190248.817500", "190250.307500", "190251.797500", "190253.287500", "190254.777500", "190256.267500", "190257.757500", "190259.247500", "190300.737500", "190302.227500", "190303.717500", "190305.207500", "190306.697500", "190308.187500", "190309.677500", "190311.167500", "190312.657500", "190314.147500", "190315.637500", "190317.127500", "190318.617500", "190320.107500", "190321.597500", "190323.087500", "190324.577500", "190326.067500", "190327.557500", "190329.047500", "190330.537500", "190332.027500", "190333.517500", "190335.007500", "190336.497500", "190337.987500", "190339.477500", "190340.967500", "190342.457500", "190343.947500", "190345.437500", "190346.927500", "190348.417500", "190349.907500", "190351.397500", "190352.887500", "190354.377500", "190355.867500", "190357.357500", "190358.847500", "190400.337500", "190401.827500", "190403.317500", "190404.807500", "190406.297500", "190407.787500", "190409.277500", "190410.767500", "190412.257500", "190413.747500", "190415.237500", "190416.727500", "190418.217500", "190419.707500", "190421.197500", "190422.687500", "190424.177500", "190425.667500", "190427.157500", "190428.647500", "190430.137500", "190431.627500", "190433.117500", "190434.607500", "190436.097500", "190437.587500", "190439.077500", "190440.567500", "190442.057500", "190443.547500", "190445.037500", "190446.527500", "190448.017500", "190449.507500", "190450.997500", "190452.487500", "190453.977500", "190455.467500", "190456.957500", "190458.447500", "190459.937500", "190501.427500", "190502.917500", "190504.407500", "190505.897500", "190507.387500", "190508.877500", "190510.367500", "190511.857500", "190513.347500", "190514.837500", "190516.327500", "190517.817500", "190519.307500", "190520.797500", "190522.287500", "190523.777500", "190525.267500", "190526.757500", "190528.247500", "190529.737500", "190531.227500", "190532.717500", "190534.207500", "190535.697500", "190537.187500", "190538.677500"],
      "ContentTime": ["185545.824000", "185545.828000", "185545.831000", "185545.835000", "185545.838000", "185545.841000", "185545.845000", "185545.848000", "185545.852000", "185545.855000", "185545.858000", "185545.862000", "185545.865000", "185545.868000", "185545.872000", "185545.875000", "185545.883000", "185545.887000", "185545.890000", "185545.893000", "185605.788000", "185605.792000", "185605.795000", "185605.798000", "185605.802000", "185605.805000", "185605.808000", "185605.812000", "185605.816000", "185605.819000", "185605.823000", "185605.826000", "185605.837000", "185605.840000", "185605.844000", "185605.847000", "185605.850000", "185605.853000", "185605.857000", "185605.860000", "185625.789000", "185625.793000", "185625.796000", "185625.800000", "185625.803000", "185625.806000", "185625.810000", "185625.813000", "185625.816000", "185625.820000", "185625.823000", "185625.826000", "185625.829000", "185625.833000", "185625.836000", "185625.839000", "185625.843000", "185625.846000", "185625.849000", "185625.853000", "185645.789000", "185645.793000", "185645.796000", "185645.799000", "185645.803000", "185645.806000", "185645.810000", "185645.813000", "185645.816000", "185645.819000", "185645.823000", "185645.826000", "185645.829000", "185645.833000", "185645.836000", "185645.839000", "185645.843000", "185645.846000", "185645.849000", "185645.867000", "185725.788000", "185725.792000", "185725.795000", "185725.799000", "185725.802000", "185725.805000", "185725.812000", "185725.815000", "185725.819000", "185725.822000", "185725.826000", "185725.829000", "185725.832000", "185725.836000", "185725.839000", "185725.843000", "185725.846000", "185725.849000", "185725.853000", "185725.856000", "185725.859000", "185725.863000", "185725.866000", "185725.869000", "185725.873000", "185725.876000", "185725.879000", "185725.883000", "185725.886000", "185725.889000", "185725.893000", "185725.896000", "185805.788000", "185805.792000", "185805.795000", "185805.799000", "185805.802000", "185805.806000", "185805.809000", "185805.812000", "185805.816000", "185805.819000", "185805.822000", "185805.826000", "185805.829000", "185805.833000", "185805.836000", "185805.839000", "185805.843000", "185805.846000", "185805.849000", "185805.853000", "185805.856000", "185805.860000", "185805.863000", "185805.866000", "185805.869000", "185805.873000", "185805.876000", "185845.789000", "185845.793000", "185845.796000", "185845.800000", "185845.803000", "185845.807000", "185845.810000", "185845.813000", "185845.817000", "185845.820000", "185845.823000", "185845.827000", "185845.830000", "185845.833000", "185845.837000", "185845.840000", "185845.843000", "185845.847000", "185845.850000", "185845.854000", "185845.857000", "185845.860000", "185845.864000", "185845.867000", "185845.870000", "185845.874000", "185845.877000", "185925.789000", "185925.793000", "185925.796000", "185925.800000", "185925.803000", "185925.807000", "185925.810000", "185925.813000", "185925.817000", "185925.835000", "185925.838000", "185925.842000", "185925.845000", "185925.848000", "185925.852000", "185925.855000", "185925.858000", "185925.862000", "185925.865000", "185925.868000", "185925.872000", "185925.875000", "185925.878000", "185925.882000", "185925.885000", "185925.888000", "185925.892000", "190005.788000", "190005.792000", "190005.795000", "190005.799000", "190005.802000", "190005.806000", "190005.809000", "190005.813000", "190005.816000", "190005.819000", "190005.823000", "190005.826000", "190005.830000", "190005.833000", "190005.837000", "190005.840000", "190005.844000", "190005.847000", "190005.850000", "190005.854000", "190005.857000", "190005.861000", "190005.864000", "190005.867000", "190005.871000", "190005.874000", "190045.788000", "190045.792000", "190045.796000", "190045.799000", "190045.802000", "190045.815000", "190045.819000", "190045.822000", "190045.826000", "190045.829000", "190045.832000", "190045.836000", "190045.839000", "190045.842000", "190045.846000", "190045.849000", "190045.852000", "190045.856000", "190045.859000", "190045.862000", "190045.866000", "190045.869000", "190045.872000", "190045.876000", "190045.879000", "190045.882000", "190045.886000", "190125.789000", "190125.793000", "190125.796000", "190125.800000", "190125.803000", "190125.806000", "190125.810000", "190125.813000", "190125.817000", "190125.820000", "190125.823000", "190125.827000", "190125.830000", "190125.833000", "190125.836000", "190125.840000", "190125.843000", "190125.847000", "190125.850000", "190125.853000", "190125.857000", "190125.860000", "190125.876000", "190125.879000", "190125.883000", "190125.886000", "190125.889000", "190205.788000", "190205.792000", "190205.795000", "190205.799000", "190205.802000", "190205.805000", "190205.809000", "190205.812000", "190205.816000", "190205.819000", "190205.822000", "190205.826000", "190205.829000", "190205.832000", "190205.836000", "190205.839000", "190205.842000", "190205.846000", "190205.849000", "190205.852000", "190205.856000", "190205.859000", "190205.863000", "190205.866000", "190205.869000", "190205.872000", "190205.876000", "190245.788000", "190245.792000", "190245.795000", "190245.799000", "190245.802000", "190245.806000", "190245.809000", "190245.812000", "190245.816000", "190245.819000", "190245.822000", "190245.826000", "190245.829000", "190245.832000", "190245.836000", "190245.839000", "190245.842000", "190245.846000", "190245.849000", "190245.853000", "190245.856000", "190245.859000", "190245.863000", "190245.866000", "190245.876000", "190245.880000", "190245.883000", "190325.789000", "190325.793000", "190325.796000", "190325.800000", "190325.803000", "190325.807000", "190325.810000", "190325.813000", "190325.817000", "190325.820000", "190325.823000", "190325.827000", "190325.830000", "190325.833000", "190325.837000", "190325.840000", "190325.843000", "190325.847000", "190325.850000", "190325.854000", "190325.857000", "190325.860000", "190325.864000", "190325.867000", "190325.872000", "190325.875000", "190325.879000", "190405.789000", "190405.793000", "190405.796000", "190405.811000", "190405.814000", "190405.818000", "190405.821000", "190405.824000", "190405.828000", "190405.831000", "190405.834000", "190405.838000", "190405.841000", "190405.844000", "190405.848000", "190405.851000", "190405.854000", "190405.858000", "190405.861000", "190405.865000", "190405.868000", "190405.871000", "190405.875000", "190405.878000", "190405.881000", "190405.885000", "190405.888000", "190445.788000", "190445.792000", "190445.796000", "190445.799000", "190445.802000", "190445.806000", "190445.809000", "190445.812000", "190445.816000", "190445.819000", "190445.822000", "190445.826000", "190445.829000", "190445.834000", "190445.837000", "190445.841000", "190445.844000", "190445.848000", "190445.851000", "190445.854000", "190445.858000", "190445.861000", "190445.864000", "190445.868000", "190445.871000", "190445.875000", "190525.789000", "190525.793000", "190525.796000", "190525.800000", "190525.803000", "190525.807000", "190525.810000", "190525.813000", "190525.817000", "190525.820000", "190525.823000", "190525.827000", "190525.830000", "190525.833000", "190525.837000", "190525.840000", "190525.843000", "190525.847000", "190525.850000", "190525.854000", "190525.857000", "190525.860000", "190525.864000", "190525.867000", "190525.871000", "190525.874000", "190525.877000", "190541.788000", "190541.792000", "190541.795000", "190541.799000", "190541.802000", "190541.806000", "190541.809000", "190541.812000", "190541.816000", "190541.819000", "190541.822000"],
