{
  "AcquisitionMatrixPE": 104,
  "AcquisitionNumber": 1,
  "AcquisitionTime": "18:14:34.815000",
  "BandwidthPerPixelPhaseEncode": 17.17,
  "BaseResolution": 104,
  "BodyPartExamined": "BRAIN",
  "CoilCombinationMethod": "Sum of Squares",
  "ConsistencyInfo": "N4_VE11C_LATEST_20160120",
  "ConversionSoftware": "dcm2niix",
  "ConversionSoftwareVersion": "v1.0.20220505",
  "DerivedVendorReportedEchoSpacing": 0.000560011,
  "DeviceSerialNumber": "167006",
  "DwellTime": 2.1e-06,
  "EchoTime": 0.037,
  "EchoTrainLength": 104,
  "EffectiveEchoSpacing": 0.000560011,
  "FlipAngle": 52,
  "HeudiconvVersion": "0.5.3.post811+g6206e14",
  "ImageComments": "Unaliased MB4/PE3/LB",
  "ImageOrientationPatientDICOM": [0.999297, -0.0336783, 0.0164827, 0.0373411, 0.933713, -0.35607],
  "ImageOrientationText": "Tra>Cor(-20.9)>Sag(0.2)",
  "ImageType": [
    "ORIGINAL",
    "PRIMARY",
    "M",
    "MB",
    "ND",
    "MOSAIC"
],
  "ImagingFrequency": 123.26,
  "InPlanePhaseEncodingDirectionDICOM": "COL",
  "InstitutionAddress": "Chemin Queen-Mary 4565,Montreal,District,CA,H3W 1W5",
  "InstitutionName": "IUGM",
  "InstitutionalDepartmentName": "Department",
  "MRAcquisitionType": "2D",
  "MagneticFieldStrength": 3,
  "Manufacturer": "Siemens",
  "ManufacturersModelName": "Prisma_fit",
  "MatrixCoilMode": "SENSE",
  "Modality": "MR",
  "MultibandAccelerationFactor": 4,
  "PartialFourier": 1,
  "PatientPosition": "HFS",
  "PercentPhaseFOV": 100,
  "PercentSampling": 100,
  "PhaseEncodingDirection": "j",
  "PhaseEncodingSteps": 104,
  "PhaseResolution": 1,
  "PixelBandwidth": 2290,
  "ProcedureStepDescription": "games^mariostars",
  "ProtocolName": "func_task-mariostars_run-03",
  "PulseSequenceDetails": "%CustomerSeq%\\cmrr_mbep2d_bold",
  "ReceiveCoilActiveElements": "HC1-7;NC1,2",
  "ReceiveCoilName": "HeadNeck_64",
  "ReconMatrixPE": 104,
  "RepetitionTime": 1.49,
  "SAR": 0.0756142,
  "ScanOptions": "FS",
  "ScanningSequence": "EP",
  "SequenceName": "epfid2d1_104",
  "SequenceVariant": "SK\\SS",
  "SeriesDescription": "func_task-mariostars_run-03",
  "SeriesNumber": 17,
  "ShimSetting": [602, -7272, -8810, 415, 15, -365, -9, 23],
  "SliceThickness": 2,
  "SliceTiming": [0, 0.7825, 0.0975, 0.88, 0.195, 0.98, 0.2925, 1.0775, 0.39, 1.175, 0.49, 1.2725, 0.5875, 1.37, 0.685, 0, 0.7825, 0.0975, 0.88, 0.195, 0.98, 0.2925, 1.0775, 0.39, 1.175, 0.49, 1.2725, 0.5875, 1.37, 0.685, 0, 0.7825, 0.0975, 0.88, 0.195, 0.98, 0.2925, 1.0775, 0.39, 1.175, 0.49, 1.2725, 0.5875, 1.37, 0.685, 0, 0.7825, 0.0975, 0.88, 0.195, 0.98, 0.2925, 1.0775, 0.39, 1.175, 0.49, 1.2725, 0.5875, 1.37, 0.685],
  "SoftwareVersions": "syngo MR E11",
  "SpacingBetweenSlices": 2,
  "StationName": "MRC35049",
  "TaskName": "mariostars",
  "TotalReadoutTime": 0.0576811,
  "TxRefAmp": 301.259,
  "WipMemBlock": "d62f5822-dffd-472b-93bb-28e53ee32f42||Sequence: R017 ve11c/master r/75a17815+; Jun 28 2022 16:32:11 by eja",
  "dcmmeta_affine": [
    [-1.9985935688018799, 0.07468225061893463, 0.006796552799642086, 100.20004272460938],
    [0.06735660135746002, 1.8674254417419434, -0.7128711342811584, -72.7115478515625],
    [0.032965436577796936, 0.7121409177780151, 1.8686274290084839, -58.157901763916016],
    [0.0, 0.0, 0.0, 1.0]
],
  "dcmmeta_reorient_transform": [
    [0.0, -1.0, 0.0, 103.0],
    [1.0, 0.0, 0.0, 0.0],
    [0.0, 0.0, 1.0, 0.0],
    [0.0, 0.0, 0.0, 1.0]
],
  "dcmmeta_shape": [104, 104, 60, 485],
  "dcmmeta_slice_dim": 2,
  "dcmmeta_version": 0.6,
  "global": {
    "const": {
      "AcquisitionMatrix": [104, 0, 0, 104],
      "AngioFlag": "N",
      "BitsAllocated": 16,
      "BitsStored": 16,
      "BodyPartExamined": "BRAIN",
      "Columns": 832,
      "EchoNumbers": 1,
      "EchoTime": 37.0,
      "EchoTrainLength": 104,
      "FlipAngle": 52.0,
      "HighBit": 15,
      "ImageOrientationPatient": [0.99929679875523, -0.0336783011113, 0.01648271918741, 0.03734112633553, 0.93371272967801, -0.3560704687576],
      "ImagePositionPatient": [-862.56472463541, -774.85834198572, 262.41249783096],
      "ImageType": [
        "ORIGINAL",
        "PRIMARY",
        "M",
        "MB",
        "ND",
        "MOSAIC"
],
      "ImagedNucleus": "1H",
      "ImagingFrequency": 123.260172,
      "InPlanePhaseEncodingDirection": "COL",
      "MRAcquisitionType": "2D",
      "MagneticFieldStrength": 3.0,
      "Manufacturer": "SIEMENS",
      "ManufacturerModelName": "Prisma_fit",
      "Modality": "MR",
      "NumberOfAverages": 1.0,
      "NumberOfPhaseEncodingSteps": 104,
      "PercentPhaseFieldOfView": 100.0,
      "PercentSampling": 100.0,
      "PerformedProcedureStepStartTime": "174154.203000",
      "PhotometricInterpretation": "MONOCHROME2",
      "PixelBandwidth": 2290.0,
      "PixelRepresentation": 0,
      "PixelSpacing": [2.0, 2.0],
      "ProtocolName": "func_task-mariostars_run-03",
      "RepetitionTime": 1490.0,
      "Rows": 832,
      "SAR": 0.07561423263098,
      "SamplesPerPixel": 1,
      "ScanOptions": "FS",
      "ScanningSequence": "EP",
      "SequenceName": "epfid2d1_104",
      "SequenceVariant": [
        "SK",
        "SS"
],
      "SeriesDescription": "func_task-mariostars_run-03",
      "SeriesNumber": 17,
      "SeriesTime": "181545.818000",
      "SliceLocation": -28.080237064782,
      "SliceThickness": 2.0,
      "SmallestImagePixelValue": 0,
      "SoftwareVersions": "syngo MR E11",
      "SpacingBetweenSlices": 2.0000000171668,
      "SpecificCharacterSet": "ISO_IR 100",
      "StudyID": "1",
      "StudyTime": "174154.127000",
      "TransmitCoilName": "Body",
      "VariableFlipAngleFlag": "N",
      "WindowCenterWidthExplanation": "Algo1",
      "dBdt": 0.0},
    "slices": {}
  },
  "time": {
    "samples": {
      "AcquisitionNumber": [1, 2, 3, 4, 5, 6, 7, 8, 9, 10, 11, 12, 13, 14, 15, 16, 17, 18, 19, 20, 21, 22, 23, 24, 25, 26, 27, 28, 29, 30, 31, 32, 33, 34, 35, 36, 37, 38, 39, 40, 41, 42, 43, 44, 45, 46, 47, 48, 49, 50, 51, 52, 53, 54, 55, 56, 57, 58, 59, 60, 61, 62, 63, 64, 65, 66, 67, 68, 69, 70, 71, 72, 73, 74, 75, 76, 77, 78, 79, 80, 81, 82, 83, 84, 85, 86, 87, 88, 89, 90, 91, 92, 93, 94, 95, 96, 97, 98, 99, 100, 101, 102, 103, 104, 105, 106, 107, 108, 109, 110, 111, 112, 113, 114, 115, 116, 117, 118, 119, 120, 121, 122, 123, 124, 125, 126, 127, 128, 129, 130, 131, 132, 133, 134, 135, 136, 137, 138, 139, 140, 141, 142, 143, 144, 145, 146, 147, 148, 149, 150, 151, 152, 153, 154, 155, 156, 157, 158, 159, 160, 161, 162, 163, 164, 165, 166, 167, 168, 169, 170, 171, 172, 173, 174, 175, 176, 177, 178, 179, 180, 181, 182, 183, 184, 185, 186, 187, 188, 189, 190, 191, 192, 193, 194, 195, 196, 197, 198, 199, 200, 201, 202, 203, 204, 205, 206, 207, 208, 209, 210, 211, 212, 213, 214, 215, 216, 217, 218, 219, 220, 221, 222, 223, 224, 225, 226, 227, 228, 229, 230, 231, 232, 233, 234, 235, 236, 237, 238, 239, 240, 241, 242, 243, 244, 245, 246, 247, 248, 249, 250, 251, 252, 253, 254, 255, 256, 257, 258, 259, 260, 261, 262, 263, 264, 265, 266, 267, 268, 269, 270, 271, 272, 273, 274, 275, 276, 277, 278, 279, 280, 281, 282, 283, 284, 285, 286, 287, 288, 289, 290, 291, 292, 293, 294, 295, 296, 297, 298, 299, 300, 301, 302, 303, 304, 305, 306, 307, 308, 309, 310, 311, 312, 313, 314, 315, 316, 317, 318, 319, 320, 321, 322, 323, 324, 325, 326, 327, 328, 329, 330, 331, 332, 333, 334, 335, 336, 337, 338, 339, 340, 341, 342, 343, 344, 345, 346, 347, 348, 349, 350, 351, 352, 353, 354, 355, 356, 357, 358, 359, 360, 361, 362, 363, 364, 365, 366, 367, 368, 369, 370, 371, 372, 373, 374, 375, 376, 377, 378, 379, 380, 381, 382, 383, 384, 385, 386, 387, 388, 389, 390, 391, 392, 393, 394, 395, 396, 397, 398, 399, 400, 401, 402, 403, 404, 405, 406, 407, 408, 409, 410, 411, 412, 413, 414, 415, 416, 417, 418, 419, 420, 421, 422, 423, 424, 425, 426, 427, 428, 429, 430, 431, 432, 433, 434, 435, 436, 437, 438, 439, 440, 441, 442, 443, 444, 445, 446, 447, 448, 449, 450, 451, 452, 453, 454, 455, 456, 457, 458, 459, 460, 461, 462, 463, 464, 465, 466, 467, 468, 469, 470, 471, 472, 473, 474, 475, 476, 477, 478, 479, 480, 481, 482, 483, 484, 485],
      "AcquisitionTime": ["181434.815000", "181436.305000", "181437.795000", "181439.285000", "181440.775000", "181442.265000", "181443.755000", "181445.245000", "181446.735000", "181448.225000", "181449.715000", "181451.205000", "181452.695000", "181454.185000", "181455.675000", "181457.165000", "181458.655000", "181500.145000", "181501.635000", "181503.125000", "181504.615000", "181506.105000", "181507.595000", "181509.085000", "181510.575000", "181512.065000", "181513.555000", "181515.045000", "181516.535000", "181518.025000", "181519.515000", "181521.005000", "181522.495000", "181523.985000", "181525.475000", "181526.965000", "181528.455000", "181529.945000", "181531.435000", "181532.925000", "181534.415000", "181535.905000", "181537.395000", "181538.885000", "181540.375000", "181541.865000", "181543.355000", "181544.845000", "181546.335000", "181547.825000", "181549.315000", "181550.805000", "181552.295000", "181553.785000", "181555.275000", "181556.765000", "181558.255000", "181559.745000", "181601.235000", "181602.725000", "181604.215000", "181605.705000", "181607.195000", "181608.685000", "181610.175000", "181611.665000", "181613.155000", "181614.645000", "181616.135000", "181617.625000", "181619.115000", "181620.605000", "181622.095000", "181623.585000", "181625.075000", "181626.565000", "181628.055000", "181629.545000", "181631.035000", "181632.525000", "181634.015000", "181635.505000", "181636.995000", "181638.485000", "181639.975000", "181641.465000", "181642.955000", "181644.445000", "181645.935000", "181647.425000", "181648.915000", "181650.405000", "181651.895000", "181653.385000", "181654.875000", "181656.365000", "181657.855000", "181659.345000", "181700.835000", "181702.325000", "181703.815000", "181705.305000", "181706.795000", "181708.285000", "181709.775000", "181711.265000", "181712.755000", "181714.245000", "181715.735000", "181717.225000", "181718.715000", "181720.205000", "181721.695000", "181723.185000", "181724.675000", "181726.165000", "181727.655000", "181729.145000", "181730.635000", "181732.125000", "181733.615000", "181735.105000", "181736.595000", "181738.085000", "181739.575000", "181741.065000", "181742.555000", "181744.045000", "181745.535000", "181747.025000", "181748.515000", "181750.005000", "181751.495000", "181752.985000", "181754.475000", "181755.965000", "181757.455000", "181758.945000", "181800.435000", "181801.925000", "181803.415000", "181804.905000", "181806.395000", "181807.885000", "181809.375000", "181810.865000", "181812.355000", "181813.845000", "181815.335000", "181816.825000", "181818.315000", "181819.805000", "181821.295000", "181822.785000", "181824.275000", "181825.765000", "181827.255000", "181828.745000", "181830.235000", "181831.725000", "181833.215000", "181834.705000", "181836.195000", "181837.685000", "181839.175000", "181840.665000", "181842.155000", "181843.645000", "181845.135000", "181846.625000", "181848.115000", "181849.605000", "181851.095000", "181852.585000", "181854.075000", "181855.565000", "181857.055000", "181858.545000", "181900.035000", "181901.525000", "181903.015000", "181904.505000", "181905.995000", "181907.485000", "181908.975000", "181910.465000", "181911.955000", "181913.445000", "181914.935000", "181916.425000", "181917.915000", "181919.405000", "181920.895000", "181922.385000", "181923.875000", "181925.365000", "181926.855000", "181928.345000", "181929.835000", "181931.325000", "181932.815000", "181934.305000", "181935.795000", "181937.285000", "181938.775000", "181940.265000", "181941.755000", "181943.245000", "181944.735000", "181946.225000", "181947.715000", "181949.205000", "181950.695000", "181952.185000", "181953.675000", "181955.165000", "181956.655000", "181958.145000", "181959.635000", "182001.125000", "182002.615000", "182004.105000", "182005.595000", "182007.085000", "182008.575000", "182010.065000", "182011.555000", "182013.045000", "182014.535000", "182016.025000", "182017.515000", "182019.005000", "182020.495000", "182021.985000", "182023.475000", "182024.965000", "182026.455000", "182027.945000", "182029.435000", "182030.925000", "182032.415000", "182033.905000", "182035.395000", "182036.885000", "182038.375000", "182039.865000", "182041.355000", "182042.845000", "182044.335000", "182045.825000", "182047.315000", "182048.805000", "182050.295000", "182051.785000", "182053.275000", "182054.765000", "182056.255000", "182057.745000", "182059.235000", "182100.725000", "182102.215000", "182103.705000", "182105.195000", "182106.685000", "182108.175000", "182109.665000", "182111.155000", "182112.645000", "182114.135000", "182115.625000", "182117.115000", "182118.605000", "182120.095000", "182121.585000", "182123.075000", "182124.565000", "182126.055000", "182127.545000", "182129.035000", "182130.525000", "182132.015000", "182133.505000", "182134.995000", "182136.485000", "182137.975000", "182139.465000", "182140.955000", "182142.445000", "182143.935000", "182145.425000", "182146.915000", "182148.405000", "182149.895000", "182151.385000", "182152.875000", "182154.365000", "182155.855000", "182157.345000", "182158.835000", "182200.325000", "182201.815000", "182203.305000", "182204.795000", "182206.285000", "182207.775000", "182209.265000", "182210.755000", "182212.245000", "182213.735000", "182215.225000", "182216.715000", "182218.205000", "182219.695000", "182221.185000", "182222.675000", "182224.165000", "182225.655000", "182227.145000", "182228.635000", "182230.125000", "182231.615000", "182233.105000", "182234.595000", "182236.085000", "182237.575000", "182239.065000", "182240.555000", "182242.045000", "182243.535000", "182245.025000", "182246.515000", "182248.005000", "182249.495000", "182250.985000", "182252.475000", "182253.965000", "182255.455000", "182256.945000", "182258.435000", "182259.925000", "182301.415000", "182302.905000", "182304.395000", "182305.885000", "182307.375000", "182308.865000", "182310.355000", "182311.845000", "182313.335000", "182314.825000", "182316.315000", "182317.805000", "182319.295000", "182320.785000", "182322.275000", "182323.765000", "182325.255000", "182326.745000", "182328.235000", "182329.725000", "182331.215000", "182332.705000", "182334.195000", "182335.685000", "182337.175000", "182338.665000", "182340.155000", "182341.645000", "182343.135000", "182344.625000", "182346.115000", "182347.605000", "182349.095000", "182350.585000", "182352.075000", "182353.565000", "182355.055000", "182356.545000", "182358.035000", "182359.525000", "182401.015000", "182402.505000", "182403.995000", "182405.485000", "182406.975000", "182408.465000", "182409.955000", "182411.445000", "182412.935000", "182414.425000", "182415.915000", "182417.405000", "182418.895000", "182420.385000", "182421.875000", "182423.365000", "182424.855000", "182426.345000", "182427.835000", "182429.325000", "182430.815000", "182432.305000", "182433.795000", "182435.285000", "182436.775000", "182438.265000", "182439.755000", "182441.245000", "182442.735000", "182444.225000", "182445.715000", "182447.205000", "182448.695000", "182450.185000", "182451.675000", "182453.165000", "182454.655000", "182456.145000", "182457.635000", "182459.125000", "182500.615000", "182502.105000", "182503.595000", "182505.085000", "182506.575000", "182508.065000", "182509.555000", "182511.045000", "182512.535000", "182514.025000", "182515.515000", "182517.005000", "182518.495000", "182519.985000", "182521.475000", "182522.965000", "182524.455000", "182525.945000", "182527.435000", "182528.925000", "182530.415000", "182531.905000", "182533.395000", "182534.885000", "182536.375000", "182537.865000", "182539.355000", "182540.845000", "182542.335000", "182543.825000", "182545.315000", "182546.805000", "182548.295000", "182549.785000", "182551.275000", "182552.765000", "182554.255000", "182555.745000", "182557.235000", "182558.725000", "182600.215000", "182601.705000", "182603.195000", "182604.685000", "182606.175000", "182607.665000", "182609.155000", "182610.645000", "182612.135000", "182613.625000", "182615.115000", "182616.605000", "182618.095000", "182619.585000", "182621.075000", "182622.565000", "182624.055000", "182625.545000", "182627.035000", "182628.525000", "182630.015000", "182631.505000", "182632.995000", "182634.485000", "182635.975000"],
      "ContentTime": ["181545.821000", "181545.825000", "181545.828000", "181545.832000", "181545.840000", "181545.843000", "181545.855000", "181545.858000", "181545.861000", "181545.865000", "181545.868000", "181545.871000", "181545.875000", "181545.878000", "181545.881000", "181545.885000", "181545.888000", "181545.891000", "181545.895000", "181545.898000", "181545.901000", "181545.905000", "181605.788000", "181605.792000", "181605.795000", "181605.798000", "181605.802000", "181605.805000", "181605.808000", "181605.812000", "181605.815000", "181605.818000", "181605.822000", "181605.825000", "181605.828000", "181605.832000", "181605.835000", "181605.838000", "181605.847000", "181605.851000", "181605.854000", "181605.858000", "181605.861000", "181625.788000", "181625.792000", "181625.795000", "181625.799000", "181625.802000", "181625.810000", "181625.814000", "181625.817000", "181625.820000", "181625.824000", "181625.827000", "181625.830000", "181625.834000", "181625.837000", "181625.840000", "181625.843000", "181625.847000", "181625.850000", "181625.854000", "181625.857000", "181645.788000", "181645.792000", "181645.795000", "181645.799000", "181645.802000", "181645.805000", "181645.809000", "181645.812000", "181645.815000", "181645.819000", "181645.822000", "181645.825000", "181645.829000", "181645.832000", "181645.835000", "181645.839000", "181645.842000", "181645.845000", "181645.849000", "181645.852000", "181725.789000", "181725.793000", "181725.796000", "181725.800000", "181725.803000", "181725.806000", "181725.810000", "181725.813000", "181725.816000", "181725.830000", "181725.833000", "181725.836000", "181725.840000", "181725.843000", "181725.846000", "181725.850000", "181725.853000", "181725.856000", "181725.860000", "181725.863000", "181725.866000", "181725.870000", "181725.873000", "181725.876000", "181725.880000", "181725.883000", "181725.887000", "181725.890000", "181725.893000", "181725.896000", "181725.910000", "181805.788000", "181805.792000", "181805.795000", "181805.799000", "181805.802000", "181805.805000", "181805.809000", "181805.812000", "181805.815000", "181805.819000", "181805.822000", "181805.826000", "181805.829000", "181805.832000", "181805.836000", "181805.839000", "181805.842000", "181805.846000", "181805.849000", "181805.852000", "181805.856000", "181805.859000", "181805.862000", "181805.866000", "181805.869000", "181805.872000", "181805.876000", "181845.788000", "181845.792000", "181845.795000", "181845.799000", "181845.802000", "181845.805000", "181845.812000", "181845.816000", "181845.819000", "181845.831000", "181845.834000", "181845.837000", "181845.841000", "181845.844000", "181845.847000", "181845.851000", "181845.854000", "181845.858000", "181845.861000", "181845.864000", "181845.868000", "181845.871000", "181845.874000", "181845.878000", "181845.881000", "181845.884000", "181845.888000", "181925.789000", "181925.793000", "181925.796000", "181925.800000", "181925.803000", "181925.806000", "181925.810000", "181925.813000", "181925.817000", "181925.834000", "181925.838000", "181925.841000", "181925.845000", "181925.848000", "181925.851000", "181925.855000", "181925.858000", "181925.861000", "181925.864000", "181925.868000", "181925.880000", "181925.884000", "181925.887000", "181925.890000", "181925.894000", "181925.897000", "181925.900000", "182005.789000", "182005.793000", "182005.796000", "182005.810000", "182005.814000", "182005.817000", "182005.820000", "182005.824000", "182005.827000", "182005.830000", "182005.834000", "182005.837000", "182005.840000", "182005.844000", "182005.863000", "182005.866000", "182005.869000", "182005.873000", "182005.877000", "182005.880000", "182005.884000", "182005.887000", "182005.891000", "182005.894000", "182005.897000", "182005.901000", "182045.788000", "182045.792000", "182045.796000", "182045.799000", "182045.802000", "182045.806000", "182045.809000", "182045.812000", "182045.816000", "182045.819000", "182045.822000", "182045.832000", "182045.836000", "182045.839000", "182045.842000", "182045.846000", "182045.849000", "182045.852000", "182045.856000", "182045.859000", "182045.862000", "182045.866000", "182045.869000", "182045.872000", "182045.876000", "182045.879000", "182045.883000", "182125.789000", "182125.793000", "182125.796000", "182125.808000", "182125.812000", "182125.815000", "182125.818000", "182125.822000", "182125.825000", "182125.829000", "182125.832000", "182125.835000", "182125.839000", "182125.842000", "182125.846000", "182125.849000", "182125.852000", "182125.856000", "182125.859000", "182125.862000", "182125.866000", "182125.869000", "182125.873000", "182125.876000", "182125.879000", "182125.883000", "182125.886000", "182205.789000", "182205.795000", "182205.799000", "182205.802000", "182205.805000", "182205.809000", "182205.812000", "182205.815000", "182205.819000", "182205.822000", "182205.825000", "182205.829000", "182205.832000", "182205.835000", "182205.839000", "182205.842000", "182205.846000", "182205.849000", "182205.852000", "182205.856000", "182205.859000", "182205.862000", "182205.866000", "182205.869000", "182205.872000", "182205.875000", "182205.892000", "182245.788000", "182245.792000", "182245.795000", "182245.799000", "182245.802000", "182245.806000", "182245.809000", "182245.812000", "182245.816000", "182245.819000", "182245.822000", "182245.826000", "182245.829000", "182245.832000", "182245.836000", "182245.839000", "182245.843000", "182245.846000", "182245.849000", "182245.853000", "182245.856000", "182245.869000", "182245.872000", "182245.876000", "182245.879000", "182245.882000", "182245.886000", "182325.788000", "182325.792000", "182325.795000", "182325.799000", "182325.802000", "182325.805000", "182325.809000", "182325.812000", "182325.815000", "182325.819000", "182325.822000", "182325.826000", "182325.829000", "182325.832000", "182325.836000", "182325.839000", "182325.842000", "182325.846000", "182325.849000", "182325.852000", "182325.856000", "182325.859000", "182325.862000", "182325.866000", "182325.873000", "182325.876000", "182325.880000", "182405.789000", "182405.793000", "182405.796000", "182405.800000", "182405.803000", "182405.807000", "182405.810000", "182405.815000", "182405.819000", "182405.822000", "182405.825000", "182405.829000", "182405.832000", "182405.835000", "182405.839000", "182405.842000", "182405.845000", "182405.849000", "182405.852000", "182405.856000", "182405.859000", "182405.862000", "182405.866000", "182405.869000", "182405.872000", "182405.876000", "182445.789000", "182445.793000", "182445.796000", "182445.800000", "182445.803000", "182445.806000", "182445.810000", "182445.813000", "182445.828000", "182445.832000", "182445.835000", "182445.838000", "182445.842000", "182445.845000", "182445.848000", "182445.852000", "182445.855000", "182445.859000", "182445.862000", "182445.865000", "182445.869000", "182445.872000", "182445.875000", "182445.879000", "182445.882000", "182445.885000", "182445.889000", "182525.788000", "182525.792000", "182525.795000", "182525.799000", "182525.802000", "182525.805000", "182525.809000", "182525.812000", "182525.816000", "182525.819000", "182525.822000", "182525.826000", "182525.829000", "182525.832000", "182525.836000", "182525.839000", "182525.843000", "182525.846000", "182525.849000", "182525.853000", "182525.856000", "182525.859000", "182525.863000", "182525.866000", "182525.869000", "182525.873000", "182525.876000", "182545.788000", "182545.792000", "182545.795000", "182545.799000", "182545.802000", "182545.805000", "182545.809000", "182545.812000", "182545.816000", "182545.819000", "182545.822000", "182545.826000", "182545.829000", "182545.833000", "182625.789000", "182625.793000", "182625.796000", "182625.800000", "182625.803000", "182625.807000", "182625.810000", "182625.813000", "182625.817000", "182625.825000", "182625.829000", "182625.832000", "182625.835000", "182625.839000", "182625.842000", "182625.846000", "182625.849000", "182625.852000", "182625.856000", "182625.859000", "182625.862000", "182625.866000", "182625.869000", "182625.873000", "182625.876000", "182625.879000", "182638.284000", "182638.288000", "182638.291000", "182638.294000", "182638.298000", "182638.301000", "182638.305000", "182638.308000", "182638.311000"],
