{
  "AcquisitionMatrixPE": 104,
  "AcquisitionNumber": 1,
  "AcquisitionTime": "18:40:51.465000",
  "BandwidthPerPixelPhaseEncode": 17.17,
  "BaseResolution": 104,
  "BodyPartExamined": "BRAIN",
  "CoilCombinationMethod": "Sum of Squares",
  "ConsistencyInfo": "N4_VE11C_LATEST_20160120",
  "ConversionSoftware": "dcm2niix",
  "ConversionSoftwareVersion": "v1.0.20220505",
  "DerivedVendorReportedEchoSpacing": 0.000560011,
  "DeviceSerialNumber": "167006",
  "DwellTime": 2.1e-06,
  "EchoTime": 0.037,
  "EchoTime1": 0.037,
  "EchoTime2": 0.001,
  "EchoTrainLength": 104,
  "EffectiveEchoSpacing": 0.000560011,
  "FlipAngle": 52,
  "HeudiconvVersion": "0.5.3.post811+g6206e14",
  "ImageComments": "Unaliased MB4/PE3/LB",
  "ImageOrientationPatientDICOM": [0.999297, -0.0336783, 0.0164827, 0.0373411, 0.933713, -0.35607],
  "ImageOrientationText": "Tra>Cor(-20.9)>Sag(0.2)",
  "ImageType": [
    "ORIGINAL",
    "PRIMARY",
    "P",
    "MB",
    "ND",
    "MOSAIC",
    "PHASE"
],
  "ImagingFrequency": 123.26,
  "InPlanePhaseEncodingDirectionDICOM": "COL",
  "InstitutionAddress": "Chemin Queen-Mary 4565,Montreal,District,CA,H3W 1W5",
  "InstitutionName": "IUGM",
  "InstitutionalDepartmentName": "Department",
  "MRAcquisitionType": "2D",
  "MagneticFieldStrength": 3,
  "Manufacturer": "Siemens",
  "ManufacturersModelName": "Prisma_fit",
  "MatrixCoilMode": "SENSE",
  "Modality": "MR",
  "MultibandAccelerationFactor": 4,
  "PartialFourier": 1,
  "PatientPosition": "HFS",
  "PercentPhaseFOV": 100,
  "PercentSampling": 100,
  "PhaseEncodingDirection": "j",
  "PhaseEncodingSteps": 104,
  "PhaseResolution": 1,
  "PixelBandwidth": 2290,
  "ProcedureStepDescription": "games^mariostars",
  "ProtocolName": "func_task-mariostars_run-05",
  "PulseSequenceDetails": "%CustomerSeq%\\cmrr_mbep2d_bold",
  "ReceiveCoilActiveElements": "HC1-7;NC1,2",
  "ReceiveCoilName": "HeadNeck_64",
  "ReconMatrixPE": 104,
  "RepetitionTime": 1.49,
  "SAR": 0.0756142,
  "ScanOptions": "FS",
  "ScanningSequence": "EP",
  "SequenceName": "epfid2d1_104",
  "SequenceVariant": "SK\\SS",
  "SeriesDescription": "func_task-mariostars_run-05",
  "SeriesNumber": 24,
  "ShimSetting": [602, -7272, -8810, 415, 15, -365, -9, 23],
  "SliceThickness": 2,
  "SliceTiming": [0, 0.7825, 0.0975, 0.88, 0.195, 0.98, 0.2925, 1.0775, 0.39, 1.175, 0.49, 1.2725, 0.5875, 1.37, 0.685, 0, 0.7825, 0.0975, 0.88, 0.195, 0.98, 0.2925, 1.0775, 0.39, 1.175, 0.49, 1.2725, 0.5875, 1.37, 0.685, 0, 0.7825, 0.0975, 0.88, 0.195, 0.98, 0.2925, 1.0775, 0.39, 1.175, 0.49, 1.2725, 0.5875, 1.37, 0.685, 0, 0.7825, 0.0975, 0.88, 0.195, 0.98, 0.2925, 1.0775, 0.39, 1.175, 0.49, 1.2725, 0.5875, 1.37, 0.685],
  "SoftwareVersions": "syngo MR E11",
  "SpacingBetweenSlices": 2,
  "StationName": "MRC35049",
  "TaskName": "mariostars",
  "TotalReadoutTime": 0.0576811,
  "TxRefAmp": 301.259,
  "WipMemBlock": "aaf604a8-758f-4f12-a667-53075a947e9e||Sequence: R017 ve11c/master r/75a17815+; Jun 28 2022 16:32:11 by eja",
  "dcmmeta_affine": [
    [-1.9985935688018799, 0.07468225061893463, 0.006796552799642086, 100.20004272460938],
    [0.06735660135746002, 1.8674254417419434, -0.7128711342811584, -72.7115478515625],
    [0.032965436577796936, 0.7121409177780151, 1.8686274290084839, -58.157901763916016],
    [0.0, 0.0, 0.0, 1.0]
],
  "dcmmeta_reorient_transform": [
    [0.0, -1.0, 0.0, 103.0],
    [1.0, 0.0, 0.0, 0.0],
    [0.0, 0.0, 1.0, 0.0],
    [0.0, 0.0, 0.0, 1.0]
],
  "dcmmeta_shape": [104, 104, 60, 500],
  "dcmmeta_slice_dim": 2,
  "dcmmeta_version": 0.6,
  "global": {
    "const": {
      "AcquisitionMatrix": [104, 0, 0, 104],
      "AngioFlag": "N",
      "BitsAllocated": 16,
      "BitsStored": 16,
      "BodyPartExamined": "BRAIN",
      "Columns": 832,
      "EchoNumbers": 1,
      "EchoTime": 37.0,
      "EchoTrainLength": 104,
      "FlipAngle": 52.0,
      "HighBit": 15,
      "ImageOrientationPatient": [0.99929679875523, -0.0336783011113, 0.01648271918741, 0.03734112633553, 0.93371272967801, -0.3560704687576],
      "ImagePositionPatient": [-862.56472463541, -774.85834198572, 262.41249783096],
      "ImageType": [
        "ORIGINAL",
        "PRIMARY",
        "P",
        "MB",
        "ND",
        "MOSAIC"
],
      "ImagedNucleus": "1H",
      "ImagingFrequency": 123.260174,
      "InPlanePhaseEncodingDirection": "COL",
      "LargestImagePixelValue": 4095,
      "MRAcquisitionType": "2D",
      "MagneticFieldStrength": 3.0,
      "Manufacturer": "SIEMENS",
      "ManufacturerModelName": "Prisma_fit",
      "Modality": "MR",
      "NumberOfAverages": 1.0,
      "NumberOfPhaseEncodingSteps": 104,
      "PercentPhaseFieldOfView": 100.0,
      "PercentSampling": 100.0,
      "PerformedProcedureStepStartTime": "174154.203000",
      "PhotometricInterpretation": "MONOCHROME2",
      "PixelBandwidth": 2290.0,
      "PixelRepresentation": 0,
      "PixelSpacing": [2.0, 2.0],
      "ProtocolName": "func_task-mariostars_run-05",
      "RepetitionTime": 1490.0,
      "RescaleIntercept": -4096.0,
      "RescaleSlope": 2.0,
      "RescaleType": "US",
      "Rows": 832,
      "SAR": 0.07561423263098,
      "SamplesPerPixel": 1,
      "ScanOptions": "FS",
      "ScanningSequence": "EP",
      "SequenceName": "epfid2d1_104",
      "SequenceVariant": [
        "SK",
        "SS"
],
      "SeriesDescription": "func_task-mariostars_run-05",
      "SeriesNumber": 24,
      "SeriesTime": "184200.044000",
      "SliceLocation": -28.080237064782,
      "SliceThickness": 2.0,
      "SmallestImagePixelValue": 0,
      "SoftwareVersions": "syngo MR E11",
      "SpacingBetweenSlices": 2.0000000171668,
      "SpecificCharacterSet": "ISO_IR 100",
      "StudyID": "1",
      "StudyTime": "174154.127000",
      "TransmitCoilName": "Body",
      "VariableFlipAngleFlag": "N",
      "WindowCenterWidthExplanation": "Algo1",
      "dBdt": 0.0},
    "slices": {}
  },
  "time": {
    "samples": {
      "AcquisitionNumber": [1, 2, 3, 4, 5, 6, 7, 8, 9, 10, 11, 12, 13, 14, 15, 16, 17, 18, 19, 20, 21, 22, 23, 24, 25, 26, 27, 28, 29, 30, 31, 32, 33, 34, 35, 36, 37, 38, 39, 40, 41, 42, 43, 44, 45, 46, 47, 48, 49, 50, 51, 52, 53, 54, 55, 56, 57, 58, 59, 60, 61, 62, 63, 64, 65, 66, 67, 68, 69, 70, 71, 72, 73, 74, 75, 76, 77, 78, 79, 80, 81, 82, 83, 84, 85, 86, 87, 88, 89, 90, 91, 92, 93, 94, 95, 96, 97, 98, 99, 100, 101, 102, 103, 104, 105, 106, 107, 108, 109, 110, 111, 112, 113, 114, 115, 116, 117, 118, 119, 120, 121, 122, 123, 124, 125, 126, 127, 128, 129, 130, 131, 132, 133, 134, 135, 136, 137, 138, 139, 140, 141, 142, 143, 144, 145, 146, 147, 148, 149, 150, 151, 152, 153, 154, 155, 156, 157, 158, 159, 160, 161, 162, 163, 164, 165, 166, 167, 168, 169, 170, 171, 172, 173, 174, 175, 176, 177, 178, 179, 180, 181, 182, 183, 184, 185, 186, 187, 188, 189, 190, 191, 192, 193, 194, 195, 196, 197, 198, 199, 200, 201, 202, 203, 204, 205, 206, 207, 208, 209, 210, 211, 212, 213, 214, 215, 216, 217, 218, 219, 220, 221, 222, 223, 224, 225, 226, 227, 228, 229, 230, 231, 232, 233, 234, 235, 236, 237, 238, 239, 240, 241, 242, 243, 244, 245, 246, 247, 248, 249, 250, 251, 252, 253, 254, 255, 256, 257, 258, 259, 260, 261, 262, 263, 264, 265, 266, 267, 268, 269, 270, 271, 272, 273, 274, 275, 276, 277, 278, 279, 280, 281, 282, 283, 284, 285, 286, 287, 288, 289, 290, 291, 292, 293, 294, 295, 296, 297, 298, 299, 300, 301, 302, 303, 304, 305, 306, 307, 308, 309, 310, 311, 312, 313, 314, 315, 316, 317, 318, 319, 320, 321, 322, 323, 324, 325, 326, 327, 328, 329, 330, 331, 332, 333, 334, 335, 336, 337, 338, 339, 340, 341, 342, 343, 344, 345, 346, 347, 348, 349, 350, 351, 352, 353, 354, 355, 356, 357, 358, 359, 360, 361, 362, 363, 364, 365, 366, 367, 368, 369, 370, 371, 372, 373, 374, 375, 376, 377, 378, 379, 380, 381, 382, 383, 384, 385, 386, 387, 388, 389, 390, 391, 392, 393, 394, 395, 396, 397, 398, 399, 400, 401, 402, 403, 404, 405, 406, 407, 408, 409, 410, 411, 412, 413, 414, 415, 416, 417, 418, 419, 420, 421, 422, 423, 424, 425, 426, 427, 428, 429, 430, 431, 432, 433, 434, 435, 436, 437, 438, 439, 440, 441, 442, 443, 444, 445, 446, 447, 448, 449, 450, 451, 452, 453, 454, 455, 456, 457, 458, 459, 460, 461, 462, 463, 464, 465, 466, 467, 468, 469, 470, 471, 472, 473, 474, 475, 476, 477, 478, 479, 480, 481, 482, 483, 484, 485, 486, 487, 488, 489, 490, 491, 492, 493, 494, 495, 496, 497, 498, 499, 500],
      "AcquisitionTime": ["184051.465000", "184052.955000", "184054.445000", "184055.935000", "184057.425000", "184058.915000", "184100.405000", "184101.895000", "184103.385000", "184104.875000", "184106.365000", "184107.855000", "184109.345000", "184110.835000", "184112.325000", "184113.815000", "184115.305000", "184116.795000", "184118.285000", "184119.775000", "184121.265000", "184122.755000", "184124.245000", "184125.735000", "184127.225000", "184128.715000", "184130.205000", "184131.695000", "184133.185000", "184134.675000", "184136.165000", "184137.655000", "184139.145000", "184140.635000", "184142.125000", "184143.615000", "184145.105000", "184146.595000", "184148.085000", "184149.575000", "184151.065000", "184152.555000", "184154.045000", "184155.535000", "184157.025000", "184158.515000", "184200.005000", "184201.495000", "184202.985000", "184204.475000", "184205.965000", "184207.455000", "184208.945000", "184210.435000", "184211.925000", "184213.415000", "184214.905000", "184216.395000", "184217.885000", "184219.375000", "184220.865000", "184222.355000", "184223.845000", "184225.335000", "184226.825000", "184228.315000", "184229.805000", "184231.295000", "184232.785000", "184234.275000", "184235.765000", "184237.255000", "184238.745000", "184240.235000", "184241.725000", "184243.215000", "184244.705000", "184246.195000", "184247.685000", "184249.175000", "184250.665000", "184252.155000", "184253.645000", "184255.135000", "184256.625000", "184258.115000", "184259.605000", "184301.095000", "184302.585000", "184304.075000", "184305.565000", "184307.055000", "184308.545000", "184310.035000", "184311.525000", "184313.015000", "184314.505000", "184315.995000", "184317.485000", "184318.975000", "184320.465000", "184321.955000", "184323.445000", "184324.935000", "184326.425000", "184327.915000", "184329.405000", "184330.895000", "184332.385000", "184333.875000", "184335.365000", "184336.855000", "184338.345000", "184339.835000", "184341.325000", "184342.815000", "184344.305000", "184345.795000", "184347.285000", "184348.775000", "184350.265000", "184351.755000", "184353.245000", "184354.735000", "184356.225000", "184357.715000", "184359.205000", "184400.695000", "184402.185000", "184403.675000", "184405.165000", "184406.655000", "184408.145000", "184409.635000", "184411.125000", "184412.615000", "184414.105000", "184415.595000", "184417.085000", "184418.575000", "184420.065000", "184421.555000", "184423.045000", "184424.535000", "184426.025000", "184427.515000", "184429.005000", "184430.495000", "184431.985000", "184433.475000", "184434.965000", "184436.455000", "184437.945000", "184439.435000", "184440.925000", "184442.415000", "184443.905000", "184445.395000", "184446.885000", "184448.375000", "184449.865000", "184451.355000", "184452.845000", "184454.335000", "184455.825000", "184457.315000", "184458.805000", "184500.295000", "184501.785000", "184503.275000", "184504.765000", "184506.255000", "184507.745000", "184509.235000", "184510.725000", "184512.215000", "184513.705000", "184515.195000", "184516.685000", "184518.175000", "184519.665000", "184521.155000", "184522.645000", "184524.135000", "184525.625000", "184527.115000", "184528.605000", "184530.095000", "184531.585000", "184533.075000", "184534.565000", "184536.055000", "184537.545000", "184539.035000", "184540.525000", "184542.015000", "184543.505000", "184544.995000", "184546.485000", "184547.975000", "184549.465000", "184550.955000", "184552.445000", "184553.935000", "184555.425000", "184556.915000", "184558.405000", "184559.895000", "184601.385000", "184602.875000", "184604.365000", "184605.855000", "184607.345000", "184608.835000", "184610.325000", "184611.815000", "184613.305000", "184614.795000", "184616.285000", "184617.775000", "184619.265000", "184620.755000", "184622.245000", "184623.735000", "184625.225000", "184626.715000", "184628.205000", "184629.695000", "184631.185000", "184632.675000", "184634.165000", "184635.655000", "184637.145000", "184638.635000", "184640.125000", "184641.615000", "184643.105000", "184644.595000", "184646.085000", "184647.575000", "184649.065000", "184650.555000", "184652.045000", "184653.535000", "184655.025000", "184656.515000", "184658.005000", "184659.495000", "184700.985000", "184702.475000", "184703.965000", "184705.455000", "184706.945000", "184708.435000", "184709.925000", "184711.415000", "184712.905000", "184714.395000", "184715.885000", "184717.375000", "184718.865000", "184720.355000", "184721.845000", "184723.335000", "184724.825000", "184726.315000", "184727.805000", "184729.295000", "184730.785000", "184732.275000", "184733.765000", "184735.255000", "184736.745000", "184738.235000", "184739.725000", "184741.215000", "184742.705000", "184744.195000", "184745.685000", "184747.175000", "184748.665000", "184750.155000", "184751.645000", "184753.135000", "184754.625000", "184756.115000", "184757.605000", "184759.095000", "184800.585000", "184802.075000", "184803.565000", "184805.055000", "184806.545000", "184808.035000", "184809.525000", "184811.015000", "184812.505000", "184813.995000", "184815.485000", "184816.975000", "184818.465000", "184819.955000", "184821.445000", "184822.935000", "184824.425000", "184825.915000", "184827.405000", "184828.895000", "184830.385000", "184831.875000", "184833.365000", "184834.855000", "184836.345000", "184837.835000", "184839.325000", "184840.815000", "184842.305000", "184843.795000", "184845.285000", "184846.775000", "184848.265000", "184849.755000", "184851.245000", "184852.735000", "184854.225000", "184855.715000", "184857.205000", "184858.695000", "184900.185000", "184901.675000", "184903.165000", "184904.655000", "184906.145000", "184907.635000", "184909.125000", "184910.615000", "184912.105000", "184913.595000", "184915.085000", "184916.575000", "184918.065000", "184919.555000", "184921.045000", "184922.535000", "184924.025000", "184925.515000", "184927.005000", "184928.495000", "184929.985000", "184931.475000", "184932.965000", "184934.455000", "184935.945000", "184937.435000", "184938.925000", "184940.415000", "184941.905000", "184943.395000", "184944.885000", "184946.375000", "184947.865000", "184949.355000", "184950.845000", "184952.335000", "184953.825000", "184955.315000", "184956.805000", "184958.295000", "184959.785000", "185001.275000", "185002.765000", "185004.255000", "185005.745000", "185007.235000", "185008.725000", "185010.215000", "185011.705000", "185013.195000", "185014.685000", "185016.175000", "185017.665000", "185019.155000", "185020.645000", "185022.135000", "185023.625000", "185025.115000", "185026.605000", "185028.095000", "185029.585000", "185031.075000", "185032.565000", "185034.055000", "185035.545000", "185037.035000", "185038.525000", "185040.015000", "185041.505000", "185042.995000", "185044.485000", "185045.975000", "185047.465000", "185048.955000", "185050.445000", "185051.935000", "185053.425000", "185054.915000", "185056.405000", "185057.895000", "185059.385000", "185100.875000", "185102.365000", "185103.855000", "185105.345000", "185106.835000", "185108.325000", "185109.815000", "185111.305000", "185112.795000", "185114.285000", "185115.775000", "185117.265000", "185118.755000", "185120.245000", "185121.735000", "185123.225000", "185124.715000", "185126.205000", "185127.695000", "185129.185000", "185130.675000", "185132.165000", "185133.655000", "185135.145000", "185136.635000", "185138.125000", "185139.615000", "185141.105000", "185142.595000", "185144.085000", "185145.575000", "185147.065000", "185148.555000", "185150.045000", "185151.535000", "185153.025000", "185154.515000", "185156.005000", "185157.495000", "185158.985000", "185200.475000", "185201.965000", "185203.455000", "185204.945000", "185206.435000", "185207.925000", "185209.415000", "185210.905000", "185212.395000", "185213.885000", "185215.375000", "185216.865000", "185218.355000", "185219.845000", "185221.335000", "185222.825000", "185224.315000", "185225.805000", "185227.295000", "185228.785000", "185230.275000", "185231.765000", "185233.255000", "185234.745000", "185236.235000", "185237.725000", "185239.215000", "185240.705000", "185242.195000", "185243.685000", "185245.175000", "185246.665000", "185248.155000", "185249.645000", "185251.135000", "185252.625000", "185254.115000", "185255.605000", "185257.095000", "185258.585000", "185300.075000", "185301.565000", "185303.055000", "185304.545000", "185306.035000", "185307.525000", "185309.015000", "185310.505000", "185311.995000", "185313.485000", "185314.975000"],
      "ContentTime": ["184200.047000", "184200.049000", "184200.052000", "184200.054000", "184200.057000", "184200.059000", "184200.062000", "184200.065000", "184200.067000", "184200.070000", "184200.072000", "184200.075000", "184200.077000", "184200.089000", "184200.092000", "184200.094000", "184200.097000", "184200.099000", "184200.102000", "184200.104000", "184220.000000", "184220.002000", "184220.005000", "184220.008000", "184220.010000", "184220.013000", "184220.015000", "184220.018000", "184220.020000", "184220.023000", "184220.025000", "184220.028000", "184220.030000", "184220.033000", "184220.035000", "184220.038000", "184220.040000", "184220.043000", "184220.045000", "184220.048000", "184239.998000", "184240.000000", "184240.003000", "184240.005000", "184240.008000", "184240.011000", "184240.013000", "184240.016000", "184240.018000", "184240.021000", "184240.023000", "184240.026000", "184240.028000", "184240.031000", "184240.033000", "184240.036000", "184240.039000", "184240.041000", "184240.044000", "184240.046000", "184259.991000", "184259.994000", "184259.997000", "184300.000000", "184300.002000", "184300.005000", "184300.008000", "184300.010000", "184300.013000", "184300.015000", "184300.018000", "184300.020000", "184300.023000", "184300.025000", "184300.028000", "184300.030000", "184300.033000", "184300.035000", "184300.038000", "184300.040000", "184340.057000", "184340.060000", "184340.062000", "184340.065000", "184340.067000", "184340.070000", "184340.072000", "184340.075000", "184340.078000", "184340.087000", "184340.090000", "184340.092000", "184340.105000", "184340.107000", "184340.110000", "184340.113000", "184340.115000", "184340.118000", "184340.120000", "184340.123000", "184340.125000", "184340.128000", "184340.130000", "184340.133000", "184340.135000", "184340.138000", "184340.140000", "184340.143000", "184340.145000", "184340.149000", "184340.151000", "184340.154000", "184420.030000", "184420.033000", "184420.035000", "184420.038000", "184420.040000", "184420.043000", "184420.046000", "184420.048000", "184420.051000", "184420.053000", "184420.056000", "184420.058000", "184420.061000", "184420.063000", "184420.066000", "184420.068000", "184420.071000", "184420.073000", "184420.076000", "184420.079000", "184420.081000", "184420.084000", "184420.086000", "184420.089000", "184420.091000", "184420.094000", "184420.096000", "184500.032000", "184500.035000", "184500.037000", "184500.040000", "184500.043000", "184500.046000", "184500.049000", "184500.051000", "184500.054000", "184500.057000", "184500.059000", "184500.062000", "184500.071000", "184500.073000", "184500.076000", "184500.078000", "184500.081000", "184500.084000", "184500.086000", "184500.089000", "184500.091000", "184500.094000", "184500.096000", "184500.099000", "184500.101000", "184500.104000", "184500.106000", "184540.029000", "184540.032000", "184540.034000", "184540.037000", "184540.040000", "184540.042000", "184540.045000", "184540.047000", "184540.050000", "184540.052000", "184540.055000", "184540.057000", "184540.060000", "184540.062000", "184540.065000", "184540.067000", "184540.070000", "184540.072000", "184540.075000", "184540.078000", "184540.080000", "184540.083000", "184540.085000", "184540.088000", "184540.090000", "184540.093000", "184540.095000", "184620.036000", "184620.039000", "184620.042000", "184620.044000", "184620.047000", "184620.049000", "184620.052000", "184620.054000", "184620.057000", "184620.059000", "184620.062000", "184620.065000", "184620.067000", "184620.070000", "184620.072000", "184620.075000", "184620.077000", "184620.080000", "184620.082000", "184620.085000", "184620.087000", "184620.090000", "184620.093000", "184620.095000", "184620.098000", "184620.100000", "184620.103000", "184700.472000", "184700.475000", "184700.477000", "184700.480000", "184700.482000", "184700.485000", "184700.488000", "184700.490000", "184700.493000", "184700.495000", "184700.498000", "184700.500000", "184700.503000", "184700.505000", "184700.508000", "184700.510000", "184700.513000", "184700.516000", "184700.519000", "184700.521000", "184700.533000", "184700.535000", "184700.538000", "184700.540000", "184700.543000", "184700.545000", "184700.548000", "184740.019000", "184740.021000", "184740.024000", "184740.027000", "184740.029000", "184740.032000", "184740.034000", "184740.037000", "184740.040000", "184740.042000", "184740.045000", "184740.048000", "184740.050000", "184740.053000", "184740.055000", "184740.058000", "184740.061000", "184740.063000", "184740.066000", "184740.068000", "184740.071000", "184740.073000", "184740.076000", "184740.078000", "184740.081000", "184740.084000", "184820.027000", "184820.030000", "184820.032000", "184820.035000", "184820.037000", "184820.040000", "184820.042000", "184820.045000", "184820.047000", "184820.050000", "184820.052000", "184820.055000", "184820.057000", "184820.060000", "184820.063000", "184820.065000", "184820.068000", "184820.070000", "184820.073000", "184820.075000", "184820.078000", "184820.080000", "184820.083000", "184820.085000", "184820.088000", "184820.090000", "184820.093000", "184900.052000", "184900.055000", "184900.057000", "184900.060000", "184900.062000", "184900.065000", "184900.067000", "184900.070000", "184900.072000", "184900.075000", "184900.077000", "184900.080000", "184900.083000", "184900.085000", "184900.088000", "184900.090000", "184900.093000", "184900.095000", "184900.098000", "184900.100000", "184900.103000", "184900.105000", "184900.108000", "184900.110000", "184900.113000", "184900.116000", "184900.118000", "184940.037000", "184940.040000", "184940.042000", "184940.045000", "184940.047000", "184940.050000", "184940.052000", "184940.055000", "184940.057000", "184940.060000", "184940.063000", "184940.065000", "184940.068000", "184940.070000", "184940.073000", "184940.075000", "184940.078000", "184940.080000", "184940.083000", "184940.085000", "184940.088000", "184940.092000", "184940.095000", "184940.097000", "184940.100000", "184940.102000", "184940.105000", "185020.018000", "185020.021000", "185020.023000", "185020.026000", "185020.028000", "185020.031000", "185020.033000", "185020.036000", "185020.039000", "185020.041000", "185020.044000", "185020.046000", "185020.049000", "185020.051000", "185020.054000", "185020.057000", "185020.059000", "185020.062000", "185020.064000", "185020.067000", "185020.069000", "185020.072000", "185020.074000", "185020.077000", "185020.079000", "185020.082000", "185020.085000", "185100.030000", "185100.033000", "185100.035000", "185100.038000", "185100.040000", "185100.043000", "185100.045000", "185100.048000", "185100.051000", "185100.053000", "185100.056000", "185100.058000", "185100.061000", "185100.063000", "185100.066000", "185100.068000", "185100.071000", "185100.074000", "185100.076000", "185100.079000", "185100.081000", "185100.084000", "185100.086000", "185100.089000", "185100.091000", "185100.094000", "185100.096000", "185140.032000", "185140.035000", "185140.038000", "185140.040000", "185140.043000", "185140.045000", "185140.048000", "185140.050000", "185140.053000", "185140.055000", "185140.058000", "185140.060000", "185140.063000", "185140.065000", "185140.068000", "185140.070000", "185140.073000", "185140.076000", "185140.078000", "185140.081000", "185140.083000", "185140.086000", "185140.088000", "185140.091000", "185140.093000", "185140.102000", "185220.031000", "185220.034000", "185220.043000", "185220.046000", "185220.048000", "185220.051000", "185220.053000", "185220.056000", "185220.058000", "185220.061000", "185220.063000", "185220.066000", "185220.069000", "185220.071000", "185220.074000", "185220.076000", "185220.079000", "185220.082000", "185220.084000", "185220.087000", "185220.089000", "185220.092000", "185220.094000", "185220.097000", "185220.099000", "185220.102000", "185220.104000", "185300.045000", "185300.047000", "185300.050000", "185300.052000", "185300.055000", "185300.058000", "185300.060000", "185300.063000", "185300.065000", "185300.068000", "185300.070000", "185300.073000", "185300.075000", "185300.078000", "185300.080000", "185300.083000", "185300.085000", "185300.088000", "185300.090000", "185300.093000", "185300.096000", "185300.098000", "185300.101000", "185300.103000", "185300.106000", "185300.108000", "185300.111000", "185317.766000", "185317.769000", "185317.772000", "185317.774000", "185317.777000", "185317.779000", "185317.782000", "185317.784000", "185317.787000", "185317.789000", "185317.792000", "185317.795000"],
