{
  "AcquisitionMatrixPE": 104,
  "AcquisitionNumber": 1,
  "AcquisitionTime": "18:40:51.465000",
  "BandwidthPerPixelPhaseEncode": 17.17,
  "BaseResolution": 104,
  "BodyPartExamined": "BRAIN",
  "CoilCombinationMethod": "Sum of Squares",
  "ConsistencyInfo": "N4_VE11C_LATEST_20160120",
  "ConversionSoftware": "dcm2niix",
  "ConversionSoftwareVersion": "v1.0.20220505",
  "DerivedVendorReportedEchoSpacing": 0.000560011,
  "DeviceSerialNumber": "167006",
  "DwellTime": 2.1e-06,
  "EchoTime": 0.037,
  "EchoTrainLength": 104,
  "EffectiveEchoSpacing": 0.000560011,
  "FlipAngle": 52,
  "HeudiconvVersion": "0.5.3.post811+g6206e14",
  "ImageComments": "Unaliased MB4/PE3/LB",
  "ImageOrientationPatientDICOM": [0.999297, -0.0336783, 0.0164827, 0.0373411, 0.933713, -0.35607],
  "ImageOrientationText": "Tra>Cor(-20.9)>Sag(0.2)",
  "ImageType": [
    "ORIGINAL",
    "PRIMARY",
    "M",
    "MB",
    "ND",
    "MOSAIC"
],
  "ImagingFrequency": 123.26,
  "InPlanePhaseEncodingDirectionDICOM": "COL",
  "InstitutionAddress": "Chemin Queen-Mary 4565,Montreal,District,CA,H3W 1W5",
  "InstitutionName": "IUGM",
  "InstitutionalDepartmentName": "Department",
  "MRAcquisitionType": "2D",
  "MagneticFieldStrength": 3,
  "Manufacturer": "Siemens",
  "ManufacturersModelName": "Prisma_fit",
  "MatrixCoilMode": "SENSE",
  "Modality": "MR",
  "MultibandAccelerationFactor": 4,
  "PartialFourier": 1,
  "PatientPosition": "HFS",
  "PercentPhaseFOV": 100,
  "PercentSampling": 100,
  "PhaseEncodingDirection": "j",
  "PhaseEncodingSteps": 104,
  "PhaseResolution": 1,
  "PixelBandwidth": 2290,
  "ProcedureStepDescription": "games^mariostars",
  "ProtocolName": "func_task-mariostars_run-05",
  "PulseSequenceDetails": "%CustomerSeq%\\cmrr_mbep2d_bold",
  "ReceiveCoilActiveElements": "HC1-7;NC1,2",
  "ReceiveCoilName": "HeadNeck_64",
  "ReconMatrixPE": 104,
  "RepetitionTime": 1.49,
  "SAR": 0.0756142,
  "ScanOptions": "FS",
  "ScanningSequence": "EP",
  "SequenceName": "epfid2d1_104",
  "SequenceVariant": "SK\\SS",
  "SeriesDescription": "func_task-mariostars_run-05",
  "SeriesNumber": 23,
  "ShimSetting": [602, -7272, -8810, 415, 15, -365, -9, 23],
  "SliceThickness": 2,
  "SliceTiming": [0, 0.7825, 0.0975, 0.88, 0.195, 0.98, 0.2925, 1.0775, 0.39, 1.175, 0.49, 1.2725, 0.5875, 1.37, 0.685, 0, 0.7825, 0.0975, 0.88, 0.195, 0.98, 0.2925, 1.0775, 0.39, 1.175, 0.49, 1.2725, 0.5875, 1.37, 0.685, 0, 0.7825, 0.0975, 0.88, 0.195, 0.98, 0.2925, 1.0775, 0.39, 1.175, 0.49, 1.2725, 0.5875, 1.37, 0.685, 0, 0.7825, 0.0975, 0.88, 0.195, 0.98, 0.2925, 1.0775, 0.39, 1.175, 0.49, 1.2725, 0.5875, 1.37, 0.685],
  "SoftwareVersions": "syngo MR E11",
  "SpacingBetweenSlices": 2,
  "StationName": "MRC35049",
  "TaskName": "mariostars",
  "TotalReadoutTime": 0.0576811,
  "TxRefAmp": 301.259,
  "WipMemBlock": "aaf604a8-758f-4f12-a667-53075a947e9e||Sequence: R017 ve11c/master r/75a17815+; Jun 28 2022 16:32:11 by eja",
  "dcmmeta_affine": [
    [-1.9985935688018799, 0.07468225061893463, 0.006796552799642086, 100.20004272460938],
    [0.06735660135746002, 1.8674254417419434, -0.7128711342811584, -72.7115478515625],
    [0.032965436577796936, 0.7121409177780151, 1.8686274290084839, -58.157901763916016],
    [0.0, 0.0, 0.0, 1.0]
],
  "dcmmeta_reorient_transform": [
    [0.0, -1.0, 0.0, 103.0],
    [1.0, 0.0, 0.0, 0.0],
    [0.0, 0.0, 1.0, 0.0],
    [0.0, 0.0, 0.0, 1.0]
],
  "dcmmeta_shape": [104, 104, 60, 500],
  "dcmmeta_slice_dim": 2,
  "dcmmeta_version": 0.6,
  "global": {
    "const": {
      "AcquisitionMatrix": [104, 0, 0, 104],
      "AngioFlag": "N",
      "BitsAllocated": 16,
      "BitsStored": 16,
      "BodyPartExamined": "BRAIN",
      "Columns": 832,
      "EchoNumbers": 1,
      "EchoTime": 37.0,
      "EchoTrainLength": 104,
      "FlipAngle": 52.0,
      "HighBit": 15,
      "ImageOrientationPatient": [0.99929679875523, -0.0336783011113, 0.01648271918741, 0.03734112633553, 0.93371272967801, -0.3560704687576],
      "ImagePositionPatient": [-862.56472463541, -774.85834198572, 262.41249783096],
      "ImageType": [
        "ORIGINAL",
        "PRIMARY",
        "M",
        "MB",
        "ND",
        "MOSAIC"
],
      "ImagedNucleus": "1H",
      "ImagingFrequency": 123.260174,
      "InPlanePhaseEncodingDirection": "COL",
      "MRAcquisitionType": "2D",
      "MagneticFieldStrength": 3.0,
      "Manufacturer": "SIEMENS",
      "ManufacturerModelName": "Prisma_fit",
      "Modality": "MR",
      "NumberOfAverages": 1.0,
      "NumberOfPhaseEncodingSteps": 104,
      "PercentPhaseFieldOfView": 100.0,
      "PercentSampling": 100.0,
      "PerformedProcedureStepStartTime": "174154.203000",
      "PhotometricInterpretation": "MONOCHROME2",
      "PixelBandwidth": 2290.0,
      "PixelRepresentation": 0,
      "PixelSpacing": [2.0, 2.0],
      "ProtocolName": "func_task-mariostars_run-05",
      "RepetitionTime": 1490.0,
      "Rows": 832,
      "SAR": 0.07561423263098,
      "SamplesPerPixel": 1,
      "ScanOptions": "FS",
      "ScanningSequence": "EP",
      "SequenceName": "epfid2d1_104",
      "SequenceVariant": [
        "SK",
        "SS"
],
      "SeriesDescription": "func_task-mariostars_run-05",
      "SeriesNumber": 23,
      "SeriesTime": "184159.922000",
      "SliceLocation": -28.080237064782,
      "SliceThickness": 2.0,
      "SmallestImagePixelValue": 0,
      "SoftwareVersions": "syngo MR E11",
      "SpacingBetweenSlices": 2.0000000171668,
      "SpecificCharacterSet": "ISO_IR 100",
      "StudyID": "1",
      "StudyTime": "174154.127000",
      "TransmitCoilName": "Body",
      "VariableFlipAngleFlag": "N",
      "WindowCenterWidthExplanation": "Algo1",
      "dBdt": 0.0},
    "slices": {}
  },
  "time": {
    "samples": {
      "AcquisitionNumber": [1, 2, 3, 4, 5, 6, 7, 8, 9, 10, 11, 12, 13, 14, 15, 16, 17, 18, 19, 20, 21, 22, 23, 24, 25, 26, 27, 28, 29, 30, 31, 32, 33, 34, 35, 36, 37, 38, 39, 40, 41, 42, 43, 44, 45, 46, 47, 48, 49, 50, 51, 52, 53, 54, 55, 56, 57, 58, 59, 60, 61, 62, 63, 64, 65, 66, 67, 68, 69, 70, 71, 72, 73, 74, 75, 76, 77, 78, 79, 80, 81, 82, 83, 84, 85, 86, 87, 88, 89, 90, 91, 92, 93, 94, 95, 96, 97, 98, 99, 100, 101, 102, 103, 104, 105, 106, 107, 108, 109, 110, 111, 112, 113, 114, 115, 116, 117, 118, 119, 120, 121, 122, 123, 124, 125, 126, 127, 128, 129, 130, 131, 132, 133, 134, 135, 136, 137, 138, 139, 140, 141, 142, 143, 144, 145, 146, 147, 148, 149, 150, 151, 152, 153, 154, 155, 156, 157, 158, 159, 160, 161, 162, 163, 164, 165, 166, 167, 168, 169, 170, 171, 172, 173, 174, 175, 176, 177, 178, 179, 180, 181, 182, 183, 184, 185, 186, 187, 188, 189, 190, 191, 192, 193, 194, 195, 196, 197, 198, 199, 200, 201, 202, 203, 204, 205, 206, 207, 208, 209, 210, 211, 212, 213, 214, 215, 216, 217, 218, 219, 220, 221, 222, 223, 224, 225, 226, 227, 228, 229, 230, 231, 232, 233, 234, 235, 236, 237, 238, 239, 240, 241, 242, 243, 244, 245, 246, 247, 248, 249, 250, 251, 252, 253, 254, 255, 256, 257, 258, 259, 260, 261, 262, 263, 264, 265, 266, 267, 268, 269, 270, 271, 272, 273, 274, 275, 276, 277, 278, 279, 280, 281, 282, 283, 284, 285, 286, 287, 288, 289, 290, 291, 292, 293, 294, 295, 296, 297, 298, 299, 300, 301, 302, 303, 304, 305, 306, 307, 308, 309, 310, 311, 312, 313, 314, 315, 316, 317, 318, 319, 320, 321, 322, 323, 324, 325, 326, 327, 328, 329, 330, 331, 332, 333, 334, 335, 336, 337, 338, 339, 340, 341, 342, 343, 344, 345, 346, 347, 348, 349, 350, 351, 352, 353, 354, 355, 356, 357, 358, 359, 360, 361, 362, 363, 364, 365, 366, 367, 368, 369, 370, 371, 372, 373, 374, 375, 376, 377, 378, 379, 380, 381, 382, 383, 384, 385, 386, 387, 388, 389, 390, 391, 392, 393, 394, 395, 396, 397, 398, 399, 400, 401, 402, 403, 404, 405, 406, 407, 408, 409, 410, 411, 412, 413, 414, 415, 416, 417, 418, 419, 420, 421, 422, 423, 424, 425, 426, 427, 428, 429, 430, 431, 432, 433, 434, 435, 436, 437, 438, 439, 440, 441, 442, 443, 444, 445, 446, 447, 448, 449, 450, 451, 452, 453, 454, 455, 456, 457, 458, 459, 460, 461, 462, 463, 464, 465, 466, 467, 468, 469, 470, 471, 472, 473, 474, 475, 476, 477, 478, 479, 480, 481, 482, 483, 484, 485, 486, 487, 488, 489, 490, 491, 492, 493, 494, 495, 496, 497, 498, 499, 500],
      "AcquisitionTime": ["184051.465000", "184052.955000", "184054.445000", "184055.935000", "184057.425000", "184058.915000", "184100.405000", "184101.895000", "184103.385000", "184104.875000", "184106.365000", "184107.855000", "184109.345000", "184110.835000", "184112.325000", "184113.815000", "184115.305000", "184116.795000", "184118.285000", "184119.775000", "184121.265000", "184122.755000", "184124.245000", "184125.735000", "184127.225000", "184128.715000", "184130.205000", "184131.695000", "184133.185000", "184134.675000", "184136.165000", "184137.655000", "184139.145000", "184140.635000", "184142.125000", "184143.615000", "184145.105000", "184146.595000", "184148.085000", "184149.575000", "184151.065000", "184152.555000", "184154.045000", "184155.535000", "184157.025000", "184158.515000", "184200.005000", "184201.495000", "184202.985000", "184204.475000", "184205.965000", "184207.455000", "184208.945000", "184210.435000", "184211.925000", "184213.415000", "184214.905000", "184216.395000", "184217.885000", "184219.375000", "184220.865000", "184222.355000", "184223.845000", "184225.335000", "184226.825000", "184228.315000", "184229.805000", "184231.295000", "184232.785000", "184234.275000", "184235.765000", "184237.255000", "184238.745000", "184240.235000", "184241.725000", "184243.215000", "184244.705000", "184246.195000", "184247.685000", "184249.175000", "184250.665000", "184252.155000", "184253.645000", "184255.135000", "184256.625000", "184258.115000", "184259.605000", "184301.095000", "184302.585000", "184304.075000", "184305.565000", "184307.055000", "184308.545000", "184310.035000", "184311.525000", "184313.015000", "184314.505000", "184315.995000", "184317.485000", "184318.975000", "184320.465000", "184321.955000", "184323.445000", "184324.935000", "184326.425000", "184327.915000", "184329.405000", "184330.895000", "184332.385000", "184333.875000", "184335.365000", "184336.855000", "184338.345000", "184339.835000", "184341.325000", "184342.815000", "184344.305000", "184345.795000", "184347.285000", "184348.775000", "184350.265000", "184351.755000", "184353.245000", "184354.735000", "184356.225000", "184357.715000", "184359.205000", "184400.695000", "184402.185000", "184403.675000", "184405.165000", "184406.655000", "184408.145000", "184409.635000", "184411.125000", "184412.615000", "184414.105000", "184415.595000", "184417.085000", "184418.575000", "184420.065000", "184421.555000", "184423.045000", "184424.535000", "184426.025000", "184427.515000", "184429.005000", "184430.495000", "184431.985000", "184433.475000", "184434.965000", "184436.455000", "184437.945000", "184439.435000", "184440.925000", "184442.415000", "184443.905000", "184445.395000", "184446.885000", "184448.375000", "184449.865000", "184451.355000", "184452.845000", "184454.335000", "184455.825000", "184457.315000", "184458.805000", "184500.295000", "184501.785000", "184503.275000", "184504.765000", "184506.255000", "184507.745000", "184509.235000", "184510.725000", "184512.215000", "184513.705000", "184515.195000", "184516.685000", "184518.175000", "184519.665000", "184521.155000", "184522.645000", "184524.135000", "184525.625000", "184527.115000", "184528.605000", "184530.095000", "184531.585000", "184533.075000", "184534.565000", "184536.055000", "184537.545000", "184539.035000", "184540.525000", "184542.015000", "184543.505000", "184544.995000", "184546.485000", "184547.975000", "184549.465000", "184550.955000", "184552.445000", "184553.935000", "184555.425000", "184556.915000", "184558.405000", "184559.895000", "184601.385000", "184602.875000", "184604.365000", "184605.855000", "184607.345000", "184608.835000", "184610.325000", "184611.815000", "184613.305000", "184614.795000", "184616.285000", "184617.775000", "184619.265000", "184620.755000", "184622.245000", "184623.735000", "184625.225000", "184626.715000", "184628.205000", "184629.695000", "184631.185000", "184632.675000", "184634.165000", "184635.655000", "184637.145000", "184638.635000", "184640.125000", "184641.615000", "184643.105000", "184644.595000", "184646.085000", "184647.575000", "184649.065000", "184650.555000", "184652.045000", "184653.535000", "184655.025000", "184656.515000", "184658.005000", "184659.495000", "184700.985000", "184702.475000", "184703.965000", "184705.455000", "184706.945000", "184708.435000", "184709.925000", "184711.415000", "184712.905000", "184714.395000", "184715.885000", "184717.375000", "184718.865000", "184720.355000", "184721.845000", "184723.335000", "184724.825000", "184726.315000", "184727.805000", "184729.295000", "184730.785000", "184732.275000", "184733.765000", "184735.255000", "184736.745000", "184738.235000", "184739.725000", "184741.215000", "184742.705000", "184744.195000", "184745.685000", "184747.175000", "184748.665000", "184750.155000", "184751.645000", "184753.135000", "184754.625000", "184756.115000", "184757.605000", "184759.095000", "184800.585000", "184802.075000", "184803.565000", "184805.055000", "184806.545000", "184808.035000", "184809.525000", "184811.015000", "184812.505000", "184813.995000", "184815.485000", "184816.975000", "184818.465000", "184819.955000", "184821.445000", "184822.935000", "184824.425000", "184825.915000", "184827.405000", "184828.895000", "184830.385000", "184831.875000", "184833.365000", "184834.855000", "184836.345000", "184837.835000", "184839.325000", "184840.815000", "184842.305000", "184843.795000", "184845.285000", "184846.775000", "184848.265000", "184849.755000", "184851.245000", "184852.735000", "184854.225000", "184855.715000", "184857.205000", "184858.695000", "184900.185000", "184901.675000", "184903.165000", "184904.655000", "184906.145000", "184907.635000", "184909.125000", "184910.615000", "184912.105000", "184913.595000", "184915.085000", "184916.575000", "184918.065000", "184919.555000", "184921.045000", "184922.535000", "184924.025000", "184925.515000", "184927.005000", "184928.495000", "184929.985000", "184931.475000", "184932.965000", "184934.455000", "184935.945000", "184937.435000", "184938.925000", "184940.415000", "184941.905000", "184943.395000", "184944.885000", "184946.375000", "184947.865000", "184949.355000", "184950.845000", "184952.335000", "184953.825000", "184955.315000", "184956.805000", "184958.295000", "184959.785000", "185001.275000", "185002.765000", "185004.255000", "185005.745000", "185007.235000", "185008.725000", "185010.215000", "185011.705000", "185013.195000", "185014.685000", "185016.175000", "185017.665000", "185019.155000", "185020.645000", "185022.135000", "185023.625000", "185025.115000", "185026.605000", "185028.095000", "185029.585000", "185031.075000", "185032.565000", "185034.055000", "185035.545000", "185037.035000", "185038.525000", "185040.015000", "185041.505000", "185042.995000", "185044.485000", "185045.975000", "185047.465000", "185048.955000", "185050.445000", "185051.935000", "185053.425000", "185054.915000", "185056.405000", "185057.895000", "185059.385000", "185100.875000", "185102.365000", "185103.855000", "185105.345000", "185106.835000", "185108.325000", "185109.815000", "185111.305000", "185112.795000", "185114.285000", "185115.775000", "185117.265000", "185118.755000", "185120.245000", "185121.735000", "185123.225000", "185124.715000", "185126.205000", "185127.695000", "185129.185000", "185130.675000", "185132.165000", "185133.655000", "185135.145000", "185136.635000", "185138.125000", "185139.615000", "185141.105000", "185142.595000", "185144.085000", "185145.575000", "185147.065000", "185148.555000", "185150.045000", "185151.535000", "185153.025000", "185154.515000", "185156.005000", "185157.495000", "185158.985000", "185200.475000", "185201.965000", "185203.455000", "185204.945000", "185206.435000", "185207.925000", "185209.415000", "185210.905000", "185212.395000", "185213.885000", "185215.375000", "185216.865000", "185218.355000", "185219.845000", "185221.335000", "185222.825000", "185224.315000", "185225.805000", "185227.295000", "185228.785000", "185230.275000", "185231.765000", "185233.255000", "185234.745000", "185236.235000", "185237.725000", "185239.215000", "185240.705000", "185242.195000", "185243.685000", "185245.175000", "185246.665000", "185248.155000", "185249.645000", "185251.135000", "185252.625000", "185254.115000", "185255.605000", "185257.095000", "185258.585000", "185300.075000", "185301.565000", "185303.055000", "185304.545000", "185306.035000", "185307.525000", "185309.015000", "185310.505000", "185311.995000", "185313.485000", "185314.975000"],
      "ContentTime": ["184159.925000", "184159.929000", "184159.933000", "184159.936000", "184159.939000", "184159.943000", "184159.946000", "184159.950000", "184159.953000", "184159.956000", "184159.960000", "184159.963000", "184159.966000", "184159.976000", "184159.985000", "184159.988000", "184159.992000", "184159.995000", "184159.998000", "184200.003000", "184219.886000", "184219.890000", "184219.893000", "184219.897000", "184219.900000", "184219.903000", "184219.907000", "184219.910000", "184219.913000", "184219.917000", "184219.920000", "184219.923000", "184219.927000", "184219.930000", "184219.933000", "184219.937000", "184219.940000", "184219.943000", "184219.947000", "184219.950000", "184239.886000", "184239.890000", "184239.893000", "184239.896000", "184239.900000", "184239.903000", "184239.907000", "184239.910000", "184239.913000", "184239.917000", "184239.920000", "184239.923000", "184239.927000", "184239.930000", "184239.933000", "184239.937000", "184239.940000", "184239.943000", "184239.947000", "184239.956000", "184259.887000", "184259.891000", "184259.894000", "184259.898000", "184259.901000", "184259.904000", "184259.908000", "184259.911000", "184259.914000", "184259.918000", "184259.921000", "184259.925000", "184259.928000", "184259.931000", "184259.934000", "184259.938000", "184259.941000", "184259.944000", "184259.948000", "184259.951000", "184339.887000", "184339.891000", "184339.894000", "184339.898000", "184339.901000", "184339.905000", "184339.908000", "184339.911000", "184339.915000", "184339.918000", "184339.921000", "184339.925000", "184339.928000", "184339.931000", "184339.935000", "184339.938000", "184339.941000", "184339.945000", "184339.948000", "184339.952000", "184339.955000", "184339.958000", "184339.962000", "184339.965000", "184339.968000", "184339.972000", "184339.975000", "184339.979000", "184339.982000", "184339.985000", "184339.989000", "184339.992000", "184419.886000", "184419.890000", "184419.893000", "184419.897000", "184419.900000", "184419.903000", "184419.907000", "184419.910000", "184419.914000", "184419.917000", "184419.920000", "184419.924000", "184419.927000", "184419.930000", "184419.934000", "184419.937000", "184419.940000", "184419.944000", "184419.947000", "184419.951000", "184419.954000", "184419.957000", "184419.961000", "184419.964000", "184419.967000", "184419.971000", "184419.974000", "184459.887000", "184459.891000", "184459.894000", "184459.898000", "184459.901000", "184459.904000", "184459.908000", "184459.911000", "184459.914000", "184459.918000", "184459.921000", "184459.924000", "184459.928000", "184459.931000", "184459.934000", "184459.938000", "184459.941000", "184459.945000", "184459.948000", "184459.951000", "184459.955000", "184459.958000", "184459.961000", "184459.965000", "184459.968000", "184459.971000", "184459.975000", "184539.888000", "184539.891000", "184539.895000", "184539.898000", "184539.901000", "184539.905000", "184539.908000", "184539.912000", "184539.915000", "184539.918000", "184539.922000", "184539.925000", "184539.928000", "184539.932000", "184539.935000", "184539.938000", "184539.942000", "184539.945000", "184539.949000", "184539.952000", "184539.955000", "184539.959000", "184539.962000", "184539.966000", "184539.969000", "184539.972000", "184539.976000", "184619.887000", "184619.892000", "184619.895000", "184619.899000", "184619.902000", "184619.905000", "184619.909000", "184619.912000", "184619.916000", "184619.919000", "184619.922000", "184619.926000", "184619.929000", "184619.932000", "184619.936000", "184619.939000", "184619.942000", "184619.946000", "184619.949000", "184619.953000", "184619.956000", "184619.959000", "184619.963000", "184619.978000", "184619.981000", "184619.984000", "184619.988000", "184659.886000", "184659.890000", "184659.893000", "184659.897000", "184659.900000", "184659.903000", "184659.907000", "184659.910000", "184659.914000", "184659.917000", "184659.920000", "184659.924000", "184659.927000", "184659.930000", "184659.934000", "184659.937000", "184659.941000", "184659.944000", "184659.947000", "184659.951000", "184659.954000", "184659.957000", "184659.961000", "184659.964000", "184659.968000", "184659.971000", "184659.974000", "184739.887000", "184739.891000", "184739.894000", "184739.898000", "184739.901000", "184739.905000", "184739.908000", "184739.912000", "184739.916000", "184739.919000", "184739.922000", "184739.925000", "184739.929000", "184739.932000", "184739.936000", "184739.939000", "184739.942000", "184739.946000", "184739.949000", "184739.952000", "184739.956000", "184739.959000", "184739.962000", "184739.966000", "184739.969000", "184739.973000", "184819.887000", "184819.891000", "184819.894000", "184819.898000", "184819.901000", "184819.904000", "184819.908000", "184819.911000", "184819.915000", "184819.918000", "184819.921000", "184819.925000", "184819.928000", "184819.931000", "184819.935000", "184819.938000", "184819.942000", "184819.945000", "184819.948000", "184819.952000", "184819.955000", "184819.959000", "184819.962000", "184819.965000", "184819.969000", "184819.972000", "184819.975000", "184859.886000", "184859.890000", "184859.894000", "184859.897000", "184859.900000", "184859.913000", "184859.916000", "184859.920000", "184859.923000", "184859.927000", "184859.930000", "184859.934000", "184859.937000", "184859.941000", "184859.944000", "184859.948000", "184859.951000", "184859.965000", "184859.968000", "184859.971000", "184859.975000", "184859.978000", "184859.982000", "184859.985000", "184859.988000", "184859.992000", "184859.995000", "184939.886000", "184939.890000", "184939.894000", "184939.897000", "184939.900000", "184939.904000", "184939.907000", "184939.916000", "184939.919000", "184939.922000", "184939.926000", "184939.929000", "184939.932000", "184939.936000", "184939.939000", "184939.943000", "184939.946000", "184939.949000", "184939.953000", "184939.956000", "184939.959000", "184939.963000", "184939.966000", "184939.970000", "184939.973000", "184939.976000", "184939.980000", "185019.887000", "185019.891000", "185019.894000", "185019.898000", "185019.901000", "185019.905000", "185019.908000", "185019.911000", "185019.915000", "185019.918000", "185019.922000", "185019.925000", "185019.928000", "185019.932000", "185019.935000", "185019.938000", "185019.942000", "185019.945000", "185019.949000", "185019.952000", "185019.955000", "185019.959000", "185019.962000", "185019.965000", "185019.969000", "185019.972000", "185019.975000", "185059.888000", "185059.891000", "185059.895000", "185059.898000", "185059.901000", "185059.905000", "185059.908000", "185059.911000", "185059.915000", "185059.918000", "185059.922000", "185059.925000", "185059.929000", "185059.932000", "185059.936000", "185059.939000", "185059.943000", "185059.954000", "185059.958000", "185059.961000", "185059.964000", "185059.968000", "185059.971000", "185059.974000", "185059.978000", "185059.981000", "185059.984000", "185139.886000", "185139.890000", "185139.893000", "185139.897000", "185139.900000", "185139.903000", "185139.907000", "185139.910000", "185139.914000", "185139.917000", "185139.921000", "185139.924000", "185139.928000", "185139.931000", "185139.935000", "185139.940000", "185139.943000", "185139.946000", "185139.950000", "185139.953000", "185139.957000", "185139.960000", "185139.963000", "185139.967000", "185139.970000", "185139.973000", "185219.887000", "185219.891000", "185219.894000", "185219.898000", "185219.901000", "185219.904000", "185219.908000", "185219.911000", "185219.915000", "185219.918000", "185219.921000", "185219.925000", "185219.928000", "185219.931000", "185219.935000", "185219.938000", "185219.942000", "185219.945000", "185219.948000", "185219.952000", "185219.962000", "185219.966000", "185219.969000", "185219.972000", "185219.976000", "185219.979000", "185219.982000", "185259.887000", "185259.891000", "185259.894000", "185259.898000", "185259.901000", "185259.904000", "185259.908000", "185259.911000", "185259.915000", "185259.918000", "185259.922000", "185259.925000", "185259.928000", "185259.932000", "185259.935000", "185259.938000", "185259.942000", "185259.945000", "185259.948000", "185259.952000", "185259.955000", "185259.958000", "185259.986000", "185259.989000", "185259.993000", "185259.996000", "185259.999000", "185317.691000", "185317.695000", "185317.698000", "185317.701000", "185317.705000", "185317.708000", "185317.711000", "185317.715000", "185317.718000", "185317.722000", "185317.725000", "185317.728000"],
