{
  "AcquisitionMatrixPE": 104,
  "AcquisitionNumber": 1,
  "AcquisitionTime": "14:59:51.117500",
  "BandwidthPerPixelPhaseEncode": 17.17,
  "BaseResolution": 104,
  "BodyPartExamined": "BRAIN",
  "CoilCombinationMethod": "Sum of Squares",
  "ConsistencyInfo": "N4_VE11C_LATEST_20160120",
  "ConversionSoftware": "dcm2niix",
  "ConversionSoftwareVersion": "v1.0.20220505",
  "DerivedVendorReportedEchoSpacing": 0.000560011,
  "DeviceSerialNumber": "167006",
  "DwellTime": 2.1e-06,
  "EchoTime": 0.037,
  "EchoTrainLength": 104,
  "EffectiveEchoSpacing": 0.000560011,
  "FlipAngle": 52,
  "HeudiconvVersion": "0.5.3.post811+g6206e14",
  "ImageComments": "Unaliased MB4/PE3/LB",
  "ImageOrientationPatientDICOM": [0.998982, 0.00790749, 0.0444108, 0.0156933, 0.862094, -0.506505],
  "ImageOrientationText": "Tra>Cor(-30.5)>Sag(2.4)",
  "ImageType": [
    "ORIGINAL",
    "PRIMARY",
    "M",
    "MB",
    "ND",
    "MOSAIC"
],
  "ImagingFrequency": 123.259,
  "InPlanePhaseEncodingDirectionDICOM": "COL",
  "InstitutionAddress": "Chemin Queen-Mary 4565,Montreal,District,CA,H3W 1W5",
  "InstitutionName": "IUGM",
  "InstitutionalDepartmentName": "Department",
  "MRAcquisitionType": "2D",
  "MagneticFieldStrength": 3,
  "Manufacturer": "Siemens",
  "ManufacturersModelName": "Prisma_fit",
  "MatrixCoilMode": "SENSE",
  "Modality": "MR",
  "MultibandAccelerationFactor": 4,
  "PartialFourier": 1,
  "PatientPosition": "HFS",
  "PercentPhaseFOV": 100,
  "PercentSampling": 100,
  "PhaseEncodingDirection": "j",
  "PhaseEncodingSteps": 104,
  "PhaseResolution": 1,
  "PixelBandwidth": 2290,
  "ProcedureStepDescription": "games^mariostars",
  "ProtocolName": "func_task-mariostars_run-02",
  "PulseSequenceDetails": "%CustomerSeq%\\cmrr_mbep2d_bold",
  "ReceiveCoilActiveElements": "HC1-7;NC1,2",
  "ReceiveCoilName": "HeadNeck_64",
  "ReconMatrixPE": 104,
  "RepetitionTime": 1.49,
  "SAR": 0.0538875,
  "ScanOptions": "FS",
  "ScanningSequence": "EP",
  "SequenceName": "epfid2d1_104",
  "SequenceVariant": "SK\\SS",
  "SeriesDescription": "func_task-mariostars_run-02",
  "SeriesNumber": 14,
  "ShimSetting": [622, -7197, -8862, 260, 7, -190, 1, 10],
  "SliceThickness": 2,
  "SliceTiming": [0, 0.785, 0.0975, 0.8825, 0.195, 0.98, 0.295, 1.0775, 0.3925, 1.175, 0.49, 1.275, 0.5875, 1.3725, 0.685, 0, 0.785, 0.0975, 0.8825, 0.195, 0.98, 0.295, 1.0775, 0.3925, 1.175, 0.49, 1.275, 0.5875, 1.3725, 0.685, 0, 0.785, 0.0975, 0.8825, 0.195, 0.98, 0.295, 1.0775, 0.3925, 1.175, 0.49, 1.275, 0.5875, 1.3725, 0.685, 0, 0.785, 0.0975, 0.8825, 0.195, 0.98, 0.295, 1.0775, 0.3925, 1.175, 0.49, 1.275, 0.5875, 1.3725, 0.685],
  "SoftwareVersions": "syngo MR E11",
  "SpacingBetweenSlices": 2,
  "StationName": "MRC35049",
  "TaskName": "mariostars",
  "TotalReadoutTime": 0.0576811,
  "TxRefAmp": 275.103,
  "WipMemBlock": "65094008-d7dd-4087-9db2-9b1b7dcf4f0f||Sequence: R017 ve11c/master r/75a17815+; Jun 28 2022 16:32:11 by eja",
  "dcmmeta_affine": [
    [-1.9979641437530518, 0.03138652443885803, 0.0845828726887703, 103.38533020019531],
    [-0.015814971178770065, 1.7241880893707275, -1.0133732557296753, -50.685752868652344],
    [0.08882152289152145, 1.0130105018615723, 1.7221847772598267, -89.4398422241211],
    [0.0, 0.0, 0.0, 1.0]
],
  "dcmmeta_reorient_transform": [
    [0.0, -1.0, 0.0, 103.0],
    [1.0, 0.0, 0.0, 0.0],
    [0.0, 0.0, 1.0, 0.0],
    [0.0, 0.0, 0.0, 1.0]
],
  "dcmmeta_shape": [104, 104, 60, 422],
  "dcmmeta_slice_dim": 2,
  "dcmmeta_version": 0.6,
  "global": {
    "const": {
      "AcquisitionMatrix": [104, 0, 0, 104],
      "AngioFlag": "N",
      "BitsAllocated": 16,
      "BitsStored": 16,
      "BodyPartExamined": "BRAIN",
      "Columns": 832,
      "EchoNumbers": 1,
      "EchoTime": 37.0,
      "EchoTrainLength": 104,
      "FlipAngle": 52.0,
      "HighBit": 15,
      "ImageOrientationPatient": [0.99898205993915, 0.00790748570637, 0.04441075983961, 0.01569326139172, 0.8620940517074, -0.5065052492893],
      "ImagePositionPatient": [-845.30177639823, -760.26673994369, 351.30503007809],
      "ImageType": [
        "ORIGINAL",
        "PRIMARY",
        "M",
        "MB",
        "ND",
        "MOSAIC"
],
      "ImagedNucleus": "1H",
      "ImagingFrequency": 123.258778,
      "InPlanePhaseEncodingDirection": "COL",
      "MRAcquisitionType": "2D",
      "MagneticFieldStrength": 3.0,
      "Manufacturer": "SIEMENS",
      "ManufacturerModelName": "Prisma_fit",
      "Modality": "MR",
      "NumberOfAverages": 1.0,
      "NumberOfPhaseEncodingSteps": 104,
      "PercentPhaseFieldOfView": 100.0,
      "PercentSampling": 100.0,
      "PerformedProcedureStepStartTime": "144320.273000",
      "PhotometricInterpretation": "MONOCHROME2",
      "PixelBandwidth": 2290.0,
      "PixelRepresentation": 0,
      "PixelSpacing": [2.0, 2.0],
      "ProtocolName": "func_task-mariostars_run-02",
      "RepetitionTime": 1490.0,
      "Rows": 832,
      "SAR": 0.05388754886018,
      "SamplesPerPixel": 1,
      "ScanOptions": "FS",
      "ScanningSequence": "EP",
      "SequenceName": "epfid2d1_104",
      "SequenceVariant": [
        "SK",
        "SS"
],
      "SeriesDescription": "func_task-mariostars_run-02",
      "SeriesNumber": 14,
      "SeriesTime": "150107.733000",
      "SliceLocation": -46.961859230794,
      "SliceThickness": 2.0,
      "SmallestImagePixelValue": 0,
      "SoftwareVersions": "syngo MR E11",
      "SpacingBetweenSlices": 2.0000000104839,
      "SpecificCharacterSet": "ISO_IR 100",
      "StudyID": "1",
      "StudyTime": "144320.198000",
      "TransmitCoilName": "Body",
      "VariableFlipAngleFlag": "N",
      "WindowCenterWidthExplanation": "Algo1",
      "dBdt": 0.0},
    "slices": {}
  },
  "time": {
    "samples": {
      "AcquisitionNumber": [1, 2, 3, 4, 5, 6, 7, 8, 9, 10, 11, 12, 13, 14, 15, 16, 17, 18, 19, 20, 21, 22, 23, 24, 25, 26, 27, 28, 29, 30, 31, 32, 33, 34, 35, 36, 37, 38, 39, 40, 41, 42, 43, 44, 45, 46, 47, 48, 49, 50, 51, 52, 53, 54, 55, 56, 57, 58, 59, 60, 61, 62, 63, 64, 65, 66, 67, 68, 69, 70, 71, 72, 73, 74, 75, 76, 77, 78, 79, 80, 81, 82, 83, 84, 85, 86, 87, 88, 89, 90, 91, 92, 93, 94, 95, 96, 97, 98, 99, 100, 101, 102, 103, 104, 105, 106, 107, 108, 109, 110, 111, 112, 113, 114, 115, 116, 117, 118, 119, 120, 121, 122, 123, 124, 125, 126, 127, 128, 129, 130, 131, 132, 133, 134, 135, 136, 137, 138, 139, 140, 141, 142, 143, 144, 145, 146, 147, 148, 149, 150, 151, 152, 153, 154, 155, 156, 157, 158, 159, 160, 161, 162, 163, 164, 165, 166, 167, 168, 169, 170, 171, 172, 173, 174, 175, 176, 177, 178, 179, 180, 181, 182, 183, 184, 185, 186, 187, 188, 189, 190, 191, 192, 193, 194, 195, 196, 197, 198, 199, 200, 201, 202, 203, 204, 205, 206, 207, 208, 209, 210, 211, 212, 213, 214, 215, 216, 217, 218, 219, 220, 221, 222, 223, 224, 225, 226, 227, 228, 229, 230, 231, 232, 233, 234, 235, 236, 237, 238, 239, 240, 241, 242, 243, 244, 245, 246, 247, 248, 249, 250, 251, 252, 253, 254, 255, 256, 257, 258, 259, 260, 261, 262, 263, 264, 265, 266, 267, 268, 269, 270, 271, 272, 273, 274, 275, 276, 277, 278, 279, 280, 281, 282, 283, 284, 285, 286, 287, 288, 289, 290, 291, 292, 293, 294, 295, 296, 297, 298, 299, 300, 301, 302, 303, 304, 305, 306, 307, 308, 309, 310, 311, 312, 313, 314, 315, 316, 317, 318, 319, 320, 321, 322, 323, 324, 325, 326, 327, 328, 329, 330, 331, 332, 333, 334, 335, 336, 337, 338, 339, 340, 341, 342, 343, 344, 345, 346, 347, 348, 349, 350, 351, 352, 353, 354, 355, 356, 357, 358, 359, 360, 361, 362, 363, 364, 365, 366, 367, 368, 369, 370, 371, 372, 373, 374, 375, 376, 377, 378, 379, 380, 381, 382, 383, 384, 385, 386, 387, 388, 389, 390, 391, 392, 393, 394, 395, 396, 397, 398, 399, 400, 401, 402, 403, 404, 405, 406, 407, 408, 409, 410, 411, 412, 413, 414, 415, 416, 417, 418, 419, 420, 421, 422],
      "AcquisitionTime": ["145951.117500", "145952.607500", "145954.097500", "145955.587500", "145957.077500", "145958.567500", "150000.057500", "150001.547500", "150003.037500", "150004.527500", "150006.017500", "150007.507500", "150008.997500", "150010.487500", "150011.977500", "150013.467500", "150014.957500", "150016.447500", "150017.937500", "150019.427500", "150020.917500", "150022.407500", "150023.897500", "150025.387500", "150026.877500", "150028.367500", "150029.857500", "150031.347500", "150032.837500", "150034.327500", "150035.817500", "150037.307500", "150038.797500", "150040.287500", "150041.777500", "150043.267500", "150044.757500", "150046.247500", "150047.737500", "150049.227500", "150050.717500", "150052.207500", "150053.697500", "150055.187500", "150056.677500", "150058.167500", "150059.657500", "150101.147500", "150102.637500", "150104.127500", "150105.617500", "150107.107500", "150108.597500", "150110.087500", "150111.577500", "150113.067500", "150114.557500", "150116.047500", "150117.537500", "150119.027500", "150120.517500", "150122.007500", "150123.497500", "150124.987500", "150126.477500", "150127.967500", "150129.457500", "150130.947500", "150132.437500", "150133.927500", "150135.417500", "150136.907500", "150138.397500", "150139.887500", "150141.377500", "150142.867500", "150144.357500", "150145.847500", "150147.337500", "150148.827500", "150150.317500", "150151.807500", "150153.297500", "150154.787500", "150156.277500", "150157.767500", "150159.257500", "150200.747500", "150202.237500", "150203.727500", "150205.217500", "150206.707500", "150208.197500", "150209.687500", "150211.177500", "150212.667500", "150214.157500", "150215.647500", "150217.137500", "150218.627500", "150220.117500", "150221.607500", "150223.097500", "150224.587500", "150226.077500", "150227.567500", "150229.057500", "150230.547500", "150232.037500", "150233.527500", "150235.017500", "150236.507500", "150237.997500", "150239.487500", "150240.977500", "150242.467500", "150243.957500", "150245.447500", "150246.937500", "150248.427500", "150249.917500", "150251.407500", "150252.897500", "150254.387500", "150255.877500", "150257.367500", "150258.857500", "150300.347500", "150301.837500", "150303.327500", "150304.817500", "150306.307500", "150307.797500", "150309.287500", "150310.777500", "150312.267500", "150313.757500", "150315.247500", "150316.737500", "150318.227500", "150319.717500", "150321.207500", "150322.697500", "150324.187500", "150325.677500", "150327.167500", "150328.657500", "150330.147500", "150331.637500", "150333.127500", "150334.617500", "150336.107500", "150337.597500", "150339.087500", "150340.577500", "150342.067500", "150343.557500", "150345.047500", "150346.537500", "150348.027500", "150349.517500", "150351.007500", "150352.497500", "150353.987500", "150355.477500", "150356.967500", "150358.457500", "150359.947500", "150401.437500", "150402.927500", "150404.417500", "150405.907500", "150407.397500", "150408.887500", "150410.377500", "150411.867500", "150413.357500", "150414.847500", "150416.337500", "150417.827500", "150419.317500", "150420.807500", "150422.297500", "150423.787500", "150425.277500", "150426.767500", "150428.257500", "150429.747500", "150431.237500", "150432.727500", "150434.217500", "150435.707500", "150437.197500", "150438.687500", "150440.177500", "150441.667500", "150443.157500", "150444.647500", "150446.137500", "150447.627500", "150449.117500", "150450.607500", "150452.097500", "150453.587500", "150455.077500", "150456.567500", "150458.057500", "150459.547500", "150501.037500", "150502.527500", "150504.017500", "150505.507500", "150506.997500", "150508.487500", "150509.977500", "150511.467500", "150512.957500", "150514.447500", "150515.937500", "150517.427500", "150518.917500", "150520.407500", "150521.897500", "150523.387500", "150524.877500", "150526.367500", "150527.857500", "150529.347500", "150530.837500", "150532.327500", "150533.817500", "150535.307500", "150536.797500", "150538.287500", "150539.777500", "150541.267500", "150542.757500", "150544.247500", "150545.737500", "150547.227500", "150548.717500", "150550.207500", "150551.697500", "150553.187500", "150554.677500", "150556.167500", "150557.657500", "150559.147500", "150600.637500", "150602.127500", "150603.617500", "150605.107500", "150606.597500", "150608.087500", "150609.577500", "150611.067500", "150612.557500", "150614.047500", "150615.537500", "150617.027500", "150618.517500", "150620.007500", "150621.497500", "150622.987500", "150624.477500", "150625.967500", "150627.457500", "150628.947500", "150630.437500", "150631.927500", "150633.417500", "150634.907500", "150636.397500", "150637.887500", "150639.377500", "150640.867500", "150642.357500", "150643.847500", "150645.337500", "150646.827500", "150648.317500", "150649.807500", "150651.297500", "150652.787500", "150654.277500", "150655.767500", "150657.257500", "150658.747500", "150700.237500", "150701.727500", "150703.217500", "150704.707500", "150706.197500", "150707.687500", "150709.177500", "150710.667500", "150712.157500", "150713.647500", "150715.137500", "150716.627500", "150718.117500", "150719.607500", "150721.097500", "150722.587500", "150724.077500", "150725.567500", "150727.057500", "150728.547500", "150730.037500", "150731.527500", "150733.017500", "150734.507500", "150735.997500", "150737.487500", "150738.977500", "150740.467500", "150741.957500", "150743.447500", "150744.937500", "150746.427500", "150747.917500", "150749.407500", "150750.897500", "150752.387500", "150753.877500", "150755.367500", "150756.857500", "150758.347500", "150759.837500", "150801.327500", "150802.817500", "150804.307500", "150805.797500", "150807.287500", "150808.777500", "150810.267500", "150811.757500", "150813.247500", "150814.737500", "150816.227500", "150817.717500", "150819.207500", "150820.697500", "150822.187500", "150823.677500", "150825.167500", "150826.657500", "150828.147500", "150829.637500", "150831.127500", "150832.617500", "150834.107500", "150835.597500", "150837.087500", "150838.577500", "150840.067500", "150841.557500", "150843.047500", "150844.537500", "150846.027500", "150847.517500", "150849.007500", "150850.497500", "150851.987500", "150853.477500", "150854.967500", "150856.457500", "150857.947500", "150859.437500", "150900.927500", "150902.417500", "150903.907500", "150905.397500", "150906.887500", "150908.377500", "150909.867500", "150911.357500", "150912.847500", "150914.337500", "150915.827500", "150917.317500", "150918.807500", "150920.297500", "150921.787500", "150923.277500", "150924.767500", "150926.257500", "150927.747500", "150929.237500", "150930.727500", "150932.217500", "150933.707500", "150935.197500", "150936.687500", "150938.177500", "150939.667500", "150941.157500", "150942.647500", "150944.137500", "150945.627500", "150947.117500", "150948.607500", "150950.097500", "150951.587500", "150953.077500", "150954.567500", "150956.057500", "150957.547500", "150959.037500", "151000.527500", "151002.017500", "151003.507500", "151004.997500", "151006.487500", "151007.977500", "151009.467500", "151010.957500", "151012.447500", "151013.937500", "151015.427500", "151016.917500", "151018.407500"],
      "ContentTime": ["150107.736000", "150107.739000", "150107.743000", "150107.746000", "150107.749000", "150107.753000", "150107.756000", "150107.759000", "150107.763000", "150107.766000", "150107.769000", "150107.772000", "150107.776000", "150107.779000", "150107.782000", "150107.786000", "150107.789000", "150107.792000", "150107.811000", "150107.815000", "150107.818000", "150107.821000", "150107.825000", "150107.828000", "150107.831000", "150107.834000", "150107.838000", "150107.841000", "150127.700000", "150127.704000", "150127.707000", "150127.724000", "150127.727000", "150127.730000", "150127.734000", "150127.737000", "150127.740000", "150127.744000", "150127.747000", "150127.750000", "150127.754000", "150127.757000", "150127.760000", "150127.763000", "150127.767000", "150127.770000", "150127.773000", "150127.777000", "150147.700000", "150147.704000", "150147.707000", "150147.711000", "150147.714000", "150147.717000", "150147.721000", "150147.724000", "150147.727000", "150147.731000", "150147.734000", "150147.737000", "150147.741000", "150147.744000", "150147.747000", "150147.750000", "150147.754000", "150147.757000", "150147.760000", "150147.764000", "150207.700000", "150207.704000", "150207.707000", "150207.711000", "150207.714000", "150207.717000", "150207.720000", "150207.724000", "150207.727000", "150207.730000", "150207.734000", "150207.738000", "150207.741000", "150207.744000", "150207.748000", "150207.751000", "150207.754000", "150207.758000", "150207.761000", "150207.764000", "150207.767000", "150247.699000", "150247.703000", "150247.706000", "150247.710000", "150247.713000", "150247.716000", "150247.726000", "150247.729000", "150247.732000", "150247.736000", "150247.739000", "150247.742000", "150247.746000", "150247.749000", "150247.752000", "150247.756000", "150247.759000", "150247.762000", "150247.766000", "150247.769000", "150247.772000", "150247.775000", "150247.779000", "150247.782000", "150247.786000", "150247.789000", "150247.792000", "150247.795000", "150307.699000", "150307.703000", "150307.706000", "150307.710000", "150307.713000", "150307.716000", "150307.720000", "150307.723000", "150307.726000", "150307.730000", "150307.733000", "150307.736000", "150307.739000", "150307.757000", "150347.700000", "150347.704000", "150347.707000", "150347.711000", "150347.714000", "150347.718000", "150347.721000", "150347.724000", "150347.727000", "150347.731000", "150347.734000", "150347.737000", "150347.741000", "150347.744000", "150347.747000", "150347.751000", "150347.754000", "150347.757000", "150347.761000", "150347.764000", "150347.767000", "150347.771000", "150347.774000", "150347.777000", "150347.781000", "150347.784000", "150347.787000", "150427.700000", "150427.704000", "150427.707000", "150427.711000", "150427.714000", "150427.717000", "150427.720000", "150427.724000", "150427.727000", "150427.730000", "150427.734000", "150427.738000", "150427.742000", "150427.745000", "150427.748000", "150427.752000", "150427.755000", "150427.758000", "150427.762000", "150427.765000", "150427.769000", "150427.772000", "150427.775000", "150427.779000", "150427.782000", "150427.785000", "150507.699000", "150507.703000", "150507.706000", "150507.709000", "150507.713000", "150507.716000", "150507.719000", "150507.723000", "150507.726000", "150507.730000", "150507.733000", "150507.736000", "150507.740000", "150507.743000", "150507.746000", "150507.750000", "150507.753000", "150507.756000", "150507.760000", "150507.763000", "150507.766000", "150507.770000", "150507.773000", "150507.776000", "150507.780000", "150507.783000", "150507.786000", "150547.700000", "150547.704000", "150547.707000", "150547.711000", "150547.714000", "150547.717000", "150547.721000", "150547.724000", "150547.727000", "150547.731000", "150547.734000", "150547.737000", "150547.741000", "150547.744000", "150547.747000", "150547.751000", "150547.754000", "150547.757000", "150547.773000", "150547.777000", "150547.780000", "150547.783000", "150547.786000", "150547.790000", "150547.793000", "150547.797000", "150547.800000", "150627.700000", "150627.704000", "150627.707000", "150627.711000", "150627.714000", "150627.718000", "150627.721000", "150627.724000", "150627.728000", "150627.731000", "150627.734000", "150627.738000", "150627.741000", "150627.744000", "150627.747000", "150627.751000", "150627.754000", "150627.758000", "150627.761000", "150627.764000", "150627.768000", "150627.771000", "150627.774000", "150627.778000", "150627.781000", "150627.784000", "150627.788000", "150707.700000", "150707.704000", "150707.707000", "150707.711000", "150707.714000", "150707.717000", "150707.721000", "150707.724000", "150707.727000", "150707.731000", "150707.734000", "150707.737000", "150707.741000", "150707.744000", "150707.747000", "150707.751000", "150707.754000", "150707.757000", "150707.761000", "150707.764000", "150707.767000", "150707.771000", "150707.774000", "150707.778000", "150707.781000", "150707.784000", "150707.788000", "150747.699000", "150747.703000", "150747.706000", "150747.710000", "150747.713000", "150747.716000", "150747.720000", "150747.723000", "150747.727000", "150747.730000", "150747.733000", "150747.737000", "150747.740000", "150747.743000", "150747.747000", "150747.750000", "150747.753000", "150747.757000", "150747.760000", "150747.763000", "150747.767000", "150747.770000", "150747.774000", "150747.777000", "150747.780000", "150747.784000", "150747.787000", "150827.700000", "150827.704000", "150827.708000", "150827.711000", "150827.714000", "150827.718000", "150827.721000", "150827.724000", "150827.728000", "150827.731000", "150827.734000", "150827.738000", "150827.741000", "150827.746000", "150827.750000", "150827.754000", "150827.758000", "150827.762000", "150827.770000", "150827.774000", "150827.777000", "150827.781000", "150827.785000", "150827.788000", "150827.791000", "150827.795000", "150907.700000", "150907.704000", "150907.707000", "150907.711000", "150907.714000", "150907.717000", "150907.721000", "150907.724000", "150907.728000", "150907.731000", "150907.734000", "150907.738000", "150907.741000", "150907.744000", "150907.748000", "150907.751000", "150907.754000", "150907.758000", "150907.761000", "150907.764000", "150907.768000", "150907.771000", "150907.774000", "150907.778000", "150907.781000", "150907.784000", "150907.788000", "150947.699000", "150947.703000", "150947.706000", "150947.710000", "150947.713000", "150947.716000", "150947.720000", "150947.723000", "150947.726000", "150947.730000", "150947.733000", "150947.736000", "150947.740000", "150947.743000", "150947.746000", "150947.750000", "150947.753000", "150947.756000", "150947.760000", "150947.763000", "150947.766000", "150947.770000", "150947.773000", "150947.776000", "150947.780000", "150947.783000", "150947.786000", "151021.111000", "151021.115000", "151021.118000", "151021.122000", "151021.126000", "151021.129000", "151021.133000", "151021.136000", "151021.140000", "151021.143000", "151021.147000", "151021.172000", "151021.175000", "151021.179000", "151021.183000", "151021.186000", "151021.190000", "151021.193000", "151021.196000", "151021.200000", "151021.203000", "151021.207000", "151021.210000"],
      "InstanceCreationTime": ["150107.736000", "150107.739000", "150107.743000", "150107.746000", "150107.749000", "150107.753000", "150107.756000", "150107.759000", "150107.763000", "150107.766000", "150107.769000", "150107.772000", "150107.776000", "150107.779000", "150107.782000", "150107.786000", "150107.789000", "150107.792000", "150107.811000", "150107.815000", "150107.818000", "150107.821000", "150107.825000", "150107.828000", "150107.831000", "150107.834000", "150107.838000", "150107.841000", "150127.700000", "150127.704000", "150127.707000", "150127.724000", "150127.727000", "150127.730000", "150127.734000", "150127.737000", "150127.740000", "150127.744000", "150127.747000", "150127.750000", "150127.754000", "150127.757000", "150127.760000", "150127.763000", "150127.767000", "150127.770000", "150127.773000", "150127.777000", "150147.700000", "150147.704000", "150147.707000", "150147.711000", "150147.714000", "150147.717000", "150147.721000", "150147.724000", "150147.727000", "150147.731000", "150147.734000", "150147.737000", "150147.741000", "150147.744000", "150147.747000", "150147.750000", "150147.754000", "150147.757000", "150147.760000", "150147.764000", "150207.700000", "150207.704000", "150207.707000", "150207.711000", "150207.714000", "150207.717000", "150207.720000", "150207.724000", "150207.727000", "150207.730000", "150207.734000", "150207.738000", "150207.741000", "150207.744000", "150207.748000", "150207.751000", "150207.754000", "150207.758000", "150207.761000", "150207.764000", "150207.767000", "150247.699000", "150247.703000", "150247.706000", "150247.710000", "150247.713000", "150247.716000", "150247.726000", "150247.729000", "150247.732000", "150247.736000", "150247.739000", "150247.742000", "150247.746000", "150247.749000", "150247.752000", "150247.756000", "150247.759000", "150247.762000", "150247.766000", "150247.769000", "150247.772000", "150247.775000", "150247.779000", "150247.782000", "150247.786000", "150247.789000", "150247.792000", "150247.795000", "150307.699000", "150307.703000", "150307.706000", "150307.710000", "150307.713000", "150307.716000", "150307.720000", "150307.723000", "150307.726000", "150307.730000", "150307.733000", "150307.736000", "150307.739000", "150307.757000", "150347.700000", "150347.704000", "150347.707000", "150347.711000", "150347.714000", "150347.718000", "150347.721000", "150347.724000", "150347.727000", "150347.731000", "150347.734000", "150347.737000", "150347.741000", "150347.744000", "150347.747000", "150347.751000", "150347.754000", "150347.757000", "150347.761000", "150347.764000", "150347.767000", "150347.771000", "150347.774000", "150347.777000", "150347.781000", "150347.784000", "150347.787000", "150427.700000", "150427.704000", "150427.707000", "150427.711000", "150427.714000", "150427.717000", "150427.720000", "150427.724000", "150427.727000", "150427.730000", "150427.734000", "150427.738000", "150427.742000", "150427.745000", "150427.748000", "150427.752000", "150427.755000", "150427.758000", "150427.762000", "150427.765000", "150427.769000", "150427.772000", "150427.775000", "150427.779000", "150427.782000", "150427.785000", "150507.699000", "150507.703000", "150507.706000", "150507.709000", "150507.713000", "150507.716000", "150507.719000", "150507.723000", "150507.726000", "150507.730000", "150507.733000", "150507.736000", "150507.740000", "150507.743000", "150507.746000", "150507.750000", "150507.753000", "150507.756000", "150507.760000", "150507.763000", "150507.766000", "150507.770000", "150507.773000", "150507.776000", "150507.780000", "150507.783000", "150507.786000", "150547.700000", "150547.704000", "150547.707000", "150547.711000", "150547.714000", "150547.717000", "150547.721000", "150547.724000", "150547.727000", "150547.731000", "150547.734000", "150547.737000", "150547.741000", "150547.744000", "150547.747000", "150547.751000", "150547.754000", "150547.757000", "150547.773000", "150547.777000", "150547.780000", "150547.783000", "150547.786000", "150547.790000", "150547.793000", "150547.797000", "150547.800000", "150627.700000", "150627.704000", "150627.707000", "150627.711000", "150627.714000", "150627.718000", "150627.721000", "150627.724000", "150627.728000", "150627.731000", "150627.734000", "150627.738000", "150627.741000", "150627.744000", "150627.747000", "150627.751000", "150627.754000", "150627.758000", "150627.761000", "150627.764000", "150627.768000", "150627.771000", "150627.774000", "150627.778000", "150627.781000", "150627.784000", "150627.788000", "150707.700000", "150707.704000", "150707.707000", "150707.711000", "150707.714000", "150707.717000", "150707.721000", "150707.724000", "150707.727000", "150707.731000", "150707.734000", "150707.737000", "150707.741000", "150707.744000", "150707.747000", "150707.751000", "150707.754000", "150707.757000", "150707.761000", "150707.764000", "150707.767000", "150707.771000", "150707.774000", "150707.778000", "150707.781000", "150707.784000", "150707.788000", "150747.699000", "150747.703000", "150747.706000", "150747.710000", "150747.713000", "150747.716000", "150747.720000", "150747.723000", "150747.727000", "150747.730000", "150747.733000", "150747.737000", "150747.740000", "150747.743000", "150747.747000", "150747.750000", "150747.753000", "150747.757000", "150747.760000", "150747.763000", "150747.767000", "150747.770000", "150747.774000", "150747.777000", "150747.780000", "150747.784000", "150747.787000", "150827.700000", "150827.704000", "150827.708000", "150827.711000", "150827.714000", "150827.718000", "150827.721000", "150827.724000", "150827.728000", "150827.731000", "150827.734000", "150827.738000", "150827.741000", "150827.746000", "150827.750000", "150827.754000", "150827.758000", "150827.762000", "150827.770000", "150827.774000", "150827.777000", "150827.781000", "150827.785000", "150827.788000", "150827.791000", "150827.795000", "150907.700000", "150907.704000", "150907.707000", "150907.711000", "150907.714000", "150907.717000", "150907.721000", "150907.724000", "150907.728000", "150907.731000", "150907.734000", "150907.738000", "150907.741000", "150907.744000", "150907.748000", "150907.751000", "150907.754000", "150907.758000", "150907.761000", "150907.764000", "150907.768000", "150907.771000", "150907.774000", "150907.778000", "150907.781000", "150907.784000", "150907.788000", "150947.699000", "150947.703000", "150947.706000", "150947.710000", "150947.713000", "150947.716000", "150947.720000", "150947.723000", "150947.726000", "150947.730000", "150947.733000", "150947.736000", "150947.740000", "150947.743000", "150947.746000", "150947.750000", "150947.753000", "150947.756000", "150947.760000", "150947.763000", "150947.766000", "150947.770000", "150947.773000", "150947.776000", "150947.780000", "150947.783000", "150947.786000", "151021.111000", "151021.115000", "151021.118000", "151021.122000", "151021.126000", "151021.129000", "151021.133000", "151021.136000", "151021.140000", "151021.143000", "151021.147000", "151021.172000", "151021.175000", "151021.179000", "151021.183000", "151021.186000", "151021.190000", "151021.193000", "151021.196000", "151021.200000", "151021.203000", "151021.207000", "151021.210000"],
