{
  "AcquisitionMatrixPE": 104,
  "AcquisitionNumber": 1,
  "AcquisitionTime": "14:46:51.662500",
  "BandwidthPerPixelPhaseEncode": 17.17,
  "BaseResolution": 104,
  "BodyPartExamined": "BRAIN",
  "CoilCombinationMethod": "Sum of Squares",
  "ConsistencyInfo": "N4_VE11C_LATEST_20160120",
  "ConversionSoftware": "dcm2niix",
  "ConversionSoftwareVersion": "v1.0.20220505",
  "DerivedVendorReportedEchoSpacing": 0.000560011,
  "DeviceSerialNumber": "167006",
  "DwellTime": 2.1e-06,
  "EchoTime": 0.037,
  "EchoTime1": 0.037,
  "EchoTime2": 0.001,
  "EchoTrainLength": 104,
  "EffectiveEchoSpacing": 0.000560011,
  "FlipAngle": 52,
  "HeudiconvVersion": "0.5.3.post811+g6206e14",
  "ImageComments": "Unaliased MB4/PE3/LB",
  "ImageOrientationPatientDICOM": [0.998982, 0.00790749, 0.0444108, 0.0156933, 0.862094, -0.506505],
  "ImageOrientationText": "Tra>Cor(-30.5)>Sag(2.4)",
  "ImageType": [
    "ORIGINAL",
    "PRIMARY",
    "P",
    "MB",
    "ND",
    "MOSAIC",
    "PHASE"
],
  "ImagingFrequency": 123.259,
  "InPlanePhaseEncodingDirectionDICOM": "COL",
  "InstitutionAddress": "Chemin Queen-Mary 4565,Montreal,District,CA,H3W 1W5",
  "InstitutionName": "IUGM",
  "InstitutionalDepartmentName": "Department",
  "MRAcquisitionType": "2D",
  "MagneticFieldStrength": 3,
  "Manufacturer": "Siemens",
  "ManufacturersModelName": "Prisma_fit",
  "MatrixCoilMode": "SENSE",
  "Modality": "MR",
  "MultibandAccelerationFactor": 4,
  "PartialFourier": 1,
  "PatientPosition": "HFS",
  "PercentPhaseFOV": 100,
  "PercentSampling": 100,
  "PhaseEncodingDirection": "j",
  "PhaseEncodingSteps": 104,
  "PhaseResolution": 1,
  "PixelBandwidth": 2290,
  "ProcedureStepDescription": "games^mariostars",
  "ProtocolName": "func_task-mariostars_run-01",
  "PulseSequenceDetails": "%CustomerSeq%\\cmrr_mbep2d_bold",
  "ReceiveCoilActiveElements": "HC1-7;NC1,2",
  "ReceiveCoilName": "HeadNeck_64",
  "ReconMatrixPE": 104,
  "RepetitionTime": 1.49,
  "SAR": 0.0538875,
  "ScanOptions": "FS",
  "ScanningSequence": "EP",
  "SequenceName": "epfid2d1_104",
  "SequenceVariant": "SK\\SS",
  "SeriesDescription": "func_task-mariostars_run-01",
  "SeriesNumber": 12,
  "ShimSetting": [622, -7197, -8862, 260, 7, -190, 1, 10],
  "SliceThickness": 2,
  "SliceTiming": [0, 0.785, 0.1, 0.8825, 0.1975, 0.98, 0.295, 1.08, 0.3925, 1.1775, 0.49, 1.275, 0.59, 1.3725, 0.6875, 0, 0.785, 0.1, 0.8825, 0.1975, 0.98, 0.295, 1.08, 0.3925, 1.1775, 0.49, 1.275, 0.59, 1.3725, 0.6875, 0, 0.785, 0.1, 0.8825, 0.1975, 0.98, 0.295, 1.08, 0.3925, 1.1775, 0.49, 1.275, 0.59, 1.3725, 0.6875, 0, 0.785, 0.1, 0.8825, 0.1975, 0.98, 0.295, 1.08, 0.3925, 1.1775, 0.49, 1.275, 0.59, 1.3725, 0.6875],
  "SoftwareVersions": "syngo MR E11",
  "SpacingBetweenSlices": 2,
  "StationName": "MRC35049",
  "TaskName": "mariostars",
  "TotalReadoutTime": 0.0576811,
  "TxRefAmp": 275.103,
  "WipMemBlock": "38116c8a-db30-4ab2-a66b-68d585d11afa||Sequence: R017 ve11c/master r/75a17815+; Jun 28 2022 16:32:11 by eja",
  "dcmmeta_affine": [
    [-1.9979641437530518, 0.03138652443885803, 0.0845828726887703, 103.38533020019531],
    [-0.015814971178770065, 1.7241880893707275, -1.0133732557296753, -50.685752868652344],
    [0.08882152289152145, 1.0130105018615723, 1.7221847772598267, -89.4398422241211],
    [0.0, 0.0, 0.0, 1.0]
],
  "dcmmeta_reorient_transform": [
    [0.0, -1.0, 0.0, 103.0],
    [1.0, 0.0, 0.0, 0.0],
    [0.0, 0.0, 1.0, 0.0],
    [0.0, 0.0, 0.0, 1.0]
],
  "dcmmeta_shape": [104, 104, 60, 470],
  "dcmmeta_slice_dim": 2,
  "dcmmeta_version": 0.6,
  "global": {
    "const": {
      "AcquisitionMatrix": [104, 0, 0, 104],
      "AngioFlag": "N",
      "BitsAllocated": 16,
      "BitsStored": 16,
      "BodyPartExamined": "BRAIN",
      "Columns": 832,
      "EchoNumbers": 1,
      "EchoTime": 37.0,
      "EchoTrainLength": 104,
      "FlipAngle": 52.0,
      "HighBit": 15,
      "ImageOrientationPatient": [0.99898205993915, 0.00790748570637, 0.04441075983961, 0.01569326139172, 0.8620940517074, -0.5065052492893],
      "ImagePositionPatient": [-845.30177639823, -760.26673994369, 351.30503007809],
      "ImageType": [
        "ORIGINAL",
        "PRIMARY",
        "P",
        "MB",
        "ND",
        "MOSAIC"
],
      "ImagedNucleus": "1H",
      "ImagingFrequency": 123.258773,
      "InPlanePhaseEncodingDirection": "COL",
      "LargestImagePixelValue": 4095,
      "MRAcquisitionType": "2D",
      "MagneticFieldStrength": 3.0,
      "Manufacturer": "SIEMENS",
      "ManufacturerModelName": "Prisma_fit",
      "Modality": "MR",
      "NumberOfAverages": 1.0,
      "NumberOfPhaseEncodingSteps": 104,
      "PercentPhaseFieldOfView": 100.0,
      "PercentSampling": 100.0,
      "PerformedProcedureStepStartTime": "144320.273000",
      "PhotometricInterpretation": "MONOCHROME2",
      "PixelBandwidth": 2290.0,
      "PixelRepresentation": 0,
      "PixelSpacing": [2.0, 2.0],
      "ProtocolName": "func_task-mariostars_run-01",
      "RepetitionTime": 1490.0,
      "RescaleIntercept": -4096.0,
      "RescaleSlope": 2.0,
      "RescaleType": "US",
      "Rows": 832,
      "SAR": 0.05388754886018,
      "SamplesPerPixel": 1,
      "ScanOptions": "FS",
      "ScanningSequence": "EP",
      "SequenceName": "epfid2d1_104",
      "SequenceVariant": [
        "SK",
        "SS"
],
      "SeriesDescription": "func_task-mariostars_run-01",
      "SeriesNumber": 12,
      "SeriesTime": "144800.500000",
      "SliceLocation": -46.961859230794,
      "SliceThickness": 2.0,
      "SmallestImagePixelValue": 0,
      "SoftwareVersions": "syngo MR E11",
      "SpacingBetweenSlices": 2.0000000104839,
      "SpecificCharacterSet": "ISO_IR 100",
      "StudyID": "1",
      "StudyTime": "144320.198000",
      "TransmitCoilName": "Body",
      "VariableFlipAngleFlag": "N",
      "WindowCenterWidthExplanation": "Algo1",
      "dBdt": 0.0},
    "slices": {}
  },
  "time": {
    "samples": {
      "AcquisitionNumber": [1, 2, 3, 4, 5, 6, 7, 8, 9, 10, 11, 12, 13, 14, 15, 16, 17, 18, 19, 20, 21, 22, 23, 24, 25, 26, 27, 28, 29, 30, 31, 32, 33, 34, 35, 36, 37, 38, 39, 40, 41, 42, 43, 44, 45, 46, 47, 48, 49, 50, 51, 52, 53, 54, 55, 56, 57, 58, 59, 60, 61, 62, 63, 64, 65, 66, 67, 68, 69, 70, 71, 72, 73, 74, 75, 76, 77, 78, 79, 80, 81, 82, 83, 84, 85, 86, 87, 88, 89, 90, 91, 92, 93, 94, 95, 96, 97, 98, 99, 100, 101, 102, 103, 104, 105, 106, 107, 108, 109, 110, 111, 112, 113, 114, 115, 116, 117, 118, 119, 120, 121, 122, 123, 124, 125, 126, 127, 128, 129, 130, 131, 132, 133, 134, 135, 136, 137, 138, 139, 140, 141, 142, 143, 144, 145, 146, 147, 148, 149, 150, 151, 152, 153, 154, 155, 156, 157, 158, 159, 160, 161, 162, 163, 164, 165, 166, 167, 168, 169, 170, 171, 172, 173, 174, 175, 176, 177, 178, 179, 180, 181, 182, 183, 184, 185, 186, 187, 188, 189, 190, 191, 192, 193, 194, 195, 196, 197, 198, 199, 200, 201, 202, 203, 204, 205, 206, 207, 208, 209, 210, 211, 212, 213, 214, 215, 216, 217, 218, 219, 220, 221, 222, 223, 224, 225, 226, 227, 228, 229, 230, 231, 232, 233, 234, 235, 236, 237, 238, 239, 240, 241, 242, 243, 244, 245, 246, 247, 248, 249, 250, 251, 252, 253, 254, 255, 256, 257, 258, 259, 260, 261, 262, 263, 264, 265, 266, 267, 268, 269, 270, 271, 272, 273, 274, 275, 276, 277, 278, 279, 280, 281, 282, 283, 284, 285, 286, 287, 288, 289, 290, 291, 292, 293, 294, 295, 296, 297, 298, 299, 300, 301, 302, 303, 304, 305, 306, 307, 308, 309, 310, 311, 312, 313, 314, 315, 316, 317, 318, 319, 320, 321, 322, 323, 324, 325, 326, 327, 328, 329, 330, 331, 332, 333, 334, 335, 336, 337, 338, 339, 340, 341, 342, 343, 344, 345, 346, 347, 348, 349, 350, 351, 352, 353, 354, 355, 356, 357, 358, 359, 360, 361, 362, 363, 364, 365, 366, 367, 368, 369, 370, 371, 372, 373, 374, 375, 376, 377, 378, 379, 380, 381, 382, 383, 384, 385, 386, 387, 388, 389, 390, 391, 392, 393, 394, 395, 396, 397, 398, 399, 400, 401, 402, 403, 404, 405, 406, 407, 408, 409, 410, 411, 412, 413, 414, 415, 416, 417, 418, 419, 420, 421, 422, 423, 424, 425, 426, 427, 428, 429, 430, 431, 432, 433, 434, 435, 436, 437, 438, 439, 440, 441, 442, 443, 444, 445, 446, 447, 448, 449, 450, 451, 452, 453, 454, 455, 456, 457, 458, 459, 460, 461, 462, 463, 464, 465, 466, 467, 468, 469, 470],
      "AcquisitionTime": ["144651.662500", "144653.152500", "144654.642500", "144656.132500", "144657.622500", "144659.112500", "144700.602500", "144702.092500", "144703.582500", "144705.072500", "144706.562500", "144708.052500", "144709.542500", "144711.032500", "144712.522500", "144714.012500", "144715.502500", "144716.992500", "144718.482500", "144719.972500", "144721.462500", "144722.952500", "144724.442500", "144725.932500", "144727.422500", "144728.912500", "144730.402500", "144731.892500", "144733.382500", "144734.872500", "144736.362500", "144737.852500", "144739.342500", "144740.832500", "144742.322500", "144743.812500", "144745.302500", "144746.792500", "144748.282500", "144749.772500", "144751.262500", "144752.752500", "144754.242500", "144755.732500", "144757.222500", "144758.712500", "144800.202500", "144801.692500", "144803.182500", "144804.672500", "144806.162500", "144807.652500", "144809.142500", "144810.632500", "144812.122500", "144813.612500", "144815.102500", "144816.592500", "144818.082500", "144819.572500", "144821.062500", "144822.552500", "144824.042500", "144825.532500", "144827.022500", "144828.512500", "144830.002500", "144831.492500", "144832.982500", "144834.472500", "144835.962500", "144837.452500", "144838.942500", "144840.432500", "144841.922500", "144843.412500", "144844.902500", "144846.392500", "144847.882500", "144849.372500", "144850.862500", "144852.352500", "144853.842500", "144855.332500", "144856.822500", "144858.312500", "144859.802500", "144901.292500", "144902.782500", "144904.272500", "144905.762500", "144907.252500", "144908.742500", "144910.232500", "144911.722500", "144913.212500", "144914.702500", "144916.192500", "144917.682500", "144919.172500", "144920.662500", "144922.152500", "144923.642500", "144925.132500", "144926.622500", "144928.112500", "144929.602500", "144931.092500", "144932.582500", "144934.072500", "144935.562500", "144937.052500", "144938.542500", "144940.032500", "144941.522500", "144943.012500", "144944.502500", "144945.992500", "144947.482500", "144948.972500", "144950.462500", "144951.952500", "144953.442500", "144954.932500", "144956.422500", "144957.912500", "144959.402500", "145000.892500", "145002.382500", "145003.872500", "145005.362500", "145006.852500", "145008.342500", "145009.832500", "145011.322500", "145012.812500", "145014.302500", "145015.792500", "145017.282500", "145018.772500", "145020.262500", "145021.752500", "145023.242500", "145024.732500", "145026.222500", "145027.712500", "145029.202500", "145030.692500", "145032.182500", "145033.672500", "145035.162500", "145036.652500", "145038.142500", "145039.632500", "145041.122500", "145042.612500", "145044.102500", "145045.592500", "145047.082500", "145048.572500", "145050.062500", "145051.552500", "145053.042500", "145054.532500", "145056.022500", "145057.512500", "145059.002500", "145100.492500", "145101.982500", "145103.472500", "145104.962500", "145106.452500", "145107.942500", "145109.432500", "145110.922500", "145112.412500", "145113.902500", "145115.392500", "145116.882500", "145118.372500", "145119.862500", "145121.352500", "145122.842500", "145124.332500", "145125.822500", "145127.312500", "145128.802500", "145130.292500", "145131.782500", "145133.272500", "145134.762500", "145136.252500", "145137.742500", "145139.232500", "145140.722500", "145142.212500", "145143.702500", "145145.192500", "145146.682500", "145148.172500", "145149.662500", "145151.152500", "145152.642500", "145154.132500", "145155.622500", "145157.112500", "145158.602500", "145200.092500", "145201.582500", "145203.072500", "145204.562500", "145206.052500", "145207.542500", "145209.032500", "145210.522500", "145212.012500", "145213.502500", "145214.992500", "145216.482500", "145217.972500", "145219.462500", "145220.952500", "145222.442500", "145223.932500", "145225.422500", "145226.912500", "145228.402500", "145229.892500", "145231.382500", "145232.872500", "145234.362500", "145235.852500", "145237.342500", "145238.832500", "145240.322500", "145241.812500", "145243.302500", "145244.792500", "145246.282500", "145247.772500", "145249.262500", "145250.752500", "145252.242500", "145253.732500", "145255.222500", "145256.712500", "145258.202500", "145259.692500", "145301.182500", "145302.672500", "145304.162500", "145305.652500", "145307.142500", "145308.632500", "145310.122500", "145311.612500", "145313.102500", "145314.592500", "145316.082500", "145317.572500", "145319.062500", "145320.552500", "145322.042500", "145323.532500", "145325.022500", "145326.512500", "145328.002500", "145329.492500", "145330.982500", "145332.472500", "145333.962500", "145335.452500", "145336.942500", "145338.432500", "145339.922500", "145341.412500", "145342.902500", "145344.392500", "145345.882500", "145347.372500", "145348.862500", "145350.352500", "145351.842500", "145353.332500", "145354.822500", "145356.312500", "145357.802500", "145359.292500", "145400.782500", "145402.272500", "145403.762500", "145405.252500", "145406.742500", "145408.232500", "145409.722500", "145411.212500", "145412.702500", "145414.192500", "145415.682500", "145417.172500", "145418.662500", "145420.152500", "145421.642500", "145423.132500", "145424.622500", "145426.112500", "145427.602500", "145429.092500", "145430.582500", "145432.072500", "145433.562500", "145435.052500", "145436.542500", "145438.032500", "145439.522500", "145441.012500", "145442.502500", "145443.992500", "145445.482500", "145446.972500", "145448.462500", "145449.952500", "145451.442500", "145452.932500", "145454.422500", "145455.912500", "145457.402500", "145458.892500", "145500.382500", "145501.872500", "145503.362500", "145504.852500", "145506.342500", "145507.832500", "145509.322500", "145510.812500", "145512.302500", "145513.792500", "145515.282500", "145516.772500", "145518.262500", "145519.752500", "145521.242500", "145522.732500", "145524.222500", "145525.712500", "145527.202500", "145528.692500", "145530.182500", "145531.672500", "145533.162500", "145534.652500", "145536.142500", "145537.632500", "145539.122500", "145540.612500", "145542.102500", "145543.592500", "145545.082500", "145546.572500", "145548.062500", "145549.552500", "145551.042500", "145552.532500", "145554.022500", "145555.512500", "145557.002500", "145558.492500", "145559.982500", "145601.472500", "145602.962500", "145604.452500", "145605.942500", "145607.432500", "145608.922500", "145610.412500", "145611.902500", "145613.392500", "145614.882500", "145616.372500", "145617.862500", "145619.352500", "145620.842500", "145622.332500", "145623.822500", "145625.312500", "145626.802500", "145628.292500", "145629.782500", "145631.272500", "145632.762500", "145634.252500", "145635.742500", "145637.232500", "145638.722500", "145640.212500", "145641.702500", "145643.192500", "145644.682500", "145646.172500", "145647.662500", "145649.152500", "145650.642500", "145652.132500", "145653.622500", "145655.112500", "145656.602500", "145658.092500", "145659.582500", "145701.072500", "145702.562500", "145704.052500", "145705.542500", "145707.032500", "145708.522500", "145710.012500", "145711.502500", "145712.992500", "145714.482500", "145715.972500", "145717.462500", "145718.952500", "145720.442500", "145721.932500", "145723.422500", "145724.912500", "145726.402500", "145727.892500", "145729.382500", "145730.872500", "145732.362500", "145733.852500", "145735.342500", "145736.832500", "145738.322500", "145739.812500", "145741.302500", "145742.792500", "145744.282500", "145745.772500", "145747.262500", "145748.752500", "145750.242500", "145751.732500", "145753.222500", "145754.712500", "145756.202500", "145757.692500", "145759.182500", "145800.672500", "145802.162500", "145803.652500", "145805.142500", "145806.632500", "145808.122500", "145809.612500", "145811.102500", "145812.592500", "145814.082500", "145815.572500", "145817.062500", "145818.552500", "145820.042500", "145821.532500", "145823.022500", "145824.512500", "145826.002500", "145827.492500", "145828.982500", "145830.472500"],
      "ContentTime": ["144800.502000", "144800.505000", "144800.507000", "144800.510000", "144800.512000", "144800.515000", "144800.518000", "144800.521000", "144800.523000", "144800.526000", "144800.528000", "144800.531000", "144800.533000", "144800.536000", "144800.538000", "144800.541000", "144800.543000", "144800.546000", "144800.548000", "144800.551000", "144800.553000", "144820.476000", "144820.479000", "144820.481000", "144820.484000", "144820.486000", "144820.489000", "144820.491000", "144820.494000", "144820.496000", "144820.499000", "144820.501000", "144820.504000", "144820.506000", "144820.509000", "144820.511000", "144820.514000", "144820.516000", "144820.519000", "144820.521000", "144820.524000", "144840.464000", "144840.466000", "144840.469000", "144840.471000", "144840.474000", "144840.476000", "144840.479000", "144840.481000", "144840.484000", "144840.486000", "144840.489000", "144840.491000", "144840.494000", "144840.496000", "144840.499000", "144840.502000", "144840.504000", "144840.507000", "144840.509000", "144840.512000", "144900.445000", "144900.448000", "144900.451000", "144900.453000", "144900.456000", "144900.458000", "144900.461000", "144900.463000", "144900.466000", "144900.468000", "144900.471000", "144900.473000", "144900.476000", "144900.478000", "144900.481000", "144900.483000", "144900.486000", "144900.488000", "144900.491000", "144900.493000", "144940.967000", "144940.970000", "144940.972000", "144940.975000", "144940.978000", "144940.980000", "144940.983000", "144940.985000", "144940.988000", "144940.990000", "144940.993000", "144940.995000", "144940.998000", "144941.001000", "144941.004000", "144941.006000", "144941.009000", "144941.012000", "144941.014000", "144941.017000", "144941.019000", "144941.022000", "144941.024000", "144941.027000", "144941.029000", "144941.032000", "144941.034000", "144941.037000", "144941.039000", "144941.042000", "144941.045000", "145020.485000", "145020.488000", "145020.490000", "145020.493000", "145020.495000", "145020.498000", "145020.500000", "145020.503000", "145020.505000", "145020.508000", "145020.511000", "145020.513000", "145020.516000", "145020.518000", "145020.521000", "145020.523000", "145020.526000", "145020.528000", "145020.531000", "145020.533000", "145020.536000", "145020.539000", "145020.541000", "145020.544000", "145020.546000", "145020.549000", "145020.551000", "145100.503000", "145100.506000", "145100.509000", "145100.511000", "145100.514000", "145100.516000", "145100.519000", "145100.529000", "145100.531000", "145100.534000", "145100.536000", "145100.539000", "145100.541000", "145100.544000", "145100.546000", "145100.549000", "145100.551000", "145100.554000", "145100.556000", "145100.559000", "145100.562000", "145100.564000", "145100.567000", "145100.569000", "145100.572000", "145100.574000", "145100.577000", "145140.494000", "145140.497000", "145140.499000", "145140.502000", "145140.504000", "145140.507000", "145140.509000", "145140.512000", "145140.514000", "145140.517000", "145140.519000", "145140.522000", "145140.525000", "145140.527000", "145140.530000", "145140.532000", "145140.535000", "145140.537000", "145140.540000", "145140.542000", "145140.545000", "145140.547000", "145140.550000", "145140.552000", "145140.555000", "145140.558000", "145140.560000", "145220.502000", "145220.505000", "145220.507000", "145220.510000", "145220.512000", "145220.515000", "145220.517000", "145220.520000", "145220.522000", "145220.525000", "145220.527000", "145220.530000", "145220.533000", "145220.535000", "145220.538000", "145220.540000", "145220.543000", "145220.545000", "145220.548000", "145220.550000", "145220.553000", "145220.555000", "145220.558000", "145220.561000", "145220.563000", "145220.566000", "145220.568000", "145300.579000", "145300.582000", "145300.584000", "145300.587000", "145300.590000", "145300.592000", "145300.595000", "145300.597000", "145300.600000", "145300.602000", "145300.605000", "145300.607000", "145300.610000", "145300.612000", "145300.615000", "145300.618000", "145300.620000", "145300.623000", "145300.625000", "145300.628000", "145300.630000", "145300.633000", "145300.636000", "145300.638000", "145300.641000", "145300.643000", "145300.646000", "145340.495000", "145340.498000", "145340.500000", "145340.503000", "145340.505000", "145340.508000", "145340.510000", "145340.513000", "145340.516000", "145340.518000", "145340.521000", "145340.523000", "145340.526000", "145340.528000", "145340.531000", "145340.533000", "145340.536000", "145340.538000", "145340.541000", "145340.544000", "145340.546000", "145340.549000", "145340.551000", "145340.554000", "145340.556000", "145340.559000", "145420.480000", "145420.483000", "145420.486000", "145420.488000", "145420.491000", "145420.493000", "145420.496000", "145420.498000", "145420.501000", "145420.504000", "145420.506000", "145420.509000", "145420.511000", "145420.514000", "145420.516000", "145420.519000", "145420.521000", "145420.524000", "145420.527000", "145420.529000", "145420.532000", "145420.534000", "145420.537000", "145420.540000", "145420.542000", "145420.545000", "145420.547000", "145500.495000", "145500.498000", "145500.500000", "145500.503000", "145500.505000", "145500.508000", "145500.510000", "145500.513000", "145500.516000", "145500.518000", "145500.521000", "145500.523000", "145500.526000", "145500.532000", "145500.535000", "145500.537000", "145500.540000", "145500.542000", "145500.545000", "145500.547000", "145500.550000", "145500.553000", "145500.555000", "145500.558000", "145500.560000", "145500.563000", "145500.565000", "145540.496000", "145540.499000", "145540.502000", "145540.504000", "145540.507000", "145540.509000", "145540.512000", "145540.514000", "145540.517000", "145540.519000", "145540.522000", "145540.525000", "145540.527000", "145540.530000", "145540.532000", "145540.535000", "145540.537000", "145540.540000", "145540.543000", "145540.545000", "145540.548000", "145540.550000", "145540.553000", "145540.555000", "145540.558000", "145540.561000", "145540.563000", "145620.493000", "145620.496000", "145620.498000", "145620.501000", "145620.503000", "145620.506000", "145620.508000", "145620.511000", "145620.513000", "145620.516000", "145620.519000", "145620.521000", "145620.524000", "145620.526000", "145620.529000", "145620.531000", "145620.534000", "145620.536000", "145620.539000", "145620.542000", "145620.544000", "145620.547000", "145620.549000", "145620.552000", "145620.554000", "145620.557000", "145620.560000", "145700.489000", "145700.492000", "145700.495000", "145700.497000", "145700.500000", "145700.502000", "145700.505000", "145700.508000", "145700.510000", "145700.513000", "145700.515000", "145700.518000", "145700.520000", "145700.523000", "145700.525000", "145700.528000", "145700.530000", "145700.533000", "145700.535000", "145700.538000", "145700.540000", "145700.543000", "145700.546000", "145700.548000", "145700.551000", "145700.553000", "145700.556000", "145740.504000", "145740.507000", "145740.510000", "145740.512000", "145740.515000", "145740.517000", "145740.520000", "145740.522000", "145740.525000", "145740.528000", "145740.530000", "145740.533000", "145740.535000", "145740.538000", "145740.540000", "145740.543000", "145740.546000", "145740.548000", "145740.551000", "145740.553000", "145740.556000", "145740.558000", "145740.561000", "145740.564000", "145740.566000", "145740.569000", "145740.571000", "145820.490000", "145820.493000", "145820.496000", "145820.498000", "145820.501000", "145820.504000", "145820.506000", "145820.509000", "145820.511000", "145820.514000", "145820.516000", "145820.519000", "145820.521000", "145820.524000", "145820.536000", "145820.538000", "145820.541000", "145820.543000", "145820.546000", "145820.548000", "145820.551000", "145820.554000", "145820.556000", "145820.559000", "145820.562000", "145820.564000", "145833.297000", "145833.300000", "145833.303000", "145833.305000", "145833.308000", "145833.311000", "145833.313000", "145833.316000", "145833.319000"],
