{
  "AcquisitionMatrixPE": 104,
  "AcquisitionNumber": 1,
  "AcquisitionTime": "14:46:51.662500",
  "BandwidthPerPixelPhaseEncode": 17.17,
  "BaseResolution": 104,
  "BodyPartExamined": "BRAIN",
  "CoilCombinationMethod": "Sum of Squares",
  "ConsistencyInfo": "N4_VE11C_LATEST_20160120",
  "ConversionSoftware": "dcm2niix",
  "ConversionSoftwareVersion": "v1.0.20220505",
  "DerivedVendorReportedEchoSpacing": 0.000560011,
  "DeviceSerialNumber": "167006",
  "DwellTime": 2.1e-06,
  "EchoTime": 0.037,
  "EchoTrainLength": 104,
  "EffectiveEchoSpacing": 0.000560011,
  "FlipAngle": 52,
  "HeudiconvVersion": "0.5.3.post811+g6206e14",
  "ImageComments": "Unaliased MB4/PE3/LB",
  "ImageOrientationPatientDICOM": [0.998982, 0.00790749, 0.0444108, 0.0156933, 0.862094, -0.506505],
  "ImageOrientationText": "Tra>Cor(-30.5)>Sag(2.4)",
  "ImageType": [
    "ORIGINAL",
    "PRIMARY",
    "M",
    "MB",
    "ND",
    "MOSAIC"
],
  "ImagingFrequency": 123.259,
  "InPlanePhaseEncodingDirectionDICOM": "COL",
  "InstitutionAddress": "Chemin Queen-Mary 4565,Montreal,District,CA,H3W 1W5",
  "InstitutionName": "IUGM",
  "InstitutionalDepartmentName": "Department",
  "MRAcquisitionType": "2D",
  "MagneticFieldStrength": 3,
  "Manufacturer": "Siemens",
  "ManufacturersModelName": "Prisma_fit",
  "MatrixCoilMode": "SENSE",
  "Modality": "MR",
  "MultibandAccelerationFactor": 4,
  "PartialFourier": 1,
  "PatientPosition": "HFS",
  "PercentPhaseFOV": 100,
  "PercentSampling": 100,
  "PhaseEncodingDirection": "j",
  "PhaseEncodingSteps": 104,
  "PhaseResolution": 1,
  "PixelBandwidth": 2290,
  "ProcedureStepDescription": "games^mariostars",
  "ProtocolName": "func_task-mariostars_run-01",
  "PulseSequenceDetails": "%CustomerSeq%\\cmrr_mbep2d_bold",
  "ReceiveCoilActiveElements": "HC1-7;NC1,2",
  "ReceiveCoilName": "HeadNeck_64",
  "ReconMatrixPE": 104,
  "RepetitionTime": 1.49,
  "SAR": 0.0538875,
  "ScanOptions": "FS",
  "ScanningSequence": "EP",
  "SequenceName": "epfid2d1_104",
  "SequenceVariant": "SK\\SS",
  "SeriesDescription": "func_task-mariostars_run-01",
  "SeriesNumber": 11,
  "ShimSetting": [622, -7197, -8862, 260, 7, -190, 1, 10],
  "SliceThickness": 2,
  "SliceTiming": [0, 0.785, 0.1, 0.8825, 0.1975, 0.98, 0.295, 1.08, 0.3925, 1.1775, 0.49, 1.275, 0.59, 1.3725, 0.6875, 0, 0.785, 0.1, 0.8825, 0.1975, 0.98, 0.295, 1.08, 0.3925, 1.1775, 0.49, 1.275, 0.59, 1.3725, 0.6875, 0, 0.785, 0.1, 0.8825, 0.1975, 0.98, 0.295, 1.08, 0.3925, 1.1775, 0.49, 1.275, 0.59, 1.3725, 0.6875, 0, 0.785, 0.1, 0.8825, 0.1975, 0.98, 0.295, 1.08, 0.3925, 1.1775, 0.49, 1.275, 0.59, 1.3725, 0.6875],
  "SoftwareVersions": "syngo MR E11",
  "SpacingBetweenSlices": 2,
  "StationName": "MRC35049",
  "TaskName": "mariostars",
  "TotalReadoutTime": 0.0576811,
  "TxRefAmp": 275.103,
  "WipMemBlock": "38116c8a-db30-4ab2-a66b-68d585d11afa||Sequence: R017 ve11c/master r/75a17815+; Jun 28 2022 16:32:11 by eja",
  "dcmmeta_affine": [
    [-1.9979641437530518, 0.03138652443885803, 0.0845828726887703, 103.38533020019531],
    [-0.015814971178770065, 1.7241880893707275, -1.0133732557296753, -50.685752868652344],
    [0.08882152289152145, 1.0130105018615723, 1.7221847772598267, -89.4398422241211],
    [0.0, 0.0, 0.0, 1.0]
],
  "dcmmeta_reorient_transform": [
    [0.0, -1.0, 0.0, 103.0],
    [1.0, 0.0, 0.0, 0.0],
    [0.0, 0.0, 1.0, 0.0],
    [0.0, 0.0, 0.0, 1.0]
],
  "dcmmeta_shape": [104, 104, 60, 470],
  "dcmmeta_slice_dim": 2,
  "dcmmeta_version": 0.6,
  "global": {
    "const": {
      "AcquisitionMatrix": [104, 0, 0, 104],
      "AngioFlag": "N",
      "BitsAllocated": 16,
      "BitsStored": 16,
      "BodyPartExamined": "BRAIN",
      "Columns": 832,
      "EchoNumbers": 1,
      "EchoTime": 37.0,
      "EchoTrainLength": 104,
      "FlipAngle": 52.0,
      "HighBit": 15,
      "ImageOrientationPatient": [0.99898205993915, 0.00790748570637, 0.04441075983961, 0.01569326139172, 0.8620940517074, -0.5065052492893],
      "ImagePositionPatient": [-845.30177639823, -760.26673994369, 351.30503007809],
      "ImageType": [
        "ORIGINAL",
        "PRIMARY",
        "M",
        "MB",
        "ND",
        "MOSAIC"
],
      "ImagedNucleus": "1H",
      "ImagingFrequency": 123.258773,
      "InPlanePhaseEncodingDirection": "COL",
      "MRAcquisitionType": "2D",
      "MagneticFieldStrength": 3.0,
      "Manufacturer": "SIEMENS",
      "ManufacturerModelName": "Prisma_fit",
      "Modality": "MR",
      "NumberOfAverages": 1.0,
      "NumberOfPhaseEncodingSteps": 104,
      "PercentPhaseFieldOfView": 100.0,
      "PercentSampling": 100.0,
      "PerformedProcedureStepStartTime": "144320.273000",
      "PhotometricInterpretation": "MONOCHROME2",
      "PixelBandwidth": 2290.0,
      "PixelRepresentation": 0,
      "PixelSpacing": [2.0, 2.0],
      "ProtocolName": "func_task-mariostars_run-01",
      "RepetitionTime": 1490.0,
      "Rows": 832,
      "SAR": 0.05388754886018,
      "SamplesPerPixel": 1,
      "ScanOptions": "FS",
      "ScanningSequence": "EP",
      "SequenceName": "epfid2d1_104",
      "SequenceVariant": [
        "SK",
        "SS"
],
      "SeriesDescription": "func_task-mariostars_run-01",
      "SeriesNumber": 11,
      "SeriesTime": "144800.382000",
      "SliceLocation": -46.961859230794,
      "SliceThickness": 2.0,
      "SmallestImagePixelValue": 0,
      "SoftwareVersions": "syngo MR E11",
      "SpacingBetweenSlices": 2.0000000104839,
      "SpecificCharacterSet": "ISO_IR 100",
      "StudyID": "1",
      "StudyTime": "144320.198000",
      "TransmitCoilName": "Body",
      "VariableFlipAngleFlag": "N",
      "WindowCenterWidthExplanation": "Algo1",
      "dBdt": 0.0},
    "slices": {}
  },
  "time": {
    "samples": {
      "AcquisitionNumber": [1, 2, 3, 4, 5, 6, 7, 8, 9, 10, 11, 12, 13, 14, 15, 16, 17, 18, 19, 20, 21, 22, 23, 24, 25, 26, 27, 28, 29, 30, 31, 32, 33, 34, 35, 36, 37, 38, 39, 40, 41, 42, 43, 44, 45, 46, 47, 48, 49, 50, 51, 52, 53, 54, 55, 56, 57, 58, 59, 60, 61, 62, 63, 64, 65, 66, 67, 68, 69, 70, 71, 72, 73, 74, 75, 76, 77, 78, 79, 80, 81, 82, 83, 84, 85, 86, 87, 88, 89, 90, 91, 92, 93, 94, 95, 96, 97, 98, 99, 100, 101, 102, 103, 104, 105, 106, 107, 108, 109, 110, 111, 112, 113, 114, 115, 116, 117, 118, 119, 120, 121, 122, 123, 124, 125, 126, 127, 128, 129, 130, 131, 132, 133, 134, 135, 136, 137, 138, 139, 140, 141, 142, 143, 144, 145, 146, 147, 148, 149, 150, 151, 152, 153, 154, 155, 156, 157, 158, 159, 160, 161, 162, 163, 164, 165, 166, 167, 168, 169, 170, 171, 172, 173, 174, 175, 176, 177, 178, 179, 180, 181, 182, 183, 184, 185, 186, 187, 188, 189, 190, 191, 192, 193, 194, 195, 196, 197, 198, 199, 200, 201, 202, 203, 204, 205, 206, 207, 208, 209, 210, 211, 212, 213, 214, 215, 216, 217, 218, 219, 220, 221, 222, 223, 224, 225, 226, 227, 228, 229, 230, 231, 232, 233, 234, 235, 236, 237, 238, 239, 240, 241, 242, 243, 244, 245, 246, 247, 248, 249, 250, 251, 252, 253, 254, 255, 256, 257, 258, 259, 260, 261, 262, 263, 264, 265, 266, 267, 268, 269, 270, 271, 272, 273, 274, 275, 276, 277, 278, 279, 280, 281, 282, 283, 284, 285, 286, 287, 288, 289, 290, 291, 292, 293, 294, 295, 296, 297, 298, 299, 300, 301, 302, 303, 304, 305, 306, 307, 308, 309, 310, 311, 312, 313, 314, 315, 316, 317, 318, 319, 320, 321, 322, 323, 324, 325, 326, 327, 328, 329, 330, 331, 332, 333, 334, 335, 336, 337, 338, 339, 340, 341, 342, 343, 344, 345, 346, 347, 348, 349, 350, 351, 352, 353, 354, 355, 356, 357, 358, 359, 360, 361, 362, 363, 364, 365, 366, 367, 368, 369, 370, 371, 372, 373, 374, 375, 376, 377, 378, 379, 380, 381, 382, 383, 384, 385, 386, 387, 388, 389, 390, 391, 392, 393, 394, 395, 396, 397, 398, 399, 400, 401, 402, 403, 404, 405, 406, 407, 408, 409, 410, 411, 412, 413, 414, 415, 416, 417, 418, 419, 420, 421, 422, 423, 424, 425, 426, 427, 428, 429, 430, 431, 432, 433, 434, 435, 436, 437, 438, 439, 440, 441, 442, 443, 444, 445, 446, 447, 448, 449, 450, 451, 452, 453, 454, 455, 456, 457, 458, 459, 460, 461, 462, 463, 464, 465, 466, 467, 468, 469, 470],
      "AcquisitionTime": ["144651.662500", "144653.152500", "144654.642500", "144656.132500", "144657.622500", "144659.112500", "144700.602500", "144702.092500", "144703.582500", "144705.072500", "144706.562500", "144708.052500", "144709.542500", "144711.032500", "144712.522500", "144714.012500", "144715.502500", "144716.992500", "144718.482500", "144719.972500", "144721.462500", "144722.952500", "144724.442500", "144725.932500", "144727.422500", "144728.912500", "144730.402500", "144731.892500", "144733.382500", "144734.872500", "144736.362500", "144737.852500", "144739.342500", "144740.832500", "144742.322500", "144743.812500", "144745.302500", "144746.792500", "144748.282500", "144749.772500", "144751.262500", "144752.752500", "144754.242500", "144755.732500", "144757.222500", "144758.712500", "144800.202500", "144801.692500", "144803.182500", "144804.672500", "144806.162500", "144807.652500", "144809.142500", "144810.632500", "144812.122500", "144813.612500", "144815.102500", "144816.592500", "144818.082500", "144819.572500", "144821.062500", "144822.552500", "144824.042500", "144825.532500", "144827.022500", "144828.512500", "144830.002500", "144831.492500", "144832.982500", "144834.472500", "144835.962500", "144837.452500", "144838.942500", "144840.432500", "144841.922500", "144843.412500", "144844.902500", "144846.392500", "144847.882500", "144849.372500", "144850.862500", "144852.352500", "144853.842500", "144855.332500", "144856.822500", "144858.312500", "144859.802500", "144901.292500", "144902.782500", "144904.272500", "144905.762500", "144907.252500", "144908.742500", "144910.232500", "144911.722500", "144913.212500", "144914.702500", "144916.192500", "144917.682500", "144919.172500", "144920.662500", "144922.152500", "144923.642500", "144925.132500", "144926.622500", "144928.112500", "144929.602500", "144931.092500", "144932.582500", "144934.072500", "144935.562500", "144937.052500", "144938.542500", "144940.032500", "144941.522500", "144943.012500", "144944.502500", "144945.992500", "144947.482500", "144948.972500", "144950.462500", "144951.952500", "144953.442500", "144954.932500", "144956.422500", "144957.912500", "144959.402500", "145000.892500", "145002.382500", "145003.872500", "145005.362500", "145006.852500", "145008.342500", "145009.832500", "145011.322500", "145012.812500", "145014.302500", "145015.792500", "145017.282500", "145018.772500", "145020.262500", "145021.752500", "145023.242500", "145024.732500", "145026.222500", "145027.712500", "145029.202500", "145030.692500", "145032.182500", "145033.672500", "145035.162500", "145036.652500", "145038.142500", "145039.632500", "145041.122500", "145042.612500", "145044.102500", "145045.592500", "145047.082500", "145048.572500", "145050.062500", "145051.552500", "145053.042500", "145054.532500", "145056.022500", "145057.512500", "145059.002500", "145100.492500", "145101.982500", "145103.472500", "145104.962500", "145106.452500", "145107.942500", "145109.432500", "145110.922500", "145112.412500", "145113.902500", "145115.392500", "145116.882500", "145118.372500", "145119.862500", "145121.352500", "145122.842500", "145124.332500", "145125.822500", "145127.312500", "145128.802500", "145130.292500", "145131.782500", "145133.272500", "145134.762500", "145136.252500", "145137.742500", "145139.232500", "145140.722500", "145142.212500", "145143.702500", "145145.192500", "145146.682500", "145148.172500", "145149.662500", "145151.152500", "145152.642500", "145154.132500", "145155.622500", "145157.112500", "145158.602500", "145200.092500", "145201.582500", "145203.072500", "145204.562500", "145206.052500", "145207.542500", "145209.032500", "145210.522500", "145212.012500", "145213.502500", "145214.992500", "145216.482500", "145217.972500", "145219.462500", "145220.952500", "145222.442500", "145223.932500", "145225.422500", "145226.912500", "145228.402500", "145229.892500", "145231.382500", "145232.872500", "145234.362500", "145235.852500", "145237.342500", "145238.832500", "145240.322500", "145241.812500", "145243.302500", "145244.792500", "145246.282500", "145247.772500", "145249.262500", "145250.752500", "145252.242500", "145253.732500", "145255.222500", "145256.712500", "145258.202500", "145259.692500", "145301.182500", "145302.672500", "145304.162500", "145305.652500", "145307.142500", "145308.632500", "145310.122500", "145311.612500", "145313.102500", "145314.592500", "145316.082500", "145317.572500", "145319.062500", "145320.552500", "145322.042500", "145323.532500", "145325.022500", "145326.512500", "145328.002500", "145329.492500", "145330.982500", "145332.472500", "145333.962500", "145335.452500", "145336.942500", "145338.432500", "145339.922500", "145341.412500", "145342.902500", "145344.392500", "145345.882500", "145347.372500", "145348.862500", "145350.352500", "145351.842500", "145353.332500", "145354.822500", "145356.312500", "145357.802500", "145359.292500", "145400.782500", "145402.272500", "145403.762500", "145405.252500", "145406.742500", "145408.232500", "145409.722500", "145411.212500", "145412.702500", "145414.192500", "145415.682500", "145417.172500", "145418.662500", "145420.152500", "145421.642500", "145423.132500", "145424.622500", "145426.112500", "145427.602500", "145429.092500", "145430.582500", "145432.072500", "145433.562500", "145435.052500", "145436.542500", "145438.032500", "145439.522500", "145441.012500", "145442.502500", "145443.992500", "145445.482500", "145446.972500", "145448.462500", "145449.952500", "145451.442500", "145452.932500", "145454.422500", "145455.912500", "145457.402500", "145458.892500", "145500.382500", "145501.872500", "145503.362500", "145504.852500", "145506.342500", "145507.832500", "145509.322500", "145510.812500", "145512.302500", "145513.792500", "145515.282500", "145516.772500", "145518.262500", "145519.752500", "145521.242500", "145522.732500", "145524.222500", "145525.712500", "145527.202500", "145528.692500", "145530.182500", "145531.672500", "145533.162500", "145534.652500", "145536.142500", "145537.632500", "145539.122500", "145540.612500", "145542.102500", "145543.592500", "145545.082500", "145546.572500", "145548.062500", "145549.552500", "145551.042500", "145552.532500", "145554.022500", "145555.512500", "145557.002500", "145558.492500", "145559.982500", "145601.472500", "145602.962500", "145604.452500", "145605.942500", "145607.432500", "145608.922500", "145610.412500", "145611.902500", "145613.392500", "145614.882500", "145616.372500", "145617.862500", "145619.352500", "145620.842500", "145622.332500", "145623.822500", "145625.312500", "145626.802500", "145628.292500", "145629.782500", "145631.272500", "145632.762500", "145634.252500", "145635.742500", "145637.232500", "145638.722500", "145640.212500", "145641.702500", "145643.192500", "145644.682500", "145646.172500", "145647.662500", "145649.152500", "145650.642500", "145652.132500", "145653.622500", "145655.112500", "145656.602500", "145658.092500", "145659.582500", "145701.072500", "145702.562500", "145704.052500", "145705.542500", "145707.032500", "145708.522500", "145710.012500", "145711.502500", "145712.992500", "145714.482500", "145715.972500", "145717.462500", "145718.952500", "145720.442500", "145721.932500", "145723.422500", "145724.912500", "145726.402500", "145727.892500", "145729.382500", "145730.872500", "145732.362500", "145733.852500", "145735.342500", "145736.832500", "145738.322500", "145739.812500", "145741.302500", "145742.792500", "145744.282500", "145745.772500", "145747.262500", "145748.752500", "145750.242500", "145751.732500", "145753.222500", "145754.712500", "145756.202500", "145757.692500", "145759.182500", "145800.672500", "145802.162500", "145803.652500", "145805.142500", "145806.632500", "145808.122500", "145809.612500", "145811.102500", "145812.592500", "145814.082500", "145815.572500", "145817.062500", "145818.552500", "145820.042500", "145821.532500", "145823.022500", "145824.512500", "145826.002500", "145827.492500", "145828.982500", "145830.472500"],
      "ContentTime": ["144800.385000", "144800.389000", "144800.392000", "144800.396000", "144800.399000", "144800.402000", "144800.406000", "144800.409000", "144800.412000", "144800.416000", "144800.419000", "144800.422000", "144800.426000", "144800.429000", "144800.443000", "144800.446000", "144800.450000", "144800.453000", "144800.456000", "144800.459000", "144800.463000", "144820.342000", "144820.346000", "144820.349000", "144820.352000", "144820.356000", "144820.359000", "144820.362000", "144820.366000", "144820.369000", "144820.372000", "144820.375000", "144820.379000", "144820.382000", "144820.385000", "144820.389000", "144820.392000", "144820.395000", "144820.399000", "144820.402000", "144820.405000", "144840.342000", "144840.346000", "144840.349000", "144840.366000", "144840.369000", "144840.372000", "144840.376000", "144840.379000", "144840.382000", "144840.385000", "144840.389000", "144840.392000", "144840.395000", "144840.399000", "144840.402000", "144840.405000", "144840.409000", "144840.412000", "144840.421000", "144840.424000", "144900.341000", "144900.345000", "144900.348000", "144900.352000", "144900.355000", "144900.358000", "144900.361000", "144900.365000", "144900.368000", "144900.371000", "144900.375000", "144900.378000", "144900.381000", "144900.384000", "144900.388000", "144900.391000", "144900.394000", "144900.398000", "144900.401000", "144900.404000", "144940.341000", "144940.346000", "144940.349000", "144940.352000", "144940.356000", "144940.359000", "144940.363000", "144940.366000", "144940.369000", "144940.372000", "144940.376000", "144940.379000", "144940.383000", "144940.386000", "144940.394000", "144940.397000", "144940.400000", "144940.404000", "144940.407000", "144940.410000", "144940.414000", "144940.417000", "144940.420000", "144940.424000", "144940.427000", "144940.430000", "144940.434000", "144940.437000", "144940.440000", "144940.444000", "144940.447000", "145020.342000", "145020.346000", "145020.349000", "145020.353000", "145020.356000", "145020.359000", "145020.363000", "145020.366000", "145020.369000", "145020.373000", "145020.376000", "145020.379000", "145020.383000", "145020.386000", "145020.389000", "145020.393000", "145020.396000", "145020.399000", "145020.403000", "145020.406000", "145020.409000", "145020.413000", "145020.416000", "145020.419000", "145020.423000", "145020.426000", "145020.429000", "145100.342000", "145100.346000", "145100.349000", "145100.353000", "145100.356000", "145100.359000", "145100.363000", "145100.366000", "145100.370000", "145100.374000", "145100.387000", "145100.391000", "145100.394000", "145100.397000", "145100.401000", "145100.404000", "145100.408000", "145100.411000", "145100.414000", "145100.418000", "145100.421000", "145100.424000", "145100.428000", "145100.431000", "145100.434000", "145100.438000", "145100.441000", "145140.341000", "145140.345000", "145140.348000", "145140.352000", "145140.355000", "145140.358000", "145140.362000", "145140.365000", "145140.368000", "145140.372000", "145140.375000", "145140.379000", "145140.382000", "145140.385000", "145140.389000", "145140.392000", "145140.395000", "145140.399000", "145140.402000", "145140.405000", "145140.409000", "145140.412000", "145140.415000", "145140.419000", "145140.422000", "145140.425000", "145140.429000", "145220.341000", "145220.345000", "145220.348000", "145220.352000", "145220.355000", "145220.358000", "145220.362000", "145220.365000", "145220.368000", "145220.372000", "145220.375000", "145220.378000", "145220.382000", "145220.385000", "145220.388000", "145220.392000", "145220.395000", "145220.399000", "145220.402000", "145220.405000", "145220.409000", "145220.412000", "145220.415000", "145220.419000", "145220.422000", "145220.426000", "145220.429000", "145300.342000", "145300.346000", "145300.349000", "145300.353000", "145300.356000", "145300.359000", "145300.363000", "145300.366000", "145300.369000", "145300.373000", "145300.376000", "145300.379000", "145300.383000", "145300.386000", "145300.389000", "145300.393000", "145300.396000", "145300.400000", "145300.403000", "145300.406000", "145300.409000", "145300.413000", "145300.429000", "145300.432000", "145300.435000", "145300.439000", "145300.442000", "145340.341000", "145340.345000", "145340.348000", "145340.352000", "145340.355000", "145340.359000", "145340.362000", "145340.366000", "145340.370000", "145340.375000", "145340.380000", "145340.383000", "145340.387000", "145340.390000", "145340.393000", "145340.397000", "145340.400000", "145340.404000", "145340.407000", "145340.410000", "145340.414000", "145340.417000", "145340.420000", "145340.424000", "145340.427000", "145340.430000", "145420.341000", "145420.345000", "145420.348000", "145420.352000", "145420.355000", "145420.358000", "145420.362000", "145420.365000", "145420.369000", "145420.372000", "145420.375000", "145420.379000", "145420.382000", "145420.385000", "145420.388000", "145420.392000", "145420.395000", "145420.398000", "145420.402000", "145420.405000", "145420.409000", "145420.412000", "145420.416000", "145420.419000", "145420.422000", "145420.426000", "145420.429000", "145500.342000", "145500.346000", "145500.349000", "145500.353000", "145500.356000", "145500.359000", "145500.363000", "145500.366000", "145500.369000", "145500.373000", "145500.376000", "145500.379000", "145500.383000", "145500.386000", "145500.389000", "145500.393000", "145500.396000", "145500.400000", "145500.403000", "145500.406000", "145500.410000", "145500.413000", "145500.416000", "145500.420000", "145500.423000", "145500.426000", "145500.430000", "145540.342000", "145540.346000", "145540.349000", "145540.353000", "145540.364000", "145540.367000", "145540.371000", "145540.374000", "145540.378000", "145540.381000", "145540.384000", "145540.388000", "145540.391000", "145540.394000", "145540.398000", "145540.401000", "145540.404000", "145540.408000", "145540.411000", "145540.415000", "145540.418000", "145540.421000", "145540.425000", "145540.428000", "145540.431000", "145540.435000", "145540.438000", "145620.341000", "145620.345000", "145620.349000", "145620.352000", "145620.355000", "145620.359000", "145620.362000", "145620.365000", "145620.369000", "145620.372000", "145620.376000", "145620.379000", "145620.382000", "145620.386000", "145620.389000", "145620.392000", "145620.396000", "145620.399000", "145620.402000", "145620.406000", "145620.409000", "145620.412000", "145620.416000", "145620.419000", "145620.424000", "145620.427000", "145620.431000", "145700.341000", "145700.345000", "145700.348000", "145700.352000", "145700.355000", "145700.358000", "145700.362000", "145700.365000", "145700.369000", "145700.372000", "145700.375000", "145700.378000", "145700.382000", "145700.385000", "145700.388000", "145700.392000", "145700.395000", "145700.399000", "145700.402000", "145700.405000", "145700.409000", "145700.412000", "145700.415000", "145700.419000", "145700.422000", "145700.425000", "145700.429000", "145740.342000", "145740.346000", "145740.349000", "145740.353000", "145740.356000", "145740.359000", "145740.363000", "145740.366000", "145740.369000", "145740.373000", "145740.376000", "145740.379000", "145740.383000", "145740.386000", "145740.390000", "145740.393000", "145740.417000", "145740.421000", "145740.424000", "145740.427000", "145740.431000", "145740.434000", "145740.437000", "145740.441000", "145740.444000", "145740.447000", "145740.451000", "145820.342000", "145820.346000", "145820.349000", "145820.353000", "145820.356000", "145820.360000", "145820.363000", "145820.366000", "145820.370000", "145820.373000", "145820.376000", "145820.380000", "145820.383000", "145820.386000", "145820.390000", "145820.393000", "145820.397000", "145820.400000", "145820.404000", "145820.407000", "145820.411000", "145820.414000", "145820.417000", "145820.421000", "145820.424000", "145820.427000", "145833.226000", "145833.230000", "145833.233000", "145833.236000", "145833.240000", "145833.243000", "145833.246000", "145833.250000", "145833.253000"],
