{
  "AcquisitionMatrixPE": 104,
  "AcquisitionNumber": 1,
  "AcquisitionTime": "16:13:55.350000",
  "BandwidthPerPixelPhaseEncode": 17.17,
  "BaseResolution": 104,
  "BodyPartExamined": "BRAIN",
  "CoilCombinationMethod": "Sum of Squares",
  "ConsistencyInfo": "N4_VE11C_LATEST_20160120",
  "ConversionSoftware": "dcm2niix",
  "ConversionSoftwareVersion": "v1.0.20211006",
  "DerivedVendorReportedEchoSpacing": 0.000560011,
  "DeviceSerialNumber": "167006",
  "DwellTime": 2.1e-06,
  "EchoTime": 0.037,
  "EchoTime1": 0.037,
  "EchoTime2": 0.001,
  "EchoTrainLength": 104,
  "EffectiveEchoSpacing": 0.000560011,
  "FlipAngle": 52,
  "HeudiconvVersion": "0.11.3.post9+gc939bf8",
  "ImageComments": "Unaliased MB4/PE3/LB",
  "ImageOrientationPatientDICOM": [0.999312, 0.0119699, 0.035095, 0.00889529, 0.841439, -0.54028],
  "ImageOrientationText": "Tra>Cor(-32.7)>Sag(2.1)",
  "ImageType": [
    "ORIGINAL",
    "PRIMARY",
    "P",
    "MB",
    "ND",
    "MOSAIC",
    "PHASE"
],
  "ImagingFrequency": 123.259,
  "InPlanePhaseEncodingDirectionDICOM": "COL",
  "InstitutionAddress": "Chemin Queen-Mary 4565,Montreal,District,CA,H3W 1W5",
  "InstitutionName": "IUGM",
  "InstitutionalDepartmentName": "Department",
  "MRAcquisitionType": "2D",
  "MagneticFieldStrength": 3,
  "Manufacturer": "Siemens",
  "ManufacturersModelName": "Prisma_fit",
  "MatrixCoilMode": "SENSE",
  "Modality": "MR",
  "MultibandAccelerationFactor": 4,
  "PartialFourier": 1,
  "PatientPosition": "HFS",
  "PercentPhaseFOV": 100,
  "PercentSampling": 100,
  "PhaseEncodingDirection": "j",
  "PhaseEncodingSteps": 104,
  "PhaseResolution": 1,
  "PixelBandwidth": 2290,
  "ProcedureStepDescription": "games^mariostars",
  "ProtocolName": "func_task-mariostars_run-01",
  "PulseSequenceDetails": "%CustomerSeq%\\cmrr_mbep2d_bold",
  "ReceiveCoilActiveElements": "HC1-7;NC1,2",
  "ReceiveCoilName": "HeadNeck_64",
  "ReconMatrixPE": 104,
  "RepetitionTime": 1.49,
  "SAR": 0.0680273,
  "ScanOptions": "FS",
  "ScanningSequence": "EP",
  "SequenceName": "epfid2d1_104",
  "SequenceVariant": "SK\\SS",
  "SeriesDescription": "func_task-mariostars_run-01",
  "SeriesNumber": 12,
  "ShimSetting": [620, -7191, -8872, 261, 35, -248, 22, 0],
  "SliceThickness": 2,
  "SliceTiming": [0, 0.785, 0.0975, 0.8825, 0.195, 0.98, 0.295, 1.0775, 0.3925, 1.175, 0.49, 1.2725, 0.5875, 1.3725, 0.685, 0, 0.785, 0.0975, 0.8825, 0.195, 0.98, 0.295, 1.0775, 0.3925, 1.175, 0.49, 1.2725, 0.5875, 1.3725, 0.685, 0, 0.785, 0.0975, 0.8825, 0.195, 0.98, 0.295, 1.0775, 0.3925, 1.175, 0.49, 1.2725, 0.5875, 1.3725, 0.685, 0, 0.785, 0.0975, 0.8825, 0.195, 0.98, 0.295, 1.0775, 0.3925, 1.175, 0.49, 1.2725, 0.5875, 1.3725, 0.685],
  "SoftwareVersions": "syngo MR E11",
  "SpacingBetweenSlices": 2,
  "StationName": "MRC35049",
  "TaskName": "mariostars",
  "TotalReadoutTime": 0.0576811,
  "TxRefAmp": 295.885,
  "WipMemBlock": "b421d304-ee01-4e56-b969-2c640e029d37||Sequence: R017 ve11c/master r/75a17815+; Jun 28 2022 16:32:11 by eja",
  "dcmmeta_affine": [
    [-1.998624563217163, 0.017790572717785835, 0.07199469953775406, 104.3702621459961],
    [-0.023939790204167366, 1.6828770637512207, -1.080440640449524, -46.43686294555664],
    [0.0701899379491806, 1.0805593729019165, 1.6815067529678345, -94.75918579101562],
    [0.0, 0.0, 0.0, 1.0]
],
  "dcmmeta_reorient_transform": [
    [0.0, -1.0, 0.0, 103.0],
    [1.0, 0.0, 0.0, 0.0],
    [0.0, 0.0, 1.0, 0.0],
    [0.0, 0.0, 0.0, 1.0]
],
  "dcmmeta_shape": [104, 104, 60, 466],
  "dcmmeta_slice_dim": 2,
  "dcmmeta_version": 0.6,
  "global": {
    "const": {
      "AcquisitionMatrix": [104, 0, 0, 104],
      "AngioFlag": "N",
      "BitsAllocated": 16,
      "BitsStored": 16,
      "BodyPartExamined": "BRAIN",
      "Columns": 832,
      "EchoNumbers": 1,
      "EchoTime": 37.0,
      "EchoTrainLength": 104,
      "FlipAngle": 52.0,
      "HighBit": 15,
      "ImageOrientationPatient": [0.99931229585201, 0.01196989480758, 0.03509497082612, 0.00889528605931, 0.84143850421639, -0.5402796660138],
      "ImagePositionPatient": [-840.17781124336, -748.18078463101, 384.31288056854],
      "ImageType": [
        "ORIGINAL",
        "PRIMARY",
        "P",
        "MB",
        "ND",
        "MOSAIC"
],
      "ImagedNucleus": "1H",
      "ImagingFrequency": 123.258784,
      "InPlanePhaseEncodingDirection": "COL",
      "LargestImagePixelValue": 4095,
      "MRAcquisitionType": "2D",
      "MagneticFieldStrength": 3.0,
      "Manufacturer": "SIEMENS",
      "ManufacturerModelName": "Prisma_fit",
      "Modality": "MR",
      "NumberOfAverages": 1.0,
      "NumberOfPhaseEncodingSteps": 104,
      "PercentPhaseFieldOfView": 100.0,
      "PercentSampling": 100.0,
      "PerformedProcedureStepStartTime": "161000.202000",
      "PhotometricInterpretation": "MONOCHROME2",
      "PixelBandwidth": 2290.0,
      "PixelRepresentation": 0,
      "PixelSpacing": [2.0, 2.0],
      "ProtocolName": "func_task-mariostars_run-01",
      "RepetitionTime": 1490.0,
      "RescaleIntercept": -4096.0,
      "RescaleSlope": 2.0,
      "RescaleType": "US",
      "Rows": 832,
      "SAR": 0.0680272755176,
      "SamplesPerPixel": 1,
      "ScanOptions": "FS",
      "ScanningSequence": "EP",
      "SequenceName": "epfid2d1_104",
      "SequenceVariant": [
        "SK",
        "SS"
],
      "SeriesDescription": "func_task-mariostars_run-01",
      "SeriesNumber": 12,
      "SeriesTime": "161501.508000",
      "SliceLocation": -50.825919064695,
      "SliceThickness": 2.0,
      "SmallestImagePixelValue": 0,
      "SoftwareVersions": "syngo MR E11",
      "SpacingBetweenSlices": 2.0000000064146,
      "SpecificCharacterSet": "ISO_IR 100",
      "StudyID": "1",
      "StudyTime": "161000.128000",
      "TransmitCoilName": "Body",
      "VariableFlipAngleFlag": "N",
      "WindowCenterWidthExplanation": "Algo1",
      "dBdt": 0.0},
    "slices": {}
  },
  "time": {
    "samples": {
      "AcquisitionNumber": [1, 2, 3, 4, 5, 6, 7, 8, 9, 10, 11, 12, 13, 14, 15, 16, 17, 18, 19, 20, 21, 22, 23, 24, 25, 26, 27, 28, 29, 30, 31, 32, 33, 34, 35, 36, 37, 38, 39, 40, 41, 42, 43, 44, 45, 46, 47, 48, 49, 50, 51, 52, 53, 54, 55, 56, 57, 58, 59, 60, 61, 62, 63, 64, 65, 66, 67, 68, 69, 70, 71, 72, 73, 74, 75, 76, 77, 78, 79, 80, 81, 82, 83, 84, 85, 86, 87, 88, 89, 90, 91, 92, 93, 94, 95, 96, 97, 98, 99, 100, 101, 102, 103, 104, 105, 106, 107, 108, 109, 110, 111, 112, 113, 114, 115, 116, 117, 118, 119, 120, 121, 122, 123, 124, 125, 126, 127, 128, 129, 130, 131, 132, 133, 134, 135, 136, 137, 138, 139, 140, 141, 142, 143, 144, 145, 146, 147, 148, 149, 150, 151, 152, 153, 154, 155, 156, 157, 158, 159, 160, 161, 162, 163, 164, 165, 166, 167, 168, 169, 170, 171, 172, 173, 174, 175, 176, 177, 178, 179, 180, 181, 182, 183, 184, 185, 186, 187, 188, 189, 190, 191, 192, 193, 194, 195, 196, 197, 198, 199, 200, 201, 202, 203, 204, 205, 206, 207, 208, 209, 210, 211, 212, 213, 214, 215, 216, 217, 218, 219, 220, 221, 222, 223, 224, 225, 226, 227, 228, 229, 230, 231, 232, 233, 234, 235, 236, 237, 238, 239, 240, 241, 242, 243, 244, 245, 246, 247, 248, 249, 250, 251, 252, 253, 254, 255, 256, 257, 258, 259, 260, 261, 262, 263, 264, 265, 266, 267, 268, 269, 270, 271, 272, 273, 274, 275, 276, 277, 278, 279, 280, 281, 282, 283, 284, 285, 286, 287, 288, 289, 290, 291, 292, 293, 294, 295, 296, 297, 298, 299, 300, 301, 302, 303, 304, 305, 306, 307, 308, 309, 310, 311, 312, 313, 314, 315, 316, 317, 318, 319, 320, 321, 322, 323, 324, 325, 326, 327, 328, 329, 330, 331, 332, 333, 334, 335, 336, 337, 338, 339, 340, 341, 342, 343, 344, 345, 346, 347, 348, 349, 350, 351, 352, 353, 354, 355, 356, 357, 358, 359, 360, 361, 362, 363, 364, 365, 366, 367, 368, 369, 370, 371, 372, 373, 374, 375, 376, 377, 378, 379, 380, 381, 382, 383, 384, 385, 386, 387, 388, 389, 390, 391, 392, 393, 394, 395, 396, 397, 398, 399, 400, 401, 402, 403, 404, 405, 406, 407, 408, 409, 410, 411, 412, 413, 414, 415, 416, 417, 418, 419, 420, 421, 422, 423, 424, 425, 426, 427, 428, 429, 430, 431, 432, 433, 434, 435, 436, 437, 438, 439, 440, 441, 442, 443, 444, 445, 446, 447, 448, 449, 450, 451, 452, 453, 454, 455, 456, 457, 458, 459, 460, 461, 462, 463, 464, 465, 466],
      "AcquisitionTime": ["161355.350000", "161356.840000", "161358.330000", "161359.820000", "161401.310000", "161402.800000", "161404.290000", "161405.780000", "161407.270000", "161408.760000", "161410.250000", "161411.740000", "161413.230000", "161414.720000", "161416.210000", "161417.700000", "161419.190000", "161420.680000", "161422.170000", "161423.660000", "161425.150000", "161426.640000", "161428.130000", "161429.620000", "161431.110000", "161432.600000", "161434.090000", "161435.580000", "161437.070000", "161438.560000", "161440.050000", "161441.540000", "161443.030000", "161444.520000", "161446.010000", "161447.500000", "161448.990000", "161450.480000", "161451.970000", "161453.460000", "161454.950000", "161456.440000", "161457.930000", "161459.420000", "161500.910000", "161502.400000", "161503.890000", "161505.380000", "161506.870000", "161508.360000", "161509.850000", "161511.340000", "161512.830000", "161514.320000", "161515.810000", "161517.300000", "161518.790000", "161520.280000", "161521.770000", "161523.260000", "161524.750000", "161526.240000", "161527.730000", "161529.220000", "161530.710000", "161532.200000", "161533.690000", "161535.180000", "161536.670000", "161538.160000", "161539.650000", "161541.140000", "161542.630000", "161544.120000", "161545.610000", "161547.100000", "161548.590000", "161550.080000", "161551.570000", "161553.060000", "161554.550000", "161556.040000", "161557.530000", "161559.020000", "161600.510000", "161602.000000", "161603.490000", "161604.980000", "161606.470000", "161607.960000", "161609.450000", "161610.940000", "161612.430000", "161613.920000", "161615.410000", "161616.900000", "161618.390000", "161619.880000", "161621.370000", "161622.860000", "161624.350000", "161625.840000", "161627.330000", "161628.820000", "161630.310000", "161631.800000", "161633.290000", "161634.780000", "161636.270000", "161637.760000", "161639.250000", "161640.740000", "161642.230000", "161643.720000", "161645.210000", "161646.700000", "161648.190000", "161649.680000", "161651.170000", "161652.660000", "161654.150000", "161655.640000", "161657.130000", "161658.620000", "161700.110000", "161701.600000", "161703.090000", "161704.580000", "161706.070000", "161707.560000", "161709.050000", "161710.540000", "161712.030000", "161713.520000", "161715.010000", "161716.500000", "161717.990000", "161719.480000", "161720.970000", "161722.460000", "161723.950000", "161725.440000", "161726.930000", "161728.420000", "161729.910000", "161731.400000", "161732.890000", "161734.380000", "161735.870000", "161737.360000", "161738.850000", "161740.340000", "161741.830000", "161743.320000", "161744.810000", "161746.300000", "161747.790000", "161749.280000", "161750.770000", "161752.260000", "161753.750000", "161755.240000", "161756.730000", "161758.220000", "161759.710000", "161801.200000", "161802.690000", "161804.180000", "161805.670000", "161807.160000", "161808.650000", "161810.140000", "161811.630000", "161813.120000", "161814.610000", "161816.100000", "161817.590000", "161819.080000", "161820.570000", "161822.060000", "161823.550000", "161825.040000", "161826.530000", "161828.020000", "161829.510000", "161831.000000", "161832.490000", "161833.980000", "161835.470000", "161836.960000", "161838.450000", "161839.940000", "161841.430000", "161842.920000", "161844.410000", "161845.900000", "161847.390000", "161848.880000", "161850.370000", "161851.860000", "161853.350000", "161854.840000", "161856.330000", "161857.820000", "161859.310000", "161900.800000", "161902.290000", "161903.780000", "161905.270000", "161906.760000", "161908.250000", "161909.740000", "161911.230000", "161912.720000", "161914.210000", "161915.700000", "161917.190000", "161918.680000", "161920.170000", "161921.660000", "161923.150000", "161924.640000", "161926.130000", "161927.620000", "161929.110000", "161930.600000", "161932.090000", "161933.580000", "161935.070000", "161936.560000", "161938.050000", "161939.540000", "161941.030000", "161942.520000", "161944.010000", "161945.500000", "161946.990000", "161948.480000", "161949.970000", "161951.460000", "161952.950000", "161954.440000", "161955.930000", "161957.420000", "161958.910000", "162000.400000", "162001.890000", "162003.380000", "162004.870000", "162006.360000", "162007.850000", "162009.340000", "162010.830000", "162012.320000", "162013.810000", "162015.300000", "162016.790000", "162018.280000", "162019.770000", "162021.260000", "162022.750000", "162024.240000", "162025.730000", "162027.220000", "162028.710000", "162030.200000", "162031.690000", "162033.180000", "162034.670000", "162036.160000", "162037.650000", "162039.140000", "162040.630000", "162042.120000", "162043.610000", "162045.100000", "162046.590000", "162048.080000", "162049.570000", "162051.060000", "162052.550000", "162054.040000", "162055.530000", "162057.020000", "162058.510000", "162100.000000", "162101.490000", "162102.980000", "162104.470000", "162105.960000", "162107.450000", "162108.940000", "162110.430000", "162111.920000", "162113.410000", "162114.900000", "162116.390000", "162117.880000", "162119.370000", "162120.860000", "162122.350000", "162123.840000", "162125.330000", "162126.820000", "162128.310000", "162129.800000", "162131.290000", "162132.780000", "162134.270000", "162135.760000", "162137.250000", "162138.740000", "162140.230000", "162141.720000", "162143.210000", "162144.700000", "162146.190000", "162147.680000", "162149.170000", "162150.660000", "162152.150000", "162153.640000", "162155.130000", "162156.620000", "162158.110000", "162159.600000", "162201.090000", "162202.580000", "162204.070000", "162205.560000", "162207.050000", "162208.540000", "162210.030000", "162211.520000", "162213.010000", "162214.500000", "162215.990000", "162217.480000", "162218.970000", "162220.460000", "162221.950000", "162223.440000", "162224.930000", "162226.420000", "162227.910000", "162229.400000", "162230.890000", "162232.380000", "162233.870000", "162235.360000", "162236.850000", "162238.340000", "162239.830000", "162241.320000", "162242.810000", "162244.300000", "162245.790000", "162247.280000", "162248.770000", "162250.260000", "162251.750000", "162253.240000", "162254.730000", "162256.220000", "162257.710000", "162259.200000", "162300.690000", "162302.180000", "162303.670000", "162305.160000", "162306.650000", "162308.140000", "162309.630000", "162311.120000", "162312.610000", "162314.100000", "162315.590000", "162317.080000", "162318.570000", "162320.060000", "162321.550000", "162323.040000", "162324.530000", "162326.020000", "162327.510000", "162329.000000", "162330.490000", "162331.980000", "162333.470000", "162334.960000", "162336.450000", "162337.940000", "162339.430000", "162340.920000", "162342.410000", "162343.900000", "162345.390000", "162346.880000", "162348.370000", "162349.860000", "162351.350000", "162352.840000", "162354.330000", "162355.820000", "162357.310000", "162358.800000", "162400.290000", "162401.780000", "162403.270000", "162404.760000", "162406.250000", "162407.740000", "162409.230000", "162410.720000", "162412.210000", "162413.700000", "162415.190000", "162416.680000", "162418.170000", "162419.660000", "162421.150000", "162422.640000", "162424.130000", "162425.620000", "162427.110000", "162428.600000", "162430.090000", "162431.580000", "162433.070000", "162434.560000", "162436.050000", "162437.540000", "162439.030000", "162440.520000", "162442.010000", "162443.500000", "162444.990000", "162446.480000", "162447.970000", "162449.460000", "162450.950000", "162452.440000", "162453.930000", "162455.420000", "162456.910000", "162458.400000", "162459.890000", "162501.380000", "162502.870000", "162504.360000", "162505.850000", "162507.340000", "162508.830000", "162510.320000", "162511.810000", "162513.300000", "162514.790000", "162516.280000", "162517.770000", "162519.260000", "162520.750000", "162522.240000", "162523.730000", "162525.220000", "162526.710000", "162528.200000"],
      "ContentTime": ["161501.510000", "161501.513000", "161501.515000", "161501.517000", "161501.520000", "161501.522000", "161501.525000", "161501.527000", "161501.530000", "161501.532000", "161501.535000", "161501.537000", "161501.540000", "161501.542000", "161501.545000", "161501.547000", "161501.549000", "161521.485000", "161521.487000", "161521.490000", "161521.492000", "161521.495000", "161521.497000", "161521.500000", "161521.502000", "161521.504000", "161521.507000", "161521.510000", "161521.512000", "161521.515000", "161521.517000", "161521.520000", "161521.522000", "161521.525000", "161521.528000", "161521.530000", "161521.533000", "161541.512000", "161541.515000", "161541.517000", "161541.520000", "161541.522000", "161541.525000", "161541.527000", "161541.530000", "161541.532000", "161541.535000", "161541.537000", "161541.540000", "161541.542000", "161541.544000", "161541.547000", "161541.549000", "161541.552000", "161541.555000", "161541.557000", "161541.560000", "161601.494000", "161601.497000", "161601.499000", "161601.508000", "161601.510000", "161601.512000", "161601.515000", "161601.517000", "161601.520000", "161601.522000", "161601.525000", "161601.527000", "161601.530000", "161601.532000", "161601.535000", "161601.537000", "161601.540000", "161601.542000", "161601.545000", "161601.547000", "161601.550000", "161641.554000", "161641.557000", "161641.559000", "161641.562000", "161641.564000", "161641.567000", "161641.569000", "161641.572000", "161641.574000", "161641.577000", "161641.579000", "161641.582000", "161641.584000", "161641.587000", "161641.589000", "161641.592000", "161641.594000", "161641.597000", "161641.599000", "161641.602000", "161641.604000", "161641.607000", "161641.609000", "161641.612000", "161641.614000", "161641.617000", "161641.619000", "161641.622000", "161641.624000", "161641.627000", "161641.629000", "161641.632000", "161641.634000", "161721.528000", "161721.531000", "161721.533000", "161721.536000", "161721.538000", "161721.541000", "161721.543000", "161721.546000", "161721.548000", "161721.551000", "161721.553000", "161721.556000", "161721.558000", "161721.561000", "161721.563000", "161721.566000", "161721.568000", "161721.571000", "161721.573000", "161721.576000", "161721.578000", "161721.581000", "161721.583000", "161721.586000", "161721.588000", "161721.591000", "161721.593000", "161801.522000", "161801.525000", "161801.528000", "161801.530000", "161801.533000", "161801.535000", "161801.538000", "161801.540000", "161801.543000", "161801.545000", "161801.548000", "161801.550000", "161801.553000", "161801.555000", "161801.558000", "161801.561000", "161801.563000", "161801.566000", "161801.568000", "161801.571000", "161801.574000", "161801.576000", "161801.579000", "161801.581000", "161801.584000", "161801.586000", "161841.513000", "161841.516000", "161841.518000", "161841.521000", "161841.523000", "161841.526000", "161841.528000", "161841.531000", "161841.533000", "161841.536000", "161841.538000", "161841.541000", "161841.543000", "161841.546000", "161841.548000", "161841.551000", "161841.553000", "161841.556000", "161841.558000", "161841.561000", "161841.563000", "161841.566000", "161841.568000", "161841.571000", "161841.573000", "161841.576000", "161841.578000", "161921.510000", "161921.513000", "161921.515000", "161921.518000", "161921.520000", "161921.523000", "161921.525000", "161921.528000", "161921.530000", "161921.533000", "161921.536000", "161921.538000", "161921.541000", "161921.543000", "161921.546000", "161921.548000", "161921.551000", "161921.553000", "161921.555000", "161921.558000", "161921.560000", "161921.563000", "161921.565000", "161921.568000", "161921.571000", "161921.573000", "161921.575000", "162002.049000", "162002.052000", "162002.055000", "162002.058000", "162002.060000", "162002.063000", "162002.065000", "162002.068000", "162002.071000", "162002.074000", "162002.076000", "162002.079000", "162002.082000", "162002.084000", "162002.087000", "162002.090000", "162002.092000", "162002.095000", "162002.098000", "162002.100000", "162002.103000", "162002.106000", "162002.109000", "162002.112000", "162002.115000", "162002.119000", "162002.122000", "162041.525000", "162041.527000", "162041.530000", "162041.532000", "162041.535000", "162041.537000", "162041.540000", "162041.542000", "162041.545000", "162041.547000", "162041.550000", "162041.552000", "162041.555000", "162041.557000", "162041.560000", "162041.562000", "162041.565000", "162041.567000", "162041.570000", "162041.572000", "162041.575000", "162041.578000", "162041.580000", "162041.583000", "162041.585000", "162041.588000", "162041.590000", "162121.604000", "162121.606000", "162121.609000", "162121.612000", "162121.614000", "162121.617000", "162121.619000", "162121.621000", "162121.624000", "162121.626000", "162121.629000", "162121.631000", "162121.634000", "162121.636000", "162121.639000", "162121.642000", "162121.644000", "162121.646000", "162121.649000", "162121.651000", "162121.654000", "162121.657000", "162121.659000", "162121.662000", "162121.664000", "162121.667000", "162121.669000", "162202.171000", "162202.174000", "162202.176000", "162202.179000", "162202.182000", "162202.184000", "162202.187000", "162202.189000", "162202.201000", "162202.203000", "162202.206000", "162202.209000", "162202.211000", "162202.214000", "162202.216000", "162202.218000", "162202.221000", "162202.224000", "162202.226000", "162202.229000", "162202.231000", "162202.234000", "162202.236000", "162202.239000", "162202.241000", "162202.244000", "162241.535000", "162241.538000", "162241.541000", "162241.543000", "162241.546000", "162241.549000", "162241.552000", "162241.555000", "162241.558000", "162241.560000", "162241.563000", "162241.565000", "162241.568000", "162241.570000", "162241.573000", "162241.576000", "162241.578000", "162241.581000", "162241.583000", "162241.586000", "162241.588000", "162241.591000", "162241.593000", "162241.596000", "162241.599000", "162241.601000", "162241.604000", "162321.521000", "162321.524000", "162321.526000", "162321.529000", "162321.532000", "162321.534000", "162321.537000", "162321.539000", "162321.542000", "162321.544000", "162321.547000", "162321.549000", "162321.552000", "162321.554000", "162321.557000", "162321.559000", "162321.562000", "162321.565000", "162321.567000", "162321.569000", "162321.572000", "162321.574000", "162321.577000", "162321.580000", "162321.582000", "162321.585000", "162321.587000", "162401.519000", "162401.522000", "162401.524000", "162401.527000", "162401.529000", "162401.532000", "162401.534000", "162401.537000", "162401.539000", "162401.542000", "162401.544000", "162401.547000", "162401.549000", "162401.552000", "162401.554000", "162401.557000", "162401.559000", "162401.562000", "162401.564000", "162401.567000", "162401.570000", "162401.572000", "162401.575000", "162401.577000", "162401.580000", "162401.582000", "162401.585000", "162441.516000", "162441.519000", "162441.522000", "162441.524000", "162441.527000", "162441.529000", "162441.532000", "162441.534000", "162441.537000", "162441.539000", "162441.542000", "162441.544000", "162441.547000", "162441.549000", "162441.552000", "162441.554000", "162441.557000", "162441.576000", "162441.579000", "162441.582000", "162441.584000", "162441.587000", "162441.589000", "162441.592000", "162441.594000", "162441.597000", "162441.599000", "162521.531000", "162521.534000", "162521.536000", "162521.539000", "162521.541000", "162521.544000", "162521.546000", "162521.549000", "162521.551000", "162521.554000", "162521.556000", "162521.559000", "162521.561000", "162521.564000", "162521.566000", "162521.569000", "162521.571000", "162521.574000", "162521.576000", "162521.579000", "162521.582000", "162521.584000", "162521.587000", "162521.590000", "162521.592000", "162521.595000", "162521.597000", "162530.930000", "162530.933000", "162530.936000", "162530.938000", "162530.941000", "162530.943000"],
