{
  "AcquisitionMatrixPE": 104,
  "AcquisitionNumber": 1,
  "AcquisitionTime": "16:13:55.350000",
  "BandwidthPerPixelPhaseEncode": 17.17,
  "BaseResolution": 104,
  "BodyPartExamined": "BRAIN",
  "CoilCombinationMethod": "Sum of Squares",
  "ConsistencyInfo": "N4_VE11C_LATEST_20160120",
  "ConversionSoftware": "dcm2niix",
  "ConversionSoftwareVersion": "v1.0.20211006",
  "DerivedVendorReportedEchoSpacing": 0.000560011,
  "DeviceSerialNumber": "167006",
  "DwellTime": 2.1e-06,
  "EchoTime": 0.037,
  "EchoTrainLength": 104,
  "EffectiveEchoSpacing": 0.000560011,
  "FlipAngle": 52,
  "HeudiconvVersion": "0.11.3.post9+gc939bf8",
  "ImageComments": "Unaliased MB4/PE3/LB",
  "ImageOrientationPatientDICOM": [0.999312, 0.0119699, 0.035095, 0.00889529, 0.841439, -0.54028],
  "ImageOrientationText": "Tra>Cor(-32.7)>Sag(2.1)",
  "ImageType": [
    "ORIGINAL",
    "PRIMARY",
    "M",
    "MB",
    "ND",
    "MOSAIC"
],
  "ImagingFrequency": 123.259,
  "InPlanePhaseEncodingDirectionDICOM": "COL",
  "InstitutionAddress": "Chemin Queen-Mary 4565,Montreal,District,CA,H3W 1W5",
  "InstitutionName": "IUGM",
  "InstitutionalDepartmentName": "Department",
  "MRAcquisitionType": "2D",
  "MagneticFieldStrength": 3,
  "Manufacturer": "Siemens",
  "ManufacturersModelName": "Prisma_fit",
  "MatrixCoilMode": "SENSE",
  "Modality": "MR",
  "MultibandAccelerationFactor": 4,
  "PartialFourier": 1,
  "PatientPosition": "HFS",
  "PercentPhaseFOV": 100,
  "PercentSampling": 100,
  "PhaseEncodingDirection": "j",
  "PhaseEncodingSteps": 104,
  "PhaseResolution": 1,
  "PixelBandwidth": 2290,
  "ProcedureStepDescription": "games^mariostars",
  "ProtocolName": "func_task-mariostars_run-01",
  "PulseSequenceDetails": "%CustomerSeq%\\cmrr_mbep2d_bold",
  "ReceiveCoilActiveElements": "HC1-7;NC1,2",
  "ReceiveCoilName": "HeadNeck_64",
  "ReconMatrixPE": 104,
  "RepetitionTime": 1.49,
  "SAR": 0.0680273,
  "ScanOptions": "FS",
  "ScanningSequence": "EP",
  "SequenceName": "epfid2d1_104",
  "SequenceVariant": "SK\\SS",
  "SeriesDescription": "func_task-mariostars_run-01",
  "SeriesNumber": 11,
  "ShimSetting": [620, -7191, -8872, 261, 35, -248, 22, 0],
  "SliceThickness": 2,
  "SliceTiming": [0, 0.785, 0.0975, 0.8825, 0.195, 0.98, 0.295, 1.0775, 0.3925, 1.175, 0.49, 1.2725, 0.5875, 1.3725, 0.685, 0, 0.785, 0.0975, 0.8825, 0.195, 0.98, 0.295, 1.0775, 0.3925, 1.175, 0.49, 1.2725, 0.5875, 1.3725, 0.685, 0, 0.785, 0.0975, 0.8825, 0.195, 0.98, 0.295, 1.0775, 0.3925, 1.175, 0.49, 1.2725, 0.5875, 1.3725, 0.685, 0, 0.785, 0.0975, 0.8825, 0.195, 0.98, 0.295, 1.0775, 0.3925, 1.175, 0.49, 1.2725, 0.5875, 1.3725, 0.685],
  "SoftwareVersions": "syngo MR E11",
  "SpacingBetweenSlices": 2,
  "StationName": "MRC35049",
  "TaskName": "mariostars",
  "TotalReadoutTime": 0.0576811,
  "TxRefAmp": 295.885,
  "WipMemBlock": "b421d304-ee01-4e56-b969-2c640e029d37||Sequence: R017 ve11c/master r/75a17815+; Jun 28 2022 16:32:11 by eja",
  "dcmmeta_affine": [
    [-1.998624563217163, 0.017790572717785835, 0.07199469953775406, 104.3702621459961],
    [-0.023939790204167366, 1.6828770637512207, -1.080440640449524, -46.43686294555664],
    [0.0701899379491806, 1.0805593729019165, 1.6815067529678345, -94.75918579101562],
    [0.0, 0.0, 0.0, 1.0]
],
  "dcmmeta_reorient_transform": [
    [0.0, -1.0, 0.0, 103.0],
    [1.0, 0.0, 0.0, 0.0],
    [0.0, 0.0, 1.0, 0.0],
    [0.0, 0.0, 0.0, 1.0]
],
  "dcmmeta_shape": [104, 104, 60, 466],
  "dcmmeta_slice_dim": 2,
  "dcmmeta_version": 0.6,
  "global": {
    "const": {
      "AcquisitionMatrix": [104, 0, 0, 104],
      "AngioFlag": "N",
      "BitsAllocated": 16,
      "BitsStored": 16,
      "BodyPartExamined": "BRAIN",
      "Columns": 832,
      "EchoNumbers": 1,
      "EchoTime": 37.0,
      "EchoTrainLength": 104,
      "FlipAngle": 52.0,
      "HighBit": 15,
      "ImageOrientationPatient": [0.99931229585201, 0.01196989480758, 0.03509497082612, 0.00889528605931, 0.84143850421639, -0.5402796660138],
      "ImagePositionPatient": [-840.17781124336, -748.18078463101, 384.31288056854],
      "ImageType": [
        "ORIGINAL",
        "PRIMARY",
        "M",
        "MB",
        "ND",
        "MOSAIC"
],
      "ImagedNucleus": "1H",
      "ImagingFrequency": 123.258784,
      "InPlanePhaseEncodingDirection": "COL",
      "MRAcquisitionType": "2D",
      "MagneticFieldStrength": 3.0,
      "Manufacturer": "SIEMENS",
      "ManufacturerModelName": "Prisma_fit",
      "Modality": "MR",
      "NumberOfAverages": 1.0,
      "NumberOfPhaseEncodingSteps": 104,
      "PercentPhaseFieldOfView": 100.0,
      "PercentSampling": 100.0,
      "PerformedProcedureStepStartTime": "161000.202000",
      "PhotometricInterpretation": "MONOCHROME2",
      "PixelBandwidth": 2290.0,
      "PixelRepresentation": 0,
      "PixelSpacing": [2.0, 2.0],
      "ProtocolName": "func_task-mariostars_run-01",
      "RepetitionTime": 1490.0,
      "Rows": 832,
      "SAR": 0.0680272755176,
      "SamplesPerPixel": 1,
      "ScanOptions": "FS",
      "ScanningSequence": "EP",
      "SequenceName": "epfid2d1_104",
      "SequenceVariant": [
        "SK",
        "SS"
],
      "SeriesDescription": "func_task-mariostars_run-01",
      "SeriesNumber": 11,
      "SeriesTime": "161501.415000",
      "SliceLocation": -50.825919064695,
      "SliceThickness": 2.0,
      "SmallestImagePixelValue": 0,
      "SoftwareVersions": "syngo MR E11",
      "SpacingBetweenSlices": 2.0000000064146,
      "SpecificCharacterSet": "ISO_IR 100",
      "StudyID": "1",
      "StudyTime": "161000.128000",
      "TransmitCoilName": "Body",
      "VariableFlipAngleFlag": "N",
      "WindowCenterWidthExplanation": "Algo1",
      "dBdt": 0.0},
    "slices": {}
  },
  "time": {
    "samples": {
      "AcquisitionNumber": [1, 2, 3, 4, 5, 6, 7, 8, 9, 10, 11, 12, 13, 14, 15, 16, 17, 18, 19, 20, 21, 22, 23, 24, 25, 26, 27, 28, 29, 30, 31, 32, 33, 34, 35, 36, 37, 38, 39, 40, 41, 42, 43, 44, 45, 46, 47, 48, 49, 50, 51, 52, 53, 54, 55, 56, 57, 58, 59, 60, 61, 62, 63, 64, 65, 66, 67, 68, 69, 70, 71, 72, 73, 74, 75, 76, 77, 78, 79, 80, 81, 82, 83, 84, 85, 86, 87, 88, 89, 90, 91, 92, 93, 94, 95, 96, 97, 98, 99, 100, 101, 102, 103, 104, 105, 106, 107, 108, 109, 110, 111, 112, 113, 114, 115, 116, 117, 118, 119, 120, 121, 122, 123, 124, 125, 126, 127, 128, 129, 130, 131, 132, 133, 134, 135, 136, 137, 138, 139, 140, 141, 142, 143, 144, 145, 146, 147, 148, 149, 150, 151, 152, 153, 154, 155, 156, 157, 158, 159, 160, 161, 162, 163, 164, 165, 166, 167, 168, 169, 170, 171, 172, 173, 174, 175, 176, 177, 178, 179, 180, 181, 182, 183, 184, 185, 186, 187, 188, 189, 190, 191, 192, 193, 194, 195, 196, 197, 198, 199, 200, 201, 202, 203, 204, 205, 206, 207, 208, 209, 210, 211, 212, 213, 214, 215, 216, 217, 218, 219, 220, 221, 222, 223, 224, 225, 226, 227, 228, 229, 230, 231, 232, 233, 234, 235, 236, 237, 238, 239, 240, 241, 242, 243, 244, 245, 246, 247, 248, 249, 250, 251, 252, 253, 254, 255, 256, 257, 258, 259, 260, 261, 262, 263, 264, 265, 266, 267, 268, 269, 270, 271, 272, 273, 274, 275, 276, 277, 278, 279, 280, 281, 282, 283, 284, 285, 286, 287, 288, 289, 290, 291, 292, 293, 294, 295, 296, 297, 298, 299, 300, 301, 302, 303, 304, 305, 306, 307, 308, 309, 310, 311, 312, 313, 314, 315, 316, 317, 318, 319, 320, 321, 322, 323, 324, 325, 326, 327, 328, 329, 330, 331, 332, 333, 334, 335, 336, 337, 338, 339, 340, 341, 342, 343, 344, 345, 346, 347, 348, 349, 350, 351, 352, 353, 354, 355, 356, 357, 358, 359, 360, 361, 362, 363, 364, 365, 366, 367, 368, 369, 370, 371, 372, 373, 374, 375, 376, 377, 378, 379, 380, 381, 382, 383, 384, 385, 386, 387, 388, 389, 390, 391, 392, 393, 394, 395, 396, 397, 398, 399, 400, 401, 402, 403, 404, 405, 406, 407, 408, 409, 410, 411, 412, 413, 414, 415, 416, 417, 418, 419, 420, 421, 422, 423, 424, 425, 426, 427, 428, 429, 430, 431, 432, 433, 434, 435, 436, 437, 438, 439, 440, 441, 442, 443, 444, 445, 446, 447, 448, 449, 450, 451, 452, 453, 454, 455, 456, 457, 458, 459, 460, 461, 462, 463, 464, 465, 466],
      "AcquisitionTime": ["161355.350000", "161356.840000", "161358.330000", "161359.820000", "161401.310000", "161402.800000", "161404.290000", "161405.780000", "161407.270000", "161408.760000", "161410.250000", "161411.740000", "161413.230000", "161414.720000", "161416.210000", "161417.700000", "161419.190000", "161420.680000", "161422.170000", "161423.660000", "161425.150000", "161426.640000", "161428.130000", "161429.620000", "161431.110000", "161432.600000", "161434.090000", "161435.580000", "161437.070000", "161438.560000", "161440.050000", "161441.540000", "161443.030000", "161444.520000", "161446.010000", "161447.500000", "161448.990000", "161450.480000", "161451.970000", "161453.460000", "161454.950000", "161456.440000", "161457.930000", "161459.420000", "161500.910000", "161502.400000", "161503.890000", "161505.380000", "161506.870000", "161508.360000", "161509.850000", "161511.340000", "161512.830000", "161514.320000", "161515.810000", "161517.300000", "161518.790000", "161520.280000", "161521.770000", "161523.260000", "161524.750000", "161526.240000", "161527.730000", "161529.220000", "161530.710000", "161532.200000", "161533.690000", "161535.180000", "161536.670000", "161538.160000", "161539.650000", "161541.140000", "161542.630000", "161544.120000", "161545.610000", "161547.100000", "161548.590000", "161550.080000", "161551.570000", "161553.060000", "161554.550000", "161556.040000", "161557.530000", "161559.020000", "161600.510000", "161602.000000", "161603.490000", "161604.980000", "161606.470000", "161607.960000", "161609.450000", "161610.940000", "161612.430000", "161613.920000", "161615.410000", "161616.900000", "161618.390000", "161619.880000", "161621.370000", "161622.860000", "161624.350000", "161625.840000", "161627.330000", "161628.820000", "161630.310000", "161631.800000", "161633.290000", "161634.780000", "161636.270000", "161637.760000", "161639.250000", "161640.740000", "161642.230000", "161643.720000", "161645.210000", "161646.700000", "161648.190000", "161649.680000", "161651.170000", "161652.660000", "161654.150000", "161655.640000", "161657.130000", "161658.620000", "161700.110000", "161701.600000", "161703.090000", "161704.580000", "161706.070000", "161707.560000", "161709.050000", "161710.540000", "161712.030000", "161713.520000", "161715.010000", "161716.500000", "161717.990000", "161719.480000", "161720.970000", "161722.460000", "161723.950000", "161725.440000", "161726.930000", "161728.420000", "161729.910000", "161731.400000", "161732.890000", "161734.380000", "161735.870000", "161737.360000", "161738.850000", "161740.340000", "161741.830000", "161743.320000", "161744.810000", "161746.300000", "161747.790000", "161749.280000", "161750.770000", "161752.260000", "161753.750000", "161755.240000", "161756.730000", "161758.220000", "161759.710000", "161801.200000", "161802.690000", "161804.180000", "161805.670000", "161807.160000", "161808.650000", "161810.140000", "161811.630000", "161813.120000", "161814.610000", "161816.100000", "161817.590000", "161819.080000", "161820.570000", "161822.060000", "161823.550000", "161825.040000", "161826.530000", "161828.020000", "161829.510000", "161831.000000", "161832.490000", "161833.980000", "161835.470000", "161836.960000", "161838.450000", "161839.940000", "161841.430000", "161842.920000", "161844.410000", "161845.900000", "161847.390000", "161848.880000", "161850.370000", "161851.860000", "161853.350000", "161854.840000", "161856.330000", "161857.820000", "161859.310000", "161900.800000", "161902.290000", "161903.780000", "161905.270000", "161906.760000", "161908.250000", "161909.740000", "161911.230000", "161912.720000", "161914.210000", "161915.700000", "161917.190000", "161918.680000", "161920.170000", "161921.660000", "161923.150000", "161924.640000", "161926.130000", "161927.620000", "161929.110000", "161930.600000", "161932.090000", "161933.580000", "161935.070000", "161936.560000", "161938.050000", "161939.540000", "161941.030000", "161942.520000", "161944.010000", "161945.500000", "161946.990000", "161948.480000", "161949.970000", "161951.460000", "161952.950000", "161954.440000", "161955.930000", "161957.420000", "161958.910000", "162000.400000", "162001.890000", "162003.380000", "162004.870000", "162006.360000", "162007.850000", "162009.340000", "162010.830000", "162012.320000", "162013.810000", "162015.300000", "162016.790000", "162018.280000", "162019.770000", "162021.260000", "162022.750000", "162024.240000", "162025.730000", "162027.220000", "162028.710000", "162030.200000", "162031.690000", "162033.180000", "162034.670000", "162036.160000", "162037.650000", "162039.140000", "162040.630000", "162042.120000", "162043.610000", "162045.100000", "162046.590000", "162048.080000", "162049.570000", "162051.060000", "162052.550000", "162054.040000", "162055.530000", "162057.020000", "162058.510000", "162100.000000", "162101.490000", "162102.980000", "162104.470000", "162105.960000", "162107.450000", "162108.940000", "162110.430000", "162111.920000", "162113.410000", "162114.900000", "162116.390000", "162117.880000", "162119.370000", "162120.860000", "162122.350000", "162123.840000", "162125.330000", "162126.820000", "162128.310000", "162129.800000", "162131.290000", "162132.780000", "162134.270000", "162135.760000", "162137.250000", "162138.740000", "162140.230000", "162141.720000", "162143.210000", "162144.700000", "162146.190000", "162147.680000", "162149.170000", "162150.660000", "162152.150000", "162153.640000", "162155.130000", "162156.620000", "162158.110000", "162159.600000", "162201.090000", "162202.580000", "162204.070000", "162205.560000", "162207.050000", "162208.540000", "162210.030000", "162211.520000", "162213.010000", "162214.500000", "162215.990000", "162217.480000", "162218.970000", "162220.460000", "162221.950000", "162223.440000", "162224.930000", "162226.420000", "162227.910000", "162229.400000", "162230.890000", "162232.380000", "162233.870000", "162235.360000", "162236.850000", "162238.340000", "162239.830000", "162241.320000", "162242.810000", "162244.300000", "162245.790000", "162247.280000", "162248.770000", "162250.260000", "162251.750000", "162253.240000", "162254.730000", "162256.220000", "162257.710000", "162259.200000", "162300.690000", "162302.180000", "162303.670000", "162305.160000", "162306.650000", "162308.140000", "162309.630000", "162311.120000", "162312.610000", "162314.100000", "162315.590000", "162317.080000", "162318.570000", "162320.060000", "162321.550000", "162323.040000", "162324.530000", "162326.020000", "162327.510000", "162329.000000", "162330.490000", "162331.980000", "162333.470000", "162334.960000", "162336.450000", "162337.940000", "162339.430000", "162340.920000", "162342.410000", "162343.900000", "162345.390000", "162346.880000", "162348.370000", "162349.860000", "162351.350000", "162352.840000", "162354.330000", "162355.820000", "162357.310000", "162358.800000", "162400.290000", "162401.780000", "162403.270000", "162404.760000", "162406.250000", "162407.740000", "162409.230000", "162410.720000", "162412.210000", "162413.700000", "162415.190000", "162416.680000", "162418.170000", "162419.660000", "162421.150000", "162422.640000", "162424.130000", "162425.620000", "162427.110000", "162428.600000", "162430.090000", "162431.580000", "162433.070000", "162434.560000", "162436.050000", "162437.540000", "162439.030000", "162440.520000", "162442.010000", "162443.500000", "162444.990000", "162446.480000", "162447.970000", "162449.460000", "162450.950000", "162452.440000", "162453.930000", "162455.420000", "162456.910000", "162458.400000", "162459.890000", "162501.380000", "162502.870000", "162504.360000", "162505.850000", "162507.340000", "162508.830000", "162510.320000", "162511.810000", "162513.300000", "162514.790000", "162516.280000", "162517.770000", "162519.260000", "162520.750000", "162522.240000", "162523.730000", "162525.220000", "162526.710000", "162528.200000"],
      "ContentTime": ["161501.418000", "161501.422000", "161501.425000", "161501.428000", "161501.432000", "161501.435000", "161501.438000", "161501.442000", "161501.445000", "161501.448000", "161501.452000", "161501.455000", "161501.458000", "161501.462000", "161501.465000", "161501.468000", "161501.471000", "161521.373000", "161521.377000", "161521.380000", "161521.383000", "161521.387000", "161521.390000", "161521.393000", "161521.397000", "161521.400000", "161521.403000", "161521.407000", "161521.410000", "161521.413000", "161521.417000", "161521.420000", "161521.423000", "161521.427000", "161521.430000", "161521.433000", "161521.436000", "161541.373000", "161541.394000", "161541.398000", "161541.401000", "161541.404000", "161541.408000", "161541.411000", "161541.414000", "161541.418000", "161541.421000", "161541.424000", "161541.428000", "161541.431000", "161541.434000", "161541.438000", "161541.441000", "161541.445000", "161541.448000", "161541.451000", "161541.454000", "161601.379000", "161601.383000", "161601.386000", "161601.390000", "161601.393000", "161601.396000", "161601.400000", "161601.403000", "161601.406000", "161601.410000", "161601.413000", "161601.416000", "161601.419000", "161601.423000", "161601.426000", "161601.429000", "161601.440000", "161601.443000", "161601.447000", "161601.451000", "161601.454000", "161641.372000", "161641.376000", "161641.379000", "161641.382000", "161641.394000", "161641.397000", "161641.400000", "161641.404000", "161641.407000", "161641.410000", "161641.414000", "161641.417000", "161641.420000", "161641.424000", "161641.427000", "161641.430000", "161641.434000", "161641.437000", "161641.440000", "161641.444000", "161641.447000", "161641.450000", "161641.454000", "161641.457000", "161641.460000", "161641.464000", "161641.467000", "161641.470000", "161641.474000", "161641.477000", "161641.480000", "161641.484000", "161641.487000", "161721.373000", "161721.377000", "161721.380000", "161721.383000", "161721.387000", "161721.390000", "161721.393000", "161721.397000", "161721.400000", "161721.404000", "161721.407000", "161721.410000", "161721.414000", "161721.417000", "161721.420000", "161721.424000", "161721.427000", "161721.431000", "161721.434000", "161721.437000", "161721.441000", "161721.444000", "161721.447000", "161721.451000", "161721.454000", "161721.457000", "161721.461000", "161801.372000", "161801.376000", "161801.379000", "161801.383000", "161801.386000", "161801.389000", "161801.393000", "161801.396000", "161801.399000", "161801.403000", "161801.406000", "161801.409000", "161801.413000", "161801.416000", "161801.419000", "161801.423000", "161801.426000", "161801.430000", "161801.434000", "161801.447000", "161801.450000", "161801.454000", "161801.457000", "161801.460000", "161801.464000", "161801.467000", "161841.372000", "161841.376000", "161841.379000", "161841.383000", "161841.386000", "161841.389000", "161841.393000", "161841.396000", "161841.399000", "161841.403000", "161841.406000", "161841.410000", "161841.413000", "161841.416000", "161841.420000", "161841.423000", "161841.426000", "161841.430000", "161841.433000", "161841.437000", "161841.440000", "161841.443000", "161841.446000", "161841.450000", "161841.453000", "161841.456000", "161841.460000", "161921.373000", "161921.377000", "161921.380000", "161921.384000", "161921.387000", "161921.390000", "161921.394000", "161921.397000", "161921.400000", "161921.404000", "161921.407000", "161921.410000", "161921.414000", "161921.417000", "161921.420000", "161921.424000", "161921.427000", "161921.431000", "161921.434000", "161921.437000", "161921.441000", "161921.444000", "161921.447000", "161921.451000", "161921.454000", "161921.458000", "161921.462000", "162001.373000", "162001.377000", "162001.380000", "162001.384000", "162001.387000", "162001.390000", "162001.394000", "162001.397000", "162001.400000", "162001.404000", "162001.407000", "162001.410000", "162001.414000", "162001.417000", "162001.420000", "162001.424000", "162001.427000", "162001.431000", "162001.434000", "162001.437000", "162001.441000", "162001.444000", "162001.447000", "162001.451000", "162001.454000", "162001.457000", "162001.461000", "162041.372000", "162041.376000", "162041.379000", "162041.383000", "162041.386000", "162041.389000", "162041.393000", "162041.396000", "162041.400000", "162041.403000", "162041.406000", "162041.410000", "162041.413000", "162041.416000", "162041.420000", "162041.423000", "162041.426000", "162041.430000", "162041.433000", "162041.436000", "162041.440000", "162041.444000", "162041.447000", "162041.451000", "162041.454000", "162041.457000", "162041.461000", "162121.372000", "162121.376000", "162121.379000", "162121.391000", "162121.394000", "162121.398000", "162121.401000", "162121.404000", "162121.408000", "162121.411000", "162121.415000", "162121.418000", "162121.421000", "162121.425000", "162121.428000", "162121.441000", "162121.445000", "162121.448000", "162121.451000", "162121.455000", "162121.458000", "162121.461000", "162121.465000", "162121.468000", "162121.472000", "162121.476000", "162121.479000", "162201.374000", "162201.377000", "162201.381000", "162201.384000", "162201.388000", "162201.391000", "162201.395000", "162201.398000", "162201.402000", "162201.405000", "162201.409000", "162201.412000", "162201.415000", "162201.419000", "162201.422000", "162201.426000", "162201.429000", "162201.432000", "162201.444000", "162201.448000", "162201.451000", "162201.455000", "162201.458000", "162201.461000", "162201.465000", "162201.469000", "162241.372000", "162241.376000", "162241.379000", "162241.383000", "162241.386000", "162241.390000", "162241.393000", "162241.396000", "162241.400000", "162241.403000", "162241.407000", "162241.410000", "162241.414000", "162241.417000", "162241.421000", "162241.425000", "162241.428000", "162241.432000", "162241.435000", "162241.439000", "162241.459000", "162241.462000", "162241.465000", "162241.469000", "162241.472000", "162241.476000", "162241.479000", "162321.372000", "162321.376000", "162321.380000", "162321.383000", "162321.386000", "162321.390000", "162321.393000", "162321.396000", "162321.400000", "162321.403000", "162321.407000", "162321.417000", "162321.420000", "162321.424000", "162321.427000", "162321.431000", "162321.434000", "162321.437000", "162321.441000", "162321.444000", "162321.456000", "162321.460000", "162321.463000", "162321.466000", "162321.470000", "162321.473000", "162321.478000", "162401.373000", "162401.377000", "162401.380000", "162401.383000", "162401.387000", "162401.390000", "162401.394000", "162401.397000", "162401.400000", "162401.404000", "162401.407000", "162401.410000", "162401.414000", "162401.417000", "162401.420000", "162401.424000", "162401.427000", "162401.430000", "162401.434000", "162401.437000", "162401.440000", "162401.444000", "162401.447000", "162401.450000", "162401.454000", "162401.457000", "162401.460000", "162441.373000", "162441.377000", "162441.380000", "162441.384000", "162441.387000", "162441.390000", "162441.394000", "162441.397000", "162441.401000", "162441.404000", "162441.407000", "162441.411000", "162441.414000", "162441.418000", "162441.421000", "162441.425000", "162441.429000", "162441.432000", "162441.436000", "162441.439000", "162441.443000", "162441.446000", "162441.449000", "162441.453000", "162441.456000", "162441.460000", "162441.463000", "162521.372000", "162521.376000", "162521.379000", "162521.383000", "162521.386000", "162521.389000", "162521.393000", "162521.396000", "162521.399000", "162521.403000", "162521.406000", "162521.410000", "162521.413000", "162521.416000", "162521.420000", "162521.423000", "162521.426000", "162521.443000", "162521.447000", "162521.451000", "162521.454000", "162521.457000", "162521.461000", "162521.464000", "162521.468000", "162521.471000", "162521.474000", "162530.864000", "162530.868000", "162530.873000", "162530.878000", "162530.882000", "162530.885000"],
