{
  "AcquisitionMatrixPE": 104,
  "AcquisitionNumber": 1,
  "AcquisitionTime": "11:41:33.130000",
  "BandwidthPerPixelPhaseEncode": 17.17,
  "BaseResolution": 104,
  "BodyPartExamined": "BRAIN",
  "CoilCombinationMethod": "Sum of Squares",
  "ConsistencyInfo": "N4_VE11C_LATEST_20160120",
  "ConversionSoftware": "dcm2niix",
  "ConversionSoftwareVersion": "v1.0.20220505",
  "DerivedVendorReportedEchoSpacing": 0.000560011,
  "DeviceSerialNumber": "167006",
  "DwellTime": 2.1e-06,
  "EchoTime": 0.037,
  "EchoTime1": 0.037,
  "EchoTime2": 0.001,
  "EchoTrainLength": 104,
  "EffectiveEchoSpacing": 0.000560011,
  "FlipAngle": 52,
  "HeudiconvVersion": "0.5.3.post811+g6206e14",
  "ImageComments": "Unaliased MB4/PE3/LB",
  "ImageOrientationPatientDICOM": [0.999183, 0.00983486, 0.039197, 0.011859, 0.855874, -0.517049],
  "ImageOrientationText": "Tra>Cor(-31.2)>Sag(2.2)",
  "ImageType": [
    "ORIGINAL",
    "PRIMARY",
    "P",
    "MB",
    "ND",
    "MOSAIC",
    "PHASE"
],
  "ImagingFrequency": 123.259,
  "InPlanePhaseEncodingDirectionDICOM": "COL",
  "InstitutionAddress": "Chemin Queen-Mary 4565,Montreal,District,CA,H3W 1W5",
  "InstitutionName": "IUGM",
  "InstitutionalDepartmentName": "Department",
  "MRAcquisitionType": "2D",
  "MagneticFieldStrength": 3,
  "Manufacturer": "Siemens",
  "ManufacturersModelName": "Prisma_fit",
  "MatrixCoilMode": "SENSE",
  "Modality": "MR",
  "MultibandAccelerationFactor": 4,
  "PartialFourier": 1,
  "PatientPosition": "HFS",
  "PercentPhaseFOV": 100,
  "PercentSampling": 100,
  "PhaseEncodingDirection": "j",
  "PhaseEncodingSteps": 104,
  "PhaseResolution": 1,
  "PixelBandwidth": 2290,
  "ProcedureStepDescription": "games^mariostars",
  "ProtocolName": "func_task-mariostars_run-02",
  "PulseSequenceDetails": "%CustomerSeq%\\cmrr_mbep2d_bold",
  "ReceiveCoilActiveElements": "HC1-7;NC1,2",
  "ReceiveCoilName": "HeadNeck_64",
  "ReconMatrixPE": 104,
  "RepetitionTime": 1.49,
  "SAR": 0.0505693,
  "ScanOptions": "FS",
  "ScanningSequence": "EP",
  "SequenceName": "epfid2d1_104",
  "SequenceVariant": "SK\\SS",
  "SeriesDescription": "func_task-mariostars_run-02",
  "SeriesNumber": 15,
  "ShimSetting": [623, -7197, -8881, 244, 25, -166, 19, 36],
  "SliceThickness": 2,
  "SliceTiming": [0, 0.7825, 0.0975, 0.8825, 0.195, 0.98, 0.2925, 1.0775, 0.3925, 1.175, 0.49, 1.2725, 0.5875, 1.3725, 0.685, 0, 0.7825, 0.0975, 0.8825, 0.195, 0.98, 0.2925, 1.0775, 0.3925, 1.175, 0.49, 1.2725, 0.5875, 1.3725, 0.685, 0, 0.7825, 0.0975, 0.8825, 0.195, 0.98, 0.2925, 1.0775, 0.3925, 1.175, 0.49, 1.2725, 0.5875, 1.3725, 0.685, 0, 0.7825, 0.0975, 0.8825, 0.195, 0.98, 0.2925, 1.0775, 0.3925, 1.175, 0.49, 1.2725, 0.5875, 1.3725, 0.685],
  "SoftwareVersions": "syngo MR E11",
  "SpacingBetweenSlices": 2,
  "StationName": "MRC35049",
  "TaskName": "mariostars",
  "TotalReadoutTime": 0.0576811,
  "TxRefAmp": 263.407,
  "WipMemBlock": "f67c544e-866c-47b9-8b5a-a4a9685189f1||Sequence: R017 ve11c/master r/75a17815+; Jun 28 2022 16:32:11 by eja",
  "dcmmeta_affine": [
    [-1.9983662366867065, 0.0237180944532156, 0.07726556807756424, 104.42195129394531],
    [-0.01966971904039383, 1.711747646331787, -1.0341824293136597, -48.509368896484375],
    [0.07839399576187134, 1.03409743309021, 1.7101160287857056, -93.5775375366211],
    [0.0, 0.0, 0.0, 1.0]
],
  "dcmmeta_reorient_transform": [
    [0.0, -1.0, 0.0, 103.0],
    [1.0, 0.0, 0.0, 0.0],
    [0.0, 0.0, 1.0, 0.0],
    [0.0, 0.0, 0.0, 1.0]
],
  "dcmmeta_shape": [104, 104, 60, 445],
  "dcmmeta_slice_dim": 2,
  "dcmmeta_version": 0.6,
  "global": {
    "const": {
      "AcquisitionMatrix": [104, 0, 0, 104],
      "AngioFlag": "N",
      "BitsAllocated": 16,
      "BitsStored": 16,
      "BodyPartExamined": "BRAIN",
      "Columns": 832,
      "EchoNumbers": 1,
      "EchoTime": 37.0,
      "EchoTrainLength": 104,
      "FlipAngle": 52.0,
      "HighBit": 15,
      "ImageOrientationPatient": [0.99918310179325, 0.00983485964581, 0.039196997673, 0.01185904716641, 0.85587380137197, -0.5170487396033],
      "ImagePositionPatient": [-842.90360111849, -758.03653940796, 360.8105719545],
      "ImageType": [
        "ORIGINAL",
        "PRIMARY",
        "P",
        "MB",
        "ND",
        "MOSAIC"
],
      "ImagedNucleus": "1H",
      "ImagingFrequency": 123.259019,
      "InPlanePhaseEncodingDirection": "COL",
      "LargestImagePixelValue": 4095,
      "MRAcquisitionType": "2D",
      "MagneticFieldStrength": 3.0,
      "Manufacturer": "SIEMENS",
      "ManufacturerModelName": "Prisma_fit",
      "Modality": "MR",
      "NumberOfAverages": 1.0,
      "NumberOfPhaseEncodingSteps": 104,
      "PercentPhaseFieldOfView": 100.0,
      "PercentSampling": 100.0,
      "PerformedProcedureStepStartTime": "112506.103000",
      "PhotometricInterpretation": "MONOCHROME2",
      "PixelBandwidth": 2290.0,
      "PixelRepresentation": 0,
      "PixelSpacing": [2.0, 2.0],
      "ProtocolName": "func_task-mariostars_run-02",
      "RepetitionTime": 1490.0,
      "RescaleIntercept": -4096.0,
      "RescaleSlope": 2.0,
      "RescaleType": "US",
      "Rows": 832,
      "SAR": 0.05056933773866,
      "SamplesPerPixel": 1,
      "ScanOptions": "FS",
      "ScanningSequence": "EP",
      "SequenceName": "epfid2d1_104",
      "SequenceVariant": [
        "SK",
        "SS"
],
      "SeriesDescription": "func_task-mariostars_run-02",
      "SeriesNumber": 15,
      "SeriesTime": "114235.982000",
      "SliceLocation": -50.89634316445,
      "SliceThickness": 2.0,
      "SmallestImagePixelValue": 0,
      "SoftwareVersions": "syngo MR E11",
      "SpacingBetweenSlices": 1.9999999688152,
      "SpecificCharacterSet": "ISO_IR 100",
      "StudyID": "1",
      "StudyTime": "112506.017000",
      "TransmitCoilName": "Body",
      "VariableFlipAngleFlag": "N",
      "WindowCenterWidthExplanation": "Algo1",
      "dBdt": 0.0},
    "slices": {}
  },
  "time": {
    "samples": {
      "AcquisitionNumber": [1, 2, 3, 4, 5, 6, 7, 8, 9, 10, 11, 12, 13, 14, 15, 16, 17, 18, 19, 20, 21, 22, 23, 24, 25, 26, 27, 28, 29, 30, 31, 32, 33, 34, 35, 36, 37, 38, 39, 40, 41, 42, 43, 44, 45, 46, 47, 48, 49, 50, 51, 52, 53, 54, 55, 56, 57, 58, 59, 60, 61, 62, 63, 64, 65, 66, 67, 68, 69, 70, 71, 72, 73, 74, 75, 76, 77, 78, 79, 80, 81, 82, 83, 84, 85, 86, 87, 88, 89, 90, 91, 92, 93, 94, 95, 96, 97, 98, 99, 100, 101, 102, 103, 104, 105, 106, 107, 108, 109, 110, 111, 112, 113, 114, 115, 116, 117, 118, 119, 120, 121, 122, 123, 124, 125, 126, 127, 128, 129, 130, 131, 132, 133, 134, 135, 136, 137, 138, 139, 140, 141, 142, 143, 144, 145, 146, 147, 148, 149, 150, 151, 152, 153, 154, 155, 156, 157, 158, 159, 160, 161, 162, 163, 164, 165, 166, 167, 168, 169, 170, 171, 172, 173, 174, 175, 176, 177, 178, 179, 180, 181, 182, 183, 184, 185, 186, 187, 188, 189, 190, 191, 192, 193, 194, 195, 196, 197, 198, 199, 200, 201, 202, 203, 204, 205, 206, 207, 208, 209, 210, 211, 212, 213, 214, 215, 216, 217, 218, 219, 220, 221, 222, 223, 224, 225, 226, 227, 228, 229, 230, 231, 232, 233, 234, 235, 236, 237, 238, 239, 240, 241, 242, 243, 244, 245, 246, 247, 248, 249, 250, 251, 252, 253, 254, 255, 256, 257, 258, 259, 260, 261, 262, 263, 264, 265, 266, 267, 268, 269, 270, 271, 272, 273, 274, 275, 276, 277, 278, 279, 280, 281, 282, 283, 284, 285, 286, 287, 288, 289, 290, 291, 292, 293, 294, 295, 296, 297, 298, 299, 300, 301, 302, 303, 304, 305, 306, 307, 308, 309, 310, 311, 312, 313, 314, 315, 316, 317, 318, 319, 320, 321, 322, 323, 324, 325, 326, 327, 328, 329, 330, 331, 332, 333, 334, 335, 336, 337, 338, 339, 340, 341, 342, 343, 344, 345, 346, 347, 348, 349, 350, 351, 352, 353, 354, 355, 356, 357, 358, 359, 360, 361, 362, 363, 364, 365, 366, 367, 368, 369, 370, 371, 372, 373, 374, 375, 376, 377, 378, 379, 380, 381, 382, 383, 384, 385, 386, 387, 388, 389, 390, 391, 392, 393, 394, 395, 396, 397, 398, 399, 400, 401, 402, 403, 404, 405, 406, 407, 408, 409, 410, 411, 412, 413, 414, 415, 416, 417, 418, 419, 420, 421, 422, 423, 424, 425, 426, 427, 428, 429, 430, 431, 432, 433, 434, 435, 436, 437, 438, 439, 440, 441, 442, 443, 444, 445],
      "AcquisitionTime": ["114133.130000", "114134.620000", "114136.110000", "114137.600000", "114139.090000", "114140.580000", "114142.070000", "114143.560000", "114145.050000", "114146.540000", "114148.030000", "114149.520000", "114151.010000", "114152.500000", "114153.990000", "114155.480000", "114156.970000", "114158.460000", "114159.950000", "114201.440000", "114202.930000", "114204.420000", "114205.910000", "114207.400000", "114208.890000", "114210.380000", "114211.870000", "114213.360000", "114214.850000", "114216.340000", "114217.830000", "114219.320000", "114220.810000", "114222.300000", "114223.790000", "114225.280000", "114226.770000", "114228.260000", "114229.750000", "114231.240000", "114232.730000", "114234.220000", "114235.710000", "114237.200000", "114238.690000", "114240.180000", "114241.670000", "114243.160000", "114244.650000", "114246.140000", "114247.630000", "114249.120000", "114250.610000", "114252.100000", "114253.590000", "114255.080000", "114256.570000", "114258.060000", "114259.550000", "114301.040000", "114302.530000", "114304.020000", "114305.510000", "114307.000000", "114308.490000", "114309.980000", "114311.470000", "114312.960000", "114314.450000", "114315.940000", "114317.430000", "114318.920000", "114320.410000", "114321.900000", "114323.390000", "114324.880000", "114326.370000", "114327.860000", "114329.350000", "114330.840000", "114332.330000", "114333.820000", "114335.310000", "114336.800000", "114338.290000", "114339.780000", "114341.270000", "114342.760000", "114344.250000", "114345.740000", "114347.230000", "114348.720000", "114350.210000", "114351.700000", "114353.190000", "114354.680000", "114356.170000", "114357.660000", "114359.150000", "114400.640000", "114402.130000", "114403.620000", "114405.110000", "114406.600000", "114408.090000", "114409.580000", "114411.070000", "114412.560000", "114414.050000", "114415.540000", "114417.030000", "114418.520000", "114420.010000", "114421.500000", "114422.990000", "114424.480000", "114425.970000", "114427.460000", "114428.950000", "114430.440000", "114431.930000", "114433.420000", "114434.910000", "114436.400000", "114437.890000", "114439.380000", "114440.870000", "114442.360000", "114443.850000", "114445.340000", "114446.830000", "114448.320000", "114449.810000", "114451.300000", "114452.790000", "114454.280000", "114455.770000", "114457.260000", "114458.750000", "114500.240000", "114501.730000", "114503.220000", "114504.710000", "114506.200000", "114507.690000", "114509.180000", "114510.670000", "114512.160000", "114513.650000", "114515.140000", "114516.630000", "114518.120000", "114519.610000", "114521.100000", "114522.590000", "114524.080000", "114525.570000", "114527.060000", "114528.550000", "114530.040000", "114531.530000", "114533.020000", "114534.510000", "114536.000000", "114537.490000", "114538.980000", "114540.470000", "114541.960000", "114543.450000", "114544.940000", "114546.430000", "114547.920000", "114549.410000", "114550.900000", "114552.390000", "114553.880000", "114555.370000", "114556.860000", "114558.350000", "114559.840000", "114601.330000", "114602.820000", "114604.310000", "114605.800000", "114607.290000", "114608.780000", "114610.270000", "114611.760000", "114613.250000", "114614.740000", "114616.230000", "114617.720000", "114619.210000", "114620.700000", "114622.190000", "114623.680000", "114625.170000", "114626.660000", "114628.150000", "114629.640000", "114631.130000", "114632.620000", "114634.110000", "114635.600000", "114637.090000", "114638.580000", "114640.070000", "114641.560000", "114643.050000", "114644.540000", "114646.030000", "114647.520000", "114649.010000", "114650.500000", "114651.990000", "114653.480000", "114654.970000", "114656.460000", "114657.950000", "114659.440000", "114700.930000", "114702.420000", "114703.910000", "114705.400000", "114706.890000", "114708.380000", "114709.870000", "114711.360000", "114712.850000", "114714.340000", "114715.830000", "114717.320000", "114718.810000", "114720.300000", "114721.790000", "114723.280000", "114724.770000", "114726.260000", "114727.750000", "114729.240000", "114730.730000", "114732.220000", "114733.710000", "114735.200000", "114736.690000", "114738.180000", "114739.670000", "114741.160000", "114742.650000", "114744.140000", "114745.630000", "114747.120000", "114748.610000", "114750.100000", "114751.590000", "114753.080000", "114754.570000", "114756.060000", "114757.550000", "114759.040000", "114800.530000", "114802.020000", "114803.510000", "114805.000000", "114806.490000", "114807.980000", "114809.470000", "114810.960000", "114812.450000", "114813.940000", "114815.430000", "114816.920000", "114818.410000", "114819.900000", "114821.390000", "114822.880000", "114824.370000", "114825.860000", "114827.350000", "114828.840000", "114830.330000", "114831.820000", "114833.310000", "114834.800000", "114836.290000", "114837.780000", "114839.270000", "114840.760000", "114842.250000", "114843.740000", "114845.230000", "114846.720000", "114848.210000", "114849.700000", "114851.190000", "114852.680000", "114854.170000", "114855.660000", "114857.150000", "114858.640000", "114900.130000", "114901.620000", "114903.110000", "114904.600000", "114906.090000", "114907.580000", "114909.070000", "114910.560000", "114912.050000", "114913.540000", "114915.030000", "114916.520000", "114918.010000", "114919.500000", "114920.990000", "114922.480000", "114923.970000", "114925.460000", "114926.950000", "114928.440000", "114929.930000", "114931.420000", "114932.910000", "114934.400000", "114935.890000", "114937.380000", "114938.870000", "114940.360000", "114941.850000", "114943.340000", "114944.830000", "114946.320000", "114947.810000", "114949.300000", "114950.790000", "114952.280000", "114953.770000", "114955.260000", "114956.750000", "114958.240000", "114959.730000", "115001.220000", "115002.710000", "115004.200000", "115005.690000", "115007.180000", "115008.670000", "115010.160000", "115011.650000", "115013.140000", "115014.630000", "115016.120000", "115017.610000", "115019.100000", "115020.590000", "115022.080000", "115023.570000", "115025.060000", "115026.550000", "115028.040000", "115029.530000", "115031.020000", "115032.510000", "115034.000000", "115035.490000", "115036.980000", "115038.470000", "115039.960000", "115041.450000", "115042.940000", "115044.430000", "115045.920000", "115047.410000", "115048.900000", "115050.390000", "115051.880000", "115053.370000", "115054.860000", "115056.350000", "115057.840000", "115059.330000", "115100.820000", "115102.310000", "115103.800000", "115105.290000", "115106.780000", "115108.270000", "115109.760000", "115111.250000", "115112.740000", "115114.230000", "115115.720000", "115117.210000", "115118.700000", "115120.190000", "115121.680000", "115123.170000", "115124.660000", "115126.150000", "115127.640000", "115129.130000", "115130.620000", "115132.110000", "115133.600000", "115135.090000", "115136.580000", "115138.070000", "115139.560000", "115141.050000", "115142.540000", "115144.030000", "115145.520000", "115147.010000", "115148.500000", "115149.990000", "115151.480000", "115152.970000", "115154.460000", "115155.950000", "115157.440000", "115158.930000", "115200.420000", "115201.910000", "115203.400000", "115204.890000", "115206.380000", "115207.870000", "115209.360000", "115210.850000", "115212.340000", "115213.830000", "115215.320000", "115216.810000", "115218.300000", "115219.790000", "115221.280000", "115222.770000", "115224.260000", "115225.750000", "115227.240000", "115228.730000", "115230.220000", "115231.710000", "115233.200000", "115234.690000"],
      "ContentTime": ["114235.984000", "114235.987000", "114235.990000", "114235.993000", "114235.995000", "114235.998000", "114236.001000", "114236.003000", "114236.006000", "114236.009000", "114236.011000", "114236.014000", "114236.016000", "114236.019000", "114256.502000", "114256.505000", "114256.507000", "114256.510000", "114256.512000", "114256.515000", "114256.517000", "114256.520000", "114256.522000", "114256.525000", "114256.527000", "114256.530000", "114256.532000", "114256.535000", "114256.537000", "114256.540000", "114256.542000", "114256.545000", "114256.547000", "114256.550000", "114315.953000", "114315.955000", "114315.958000", "114315.961000", "114315.963000", "114315.966000", "114315.968000", "114315.971000", "114315.973000", "114315.976000", "114315.978000", "114315.981000", "114315.984000", "114315.986000", "114315.989000", "114315.991000", "114315.994000", "114315.996000", "114316.000000", "114316.002000", "114335.946000", "114335.949000", "114335.952000", "114335.954000", "114335.957000", "114335.959000", "114335.962000", "114335.964000", "114335.967000", "114335.969000", "114335.972000", "114335.974000", "114335.977000", "114335.980000", "114335.982000", "114335.985000", "114335.987000", "114335.990000", "114335.992000", "114335.995000", "114355.951000", "114355.954000", "114355.957000", "114355.959000", "114355.962000", "114355.964000", "114355.967000", "114355.969000", "114355.972000", "114355.975000", "114355.977000", "114355.980000", "114355.983000", "114355.985000", "114355.988000", "114355.990000", "114355.993000", "114355.996000", "114355.998000", "114356.002000", "114435.988000", "114435.991000", "114435.994000", "114435.996000", "114436.000000", "114436.003000", "114436.005000", "114436.008000", "114436.010000", "114436.013000", "114436.015000", "114436.018000", "114436.020000", "114436.023000", "114436.025000", "114436.028000", "114436.030000", "114436.033000", "114436.035000", "114436.038000", "114436.040000", "114436.043000", "114436.046000", "114436.048000", "114436.051000", "114436.054000", "114436.056000", "114436.059000", "114515.980000", "114515.984000", "114515.988000", "114515.990000", "114515.993000", "114515.997000", "114516.001000", "114516.003000", "114516.006000", "114516.009000", "114516.011000", "114516.014000", "114516.016000", "114516.019000", "114516.021000", "114516.024000", "114516.026000", "114516.029000", "114516.031000", "114516.034000", "114516.036000", "114516.039000", "114516.042000", "114516.044000", "114516.047000", "114516.049000", "114555.993000", "114555.996000", "114555.998000", "114556.002000", "114556.005000", "114556.007000", "114556.010000", "114556.012000", "114556.015000", "114556.017000", "114556.020000", "114556.022000", "114556.025000", "114556.027000", "114556.030000", "114556.032000", "114556.035000", "114556.038000", "114556.040000", "114556.043000", "114556.045000", "114556.048000", "114556.050000", "114556.053000", "114556.056000", "114556.058000", "114556.061000", "114635.983000", "114635.986000", "114635.989000", "114635.991000", "114635.994000", "114635.996000", "114636.000000", "114636.002000", "114636.005000", "114636.007000", "114636.010000", "114636.012000", "114636.015000", "114636.018000", "114636.020000", "114636.023000", "114636.037000", "114636.040000", "114636.042000", "114636.045000", "114636.047000", "114636.050000", "114636.052000", "114636.055000", "114636.057000", "114636.060000", "114636.062000", "114715.980000", "114715.983000", "114715.985000", "114715.988000", "114715.990000", "114715.993000", "114715.995000", "114715.998000", "114716.002000", "114716.004000", "114716.007000", "114716.009000", "114716.012000", "114716.015000", "114716.017000", "114716.020000", "114716.022000", "114716.025000", "114716.027000", "114716.030000", "114716.032000", "114716.035000", "114716.037000", "114716.040000", "114716.043000", "114716.045000", "114716.048000", "114755.977000", "114755.980000", "114755.982000", "114755.985000", "114755.988000", "114755.990000", "114755.993000", "114755.995000", "114756.003000", "114756.005000", "114756.008000", "114756.011000", "114756.013000", "114756.016000", "114756.018000", "114756.021000", "114756.023000", "114756.026000", "114756.028000", "114756.031000", "114756.033000", "114756.036000", "114756.038000", "114756.041000", "114756.043000", "114756.046000", "114756.048000", "114835.985000", "114835.988000", "114835.991000", "114835.993000", "114835.996000", "114836.000000", "114836.002000", "114836.005000", "114836.007000", "114836.010000", "114836.013000", "114836.015000", "114836.018000", "114836.020000", "114836.023000", "114836.026000", "114836.028000", "114836.031000", "114836.033000", "114836.036000", "114836.038000", "114836.041000", "114836.043000", "114836.046000", "114836.049000", "114836.051000", "114836.054000", "114916.004000", "114916.007000", "114916.010000", "114916.013000", "114916.015000", "114916.018000", "114916.020000", "114916.023000", "114916.025000", "114916.028000", "114916.030000", "114916.033000", "114916.036000", "114916.038000", "114916.041000", "114916.043000", "114916.046000", "114916.048000", "114916.051000", "114916.054000", "114916.056000", "114916.059000", "114916.061000", "114916.064000", "114916.066000", "114916.069000", "114955.984000", "114955.986000", "114955.989000", "114955.992000", "114955.994000", "114955.997000", "114956.000000", "114956.003000", "114956.005000", "114956.016000", "114956.019000", "114956.022000", "114956.024000", "114956.027000", "114956.030000", "114956.033000", "114956.036000", "114956.038000", "114956.041000", "114956.043000", "114956.046000", "114956.048000", "114956.051000", "114956.053000", "114956.056000", "114956.058000", "114956.061000", "115035.981000", "115035.984000", "115035.987000", "115035.989000", "115035.992000", "115035.994000", "115035.997000", "115036.001000", "115036.004000", "115036.006000", "115036.009000", "115036.011000", "115036.014000", "115036.017000", "115036.019000", "115036.022000", "115036.025000", "115036.028000", "115036.031000", "115036.033000", "115036.036000", "115036.039000", "115036.042000", "115036.045000", "115036.048000", "115036.051000", "115036.053000", "115055.939000", "115055.942000", "115055.944000", "115055.947000", "115055.949000", "115055.952000", "115055.955000", "115055.957000", "115055.960000", "115055.962000", "115055.965000", "115055.968000", "115055.970000", "115055.973000", "115135.998000", "115136.002000", "115136.005000", "115136.007000", "115136.010000", "115136.012000", "115136.015000", "115136.017000", "115136.020000", "115136.022000", "115136.025000", "115136.028000", "115136.030000", "115136.033000", "115136.035000", "115136.038000", "115136.040000", "115136.043000", "115136.045000", "115136.048000", "115136.050000", "115136.053000", "115136.056000", "115136.058000", "115136.061000", "115136.063000", "115215.979000", "115215.982000", "115215.985000", "115215.987000", "115215.990000", "115215.992000", "115215.995000", "115215.997000", "115216.000000", "115216.002000", "115216.005000", "115216.007000", "115216.010000", "115216.013000", "115216.015000", "115216.018000", "115216.020000", "115216.023000", "115216.026000", "115216.028000", "115216.031000", "115216.034000", "115216.037000", "115216.039000", "115216.042000", "115216.044000", "115216.047000", "115237.273000", "115237.276000", "115237.279000", "115237.281000", "115237.284000", "115237.286000", "115237.289000", "115237.292000", "115237.295000", "115237.297000", "115237.300000", "115237.302000", "115237.305000", "115237.308000", "115237.311000"],
