{
  "AcquisitionMatrixPE": 104,
  "AcquisitionNumber": 1,
  "AcquisitionTime": "11:41:33.130000",
  "BandwidthPerPixelPhaseEncode": 17.17,
  "BaseResolution": 104,
  "BodyPartExamined": "BRAIN",
  "CoilCombinationMethod": "Sum of Squares",
  "ConsistencyInfo": "N4_VE11C_LATEST_20160120",
  "ConversionSoftware": "dcm2niix",
  "ConversionSoftwareVersion": "v1.0.20220505",
  "DerivedVendorReportedEchoSpacing": 0.000560011,
  "DeviceSerialNumber": "167006",
  "DwellTime": 2.1e-06,
  "EchoTime": 0.037,
  "EchoTrainLength": 104,
  "EffectiveEchoSpacing": 0.000560011,
  "FlipAngle": 52,
  "HeudiconvVersion": "0.5.3.post811+g6206e14",
  "ImageComments": "Unaliased MB4/PE3/LB",
  "ImageOrientationPatientDICOM": [0.999183, 0.00983486, 0.039197, 0.011859, 0.855874, -0.517049],
  "ImageOrientationText": "Tra>Cor(-31.2)>Sag(2.2)",
  "ImageType": [
    "ORIGINAL",
    "PRIMARY",
    "M",
    "MB",
    "ND",
    "MOSAIC"
],
  "ImagingFrequency": 123.259,
  "InPlanePhaseEncodingDirectionDICOM": "COL",
  "InstitutionAddress": "Chemin Queen-Mary 4565,Montreal,District,CA,H3W 1W5",
  "InstitutionName": "IUGM",
  "InstitutionalDepartmentName": "Department",
  "MRAcquisitionType": "2D",
  "MagneticFieldStrength": 3,
  "Manufacturer": "Siemens",
  "ManufacturersModelName": "Prisma_fit",
  "MatrixCoilMode": "SENSE",
  "Modality": "MR",
  "MultibandAccelerationFactor": 4,
  "PartialFourier": 1,
  "PatientPosition": "HFS",
  "PercentPhaseFOV": 100,
  "PercentSampling": 100,
  "PhaseEncodingDirection": "j",
  "PhaseEncodingSteps": 104,
  "PhaseResolution": 1,
  "PixelBandwidth": 2290,
  "ProcedureStepDescription": "games^mariostars",
  "ProtocolName": "func_task-mariostars_run-02",
  "PulseSequenceDetails": "%CustomerSeq%\\cmrr_mbep2d_bold",
  "ReceiveCoilActiveElements": "HC1-7;NC1,2",
  "ReceiveCoilName": "HeadNeck_64",
  "ReconMatrixPE": 104,
  "RepetitionTime": 1.49,
  "SAR": 0.0505693,
  "ScanOptions": "FS",
  "ScanningSequence": "EP",
  "SequenceName": "epfid2d1_104",
  "SequenceVariant": "SK\\SS",
  "SeriesDescription": "func_task-mariostars_run-02",
  "SeriesNumber": 14,
  "ShimSetting": [623, -7197, -8881, 244, 25, -166, 19, 36],
  "SliceThickness": 2,
  "SliceTiming": [0, 0.7825, 0.0975, 0.8825, 0.195, 0.98, 0.2925, 1.0775, 0.3925, 1.175, 0.49, 1.2725, 0.5875, 1.3725, 0.685, 0, 0.7825, 0.0975, 0.8825, 0.195, 0.98, 0.2925, 1.0775, 0.3925, 1.175, 0.49, 1.2725, 0.5875, 1.3725, 0.685, 0, 0.7825, 0.0975, 0.8825, 0.195, 0.98, 0.2925, 1.0775, 0.3925, 1.175, 0.49, 1.2725, 0.5875, 1.3725, 0.685, 0, 0.7825, 0.0975, 0.8825, 0.195, 0.98, 0.2925, 1.0775, 0.3925, 1.175, 0.49, 1.2725, 0.5875, 1.3725, 0.685],
  "SoftwareVersions": "syngo MR E11",
  "SpacingBetweenSlices": 2,
  "StationName": "MRC35049",
  "TaskName": "mariostars",
  "TotalReadoutTime": 0.0576811,
  "TxRefAmp": 263.407,
  "WipMemBlock": "f67c544e-866c-47b9-8b5a-a4a9685189f1||Sequence: R017 ve11c/master r/75a17815+; Jun 28 2022 16:32:11 by eja",
  "dcmmeta_affine": [
    [-1.9983662366867065, 0.0237180944532156, 0.07726556807756424, 104.42195129394531],
    [-0.01966971904039383, 1.711747646331787, -1.0341824293136597, -48.509368896484375],
    [0.07839399576187134, 1.03409743309021, 1.7101160287857056, -93.5775375366211],
    [0.0, 0.0, 0.0, 1.0]
],
  "dcmmeta_reorient_transform": [
    [0.0, -1.0, 0.0, 103.0],
    [1.0, 0.0, 0.0, 0.0],
    [0.0, 0.0, 1.0, 0.0],
    [0.0, 0.0, 0.0, 1.0]
],
  "dcmmeta_shape": [104, 104, 60, 445],
  "dcmmeta_slice_dim": 2,
  "dcmmeta_version": 0.6,
  "global": {
    "const": {
      "AcquisitionMatrix": [104, 0, 0, 104],
      "AngioFlag": "N",
      "BitsAllocated": 16,
      "BitsStored": 16,
      "BodyPartExamined": "BRAIN",
      "Columns": 832,
      "EchoNumbers": 1,
      "EchoTime": 37.0,
      "EchoTrainLength": 104,
      "FlipAngle": 52.0,
      "HighBit": 15,
      "ImageOrientationPatient": [0.99918310179325, 0.00983485964581, 0.039196997673, 0.01185904716641, 0.85587380137197, -0.5170487396033],
      "ImagePositionPatient": [-842.90360111849, -758.03653940796, 360.8105719545],
      "ImageType": [
        "ORIGINAL",
        "PRIMARY",
        "M",
        "MB",
        "ND",
        "MOSAIC"
],
      "ImagedNucleus": "1H",
      "ImagingFrequency": 123.259019,
      "InPlanePhaseEncodingDirection": "COL",
      "MRAcquisitionType": "2D",
      "MagneticFieldStrength": 3.0,
      "Manufacturer": "SIEMENS",
      "ManufacturerModelName": "Prisma_fit",
      "Modality": "MR",
      "NumberOfAverages": 1.0,
      "NumberOfPhaseEncodingSteps": 104,
      "PercentPhaseFieldOfView": 100.0,
      "PercentSampling": 100.0,
      "PerformedProcedureStepStartTime": "112506.103000",
      "PhotometricInterpretation": "MONOCHROME2",
      "PixelBandwidth": 2290.0,
      "PixelRepresentation": 0,
      "PixelSpacing": [2.0, 2.0],
      "ProtocolName": "func_task-mariostars_run-02",
      "RepetitionTime": 1490.0,
      "Rows": 832,
      "SAR": 0.05056933773866,
      "SamplesPerPixel": 1,
      "ScanOptions": "FS",
      "ScanningSequence": "EP",
      "SequenceName": "epfid2d1_104",
      "SequenceVariant": [
        "SK",
        "SS"
],
      "SeriesDescription": "func_task-mariostars_run-02",
      "SeriesNumber": 14,
      "SeriesTime": "114235.866000",
      "SliceLocation": -50.89634316445,
      "SliceThickness": 2.0,
      "SmallestImagePixelValue": 0,
      "SoftwareVersions": "syngo MR E11",
      "SpacingBetweenSlices": 1.9999999688152,
      "SpecificCharacterSet": "ISO_IR 100",
      "StudyID": "1",
      "StudyTime": "112506.017000",
      "TransmitCoilName": "Body",
      "VariableFlipAngleFlag": "N",
      "WindowCenterWidthExplanation": "Algo1",
      "dBdt": 0.0},
    "slices": {}
  },
  "time": {
    "samples": {
      "AcquisitionNumber": [1, 2, 3, 4, 5, 6, 7, 8, 9, 10, 11, 12, 13, 14, 15, 16, 17, 18, 19, 20, 21, 22, 23, 24, 25, 26, 27, 28, 29, 30, 31, 32, 33, 34, 35, 36, 37, 38, 39, 40, 41, 42, 43, 44, 45, 46, 47, 48, 49, 50, 51, 52, 53, 54, 55, 56, 57, 58, 59, 60, 61, 62, 63, 64, 65, 66, 67, 68, 69, 70, 71, 72, 73, 74, 75, 76, 77, 78, 79, 80, 81, 82, 83, 84, 85, 86, 87, 88, 89, 90, 91, 92, 93, 94, 95, 96, 97, 98, 99, 100, 101, 102, 103, 104, 105, 106, 107, 108, 109, 110, 111, 112, 113, 114, 115, 116, 117, 118, 119, 120, 121, 122, 123, 124, 125, 126, 127, 128, 129, 130, 131, 132, 133, 134, 135, 136, 137, 138, 139, 140, 141, 142, 143, 144, 145, 146, 147, 148, 149, 150, 151, 152, 153, 154, 155, 156, 157, 158, 159, 160, 161, 162, 163, 164, 165, 166, 167, 168, 169, 170, 171, 172, 173, 174, 175, 176, 177, 178, 179, 180, 181, 182, 183, 184, 185, 186, 187, 188, 189, 190, 191, 192, 193, 194, 195, 196, 197, 198, 199, 200, 201, 202, 203, 204, 205, 206, 207, 208, 209, 210, 211, 212, 213, 214, 215, 216, 217, 218, 219, 220, 221, 222, 223, 224, 225, 226, 227, 228, 229, 230, 231, 232, 233, 234, 235, 236, 237, 238, 239, 240, 241, 242, 243, 244, 245, 246, 247, 248, 249, 250, 251, 252, 253, 254, 255, 256, 257, 258, 259, 260, 261, 262, 263, 264, 265, 266, 267, 268, 269, 270, 271, 272, 273, 274, 275, 276, 277, 278, 279, 280, 281, 282, 283, 284, 285, 286, 287, 288, 289, 290, 291, 292, 293, 294, 295, 296, 297, 298, 299, 300, 301, 302, 303, 304, 305, 306, 307, 308, 309, 310, 311, 312, 313, 314, 315, 316, 317, 318, 319, 320, 321, 322, 323, 324, 325, 326, 327, 328, 329, 330, 331, 332, 333, 334, 335, 336, 337, 338, 339, 340, 341, 342, 343, 344, 345, 346, 347, 348, 349, 350, 351, 352, 353, 354, 355, 356, 357, 358, 359, 360, 361, 362, 363, 364, 365, 366, 367, 368, 369, 370, 371, 372, 373, 374, 375, 376, 377, 378, 379, 380, 381, 382, 383, 384, 385, 386, 387, 388, 389, 390, 391, 392, 393, 394, 395, 396, 397, 398, 399, 400, 401, 402, 403, 404, 405, 406, 407, 408, 409, 410, 411, 412, 413, 414, 415, 416, 417, 418, 419, 420, 421, 422, 423, 424, 425, 426, 427, 428, 429, 430, 431, 432, 433, 434, 435, 436, 437, 438, 439, 440, 441, 442, 443, 444, 445],
      "AcquisitionTime": ["114133.130000", "114134.620000", "114136.110000", "114137.600000", "114139.090000", "114140.580000", "114142.070000", "114143.560000", "114145.050000", "114146.540000", "114148.030000", "114149.520000", "114151.010000", "114152.500000", "114153.990000", "114155.480000", "114156.970000", "114158.460000", "114159.950000", "114201.440000", "114202.930000", "114204.420000", "114205.910000", "114207.400000", "114208.890000", "114210.380000", "114211.870000", "114213.360000", "114214.850000", "114216.340000", "114217.830000", "114219.320000", "114220.810000", "114222.300000", "114223.790000", "114225.280000", "114226.770000", "114228.260000", "114229.750000", "114231.240000", "114232.730000", "114234.220000", "114235.710000", "114237.200000", "114238.690000", "114240.180000", "114241.670000", "114243.160000", "114244.650000", "114246.140000", "114247.630000", "114249.120000", "114250.610000", "114252.100000", "114253.590000", "114255.080000", "114256.570000", "114258.060000", "114259.550000", "114301.040000", "114302.530000", "114304.020000", "114305.510000", "114307.000000", "114308.490000", "114309.980000", "114311.470000", "114312.960000", "114314.450000", "114315.940000", "114317.430000", "114318.920000", "114320.410000", "114321.900000", "114323.390000", "114324.880000", "114326.370000", "114327.860000", "114329.350000", "114330.840000", "114332.330000", "114333.820000", "114335.310000", "114336.800000", "114338.290000", "114339.780000", "114341.270000", "114342.760000", "114344.250000", "114345.740000", "114347.230000", "114348.720000", "114350.210000", "114351.700000", "114353.190000", "114354.680000", "114356.170000", "114357.660000", "114359.150000", "114400.640000", "114402.130000", "114403.620000", "114405.110000", "114406.600000", "114408.090000", "114409.580000", "114411.070000", "114412.560000", "114414.050000", "114415.540000", "114417.030000", "114418.520000", "114420.010000", "114421.500000", "114422.990000", "114424.480000", "114425.970000", "114427.460000", "114428.950000", "114430.440000", "114431.930000", "114433.420000", "114434.910000", "114436.400000", "114437.890000", "114439.380000", "114440.870000", "114442.360000", "114443.850000", "114445.340000", "114446.830000", "114448.320000", "114449.810000", "114451.300000", "114452.790000", "114454.280000", "114455.770000", "114457.260000", "114458.750000", "114500.240000", "114501.730000", "114503.220000", "114504.710000", "114506.200000", "114507.690000", "114509.180000", "114510.670000", "114512.160000", "114513.650000", "114515.140000", "114516.630000", "114518.120000", "114519.610000", "114521.100000", "114522.590000", "114524.080000", "114525.570000", "114527.060000", "114528.550000", "114530.040000", "114531.530000", "114533.020000", "114534.510000", "114536.000000", "114537.490000", "114538.980000", "114540.470000", "114541.960000", "114543.450000", "114544.940000", "114546.430000", "114547.920000", "114549.410000", "114550.900000", "114552.390000", "114553.880000", "114555.370000", "114556.860000", "114558.350000", "114559.840000", "114601.330000", "114602.820000", "114604.310000", "114605.800000", "114607.290000", "114608.780000", "114610.270000", "114611.760000", "114613.250000", "114614.740000", "114616.230000", "114617.720000", "114619.210000", "114620.700000", "114622.190000", "114623.680000", "114625.170000", "114626.660000", "114628.150000", "114629.640000", "114631.130000", "114632.620000", "114634.110000", "114635.600000", "114637.090000", "114638.580000", "114640.070000", "114641.560000", "114643.050000", "114644.540000", "114646.030000", "114647.520000", "114649.010000", "114650.500000", "114651.990000", "114653.480000", "114654.970000", "114656.460000", "114657.950000", "114659.440000", "114700.930000", "114702.420000", "114703.910000", "114705.400000", "114706.890000", "114708.380000", "114709.870000", "114711.360000", "114712.850000", "114714.340000", "114715.830000", "114717.320000", "114718.810000", "114720.300000", "114721.790000", "114723.280000", "114724.770000", "114726.260000", "114727.750000", "114729.240000", "114730.730000", "114732.220000", "114733.710000", "114735.200000", "114736.690000", "114738.180000", "114739.670000", "114741.160000", "114742.650000", "114744.140000", "114745.630000", "114747.120000", "114748.610000", "114750.100000", "114751.590000", "114753.080000", "114754.570000", "114756.060000", "114757.550000", "114759.040000", "114800.530000", "114802.020000", "114803.510000", "114805.000000", "114806.490000", "114807.980000", "114809.470000", "114810.960000", "114812.450000", "114813.940000", "114815.430000", "114816.920000", "114818.410000", "114819.900000", "114821.390000", "114822.880000", "114824.370000", "114825.860000", "114827.350000", "114828.840000", "114830.330000", "114831.820000", "114833.310000", "114834.800000", "114836.290000", "114837.780000", "114839.270000", "114840.760000", "114842.250000", "114843.740000", "114845.230000", "114846.720000", "114848.210000", "114849.700000", "114851.190000", "114852.680000", "114854.170000", "114855.660000", "114857.150000", "114858.640000", "114900.130000", "114901.620000", "114903.110000", "114904.600000", "114906.090000", "114907.580000", "114909.070000", "114910.560000", "114912.050000", "114913.540000", "114915.030000", "114916.520000", "114918.010000", "114919.500000", "114920.990000", "114922.480000", "114923.970000", "114925.460000", "114926.950000", "114928.440000", "114929.930000", "114931.420000", "114932.910000", "114934.400000", "114935.890000", "114937.380000", "114938.870000", "114940.360000", "114941.850000", "114943.340000", "114944.830000", "114946.320000", "114947.810000", "114949.300000", "114950.790000", "114952.280000", "114953.770000", "114955.260000", "114956.750000", "114958.240000", "114959.730000", "115001.220000", "115002.710000", "115004.200000", "115005.690000", "115007.180000", "115008.670000", "115010.160000", "115011.650000", "115013.140000", "115014.630000", "115016.120000", "115017.610000", "115019.100000", "115020.590000", "115022.080000", "115023.570000", "115025.060000", "115026.550000", "115028.040000", "115029.530000", "115031.020000", "115032.510000", "115034.000000", "115035.490000", "115036.980000", "115038.470000", "115039.960000", "115041.450000", "115042.940000", "115044.430000", "115045.920000", "115047.410000", "115048.900000", "115050.390000", "115051.880000", "115053.370000", "115054.860000", "115056.350000", "115057.840000", "115059.330000", "115100.820000", "115102.310000", "115103.800000", "115105.290000", "115106.780000", "115108.270000", "115109.760000", "115111.250000", "115112.740000", "115114.230000", "115115.720000", "115117.210000", "115118.700000", "115120.190000", "115121.680000", "115123.170000", "115124.660000", "115126.150000", "115127.640000", "115129.130000", "115130.620000", "115132.110000", "115133.600000", "115135.090000", "115136.580000", "115138.070000", "115139.560000", "115141.050000", "115142.540000", "115144.030000", "115145.520000", "115147.010000", "115148.500000", "115149.990000", "115151.480000", "115152.970000", "115154.460000", "115155.950000", "115157.440000", "115158.930000", "115200.420000", "115201.910000", "115203.400000", "115204.890000", "115206.380000", "115207.870000", "115209.360000", "115210.850000", "115212.340000", "115213.830000", "115215.320000", "115216.810000", "115218.300000", "115219.790000", "115221.280000", "115222.770000", "115224.260000", "115225.750000", "115227.240000", "115228.730000", "115230.220000", "115231.710000", "115233.200000", "115234.690000"],
      "ContentTime": ["114235.869000", "114235.873000", "114235.876000", "114235.880000", "114235.883000", "114235.887000", "114235.897000", "114235.900000", "114235.903000", "114235.907000", "114235.910000", "114235.913000", "114235.917000", "114235.920000", "114255.839000", "114255.843000", "114255.846000", "114255.855000", "114255.859000", "114255.862000", "114255.866000", "114255.869000", "114255.872000", "114255.876000", "114255.879000", "114255.882000", "114255.901000", "114255.905000", "114255.908000", "114255.911000", "114255.915000", "114255.918000", "114255.921000", "114255.925000", "114315.840000", "114315.844000", "114315.847000", "114315.851000", "114315.854000", "114315.857000", "114315.861000", "114315.864000", "114315.867000", "114315.871000", "114315.874000", "114315.878000", "114315.881000", "114315.884000", "114315.888000", "114315.891000", "114315.895000", "114315.898000", "114315.901000", "114315.905000", "114335.840000", "114335.844000", "114335.847000", "114335.851000", "114335.854000", "114335.857000", "114335.861000", "114335.864000", "114335.868000", "114335.871000", "114335.874000", "114335.878000", "114335.881000", "114335.884000", "114335.888000", "114335.891000", "114335.894000", "114335.898000", "114335.901000", "114335.905000", "114355.840000", "114355.844000", "114355.847000", "114355.851000", "114355.854000", "114355.858000", "114355.861000", "114355.864000", "114355.868000", "114355.871000", "114355.874000", "114355.878000", "114355.881000", "114355.885000", "114355.888000", "114355.891000", "114355.895000", "114355.898000", "114355.902000", "114355.905000", "114435.839000", "114435.843000", "114435.847000", "114435.850000", "114435.854000", "114435.857000", "114435.860000", "114435.864000", "114435.867000", "114435.870000", "114435.874000", "114435.877000", "114435.881000", "114435.884000", "114435.887000", "114435.891000", "114435.894000", "114435.907000", "114435.910000", "114435.914000", "114435.917000", "114435.921000", "114435.924000", "114435.927000", "114435.931000", "114435.934000", "114435.938000", "114435.941000", "114515.839000", "114515.843000", "114515.846000", "114515.850000", "114515.854000", "114515.857000", "114515.861000", "114515.864000", "114515.868000", "114515.871000", "114515.874000", "114515.878000", "114515.881000", "114515.884000", "114515.888000", "114515.891000", "114515.895000", "114515.898000", "114515.902000", "114515.905000", "114515.909000", "114515.912000", "114515.916000", "114515.919000", "114515.922000", "114515.926000", "114555.841000", "114555.844000", "114555.848000", "114555.851000", "114555.854000", "114555.858000", "114555.861000", "114555.865000", "114555.868000", "114555.871000", "114555.875000", "114555.878000", "114555.882000", "114555.885000", "114555.888000", "114555.892000", "114555.895000", "114555.899000", "114555.902000", "114555.905000", "114555.909000", "114555.912000", "114555.915000", "114555.919000", "114555.922000", "114555.926000", "114555.929000", "114635.839000", "114635.843000", "114635.846000", "114635.850000", "114635.853000", "114635.856000", "114635.860000", "114635.863000", "114635.867000", "114635.870000", "114635.873000", "114635.877000", "114635.881000", "114635.884000", "114635.888000", "114635.891000", "114635.895000", "114635.898000", "114635.901000", "114635.904000", "114635.908000", "114635.911000", "114635.915000", "114635.918000", "114635.922000", "114635.925000", "114635.928000", "114715.839000", "114715.843000", "114715.846000", "114715.850000", "114715.853000", "114715.857000", "114715.860000", "114715.863000", "114715.867000", "114715.870000", "114715.873000", "114715.877000", "114715.880000", "114715.884000", "114715.887000", "114715.891000", "114715.894000", "114715.897000", "114715.901000", "114715.904000", "114715.908000", "114715.911000", "114715.914000", "114715.918000", "114715.921000", "114715.924000", "114715.928000", "114755.840000", "114755.844000", "114755.847000", "114755.851000", "114755.854000", "114755.858000", "114755.861000", "114755.865000", "114755.868000", "114755.872000", "114755.875000", "114755.878000", "114755.882000", "114755.885000", "114755.889000", "114755.892000", "114755.895000", "114755.899000", "114755.902000", "114755.906000", "114755.909000", "114755.912000", "114755.916000", "114755.919000", "114755.923000", "114755.926000", "114755.929000", "114835.840000", "114835.844000", "114835.848000", "114835.851000", "114835.855000", "114835.858000", "114835.861000", "114835.865000", "114835.868000", "114835.872000", "114835.876000", "114835.879000", "114835.883000", "114835.886000", "114835.890000", "114835.893000", "114835.897000", "114835.900000", "114835.904000", "114835.907000", "114835.911000", "114835.914000", "114835.917000", "114835.921000", "114835.924000", "114835.928000", "114835.931000", "114915.839000", "114915.843000", "114915.847000", "114915.850000", "114915.853000", "114915.857000", "114915.862000", "114915.867000", "114915.871000", "114915.877000", "114915.881000", "114915.886000", "114915.890000", "114915.894000", "114915.898000", "114915.901000", "114915.904000", "114915.923000", "114915.926000", "114915.930000", "114915.933000", "114915.936000", "114915.940000", "114915.943000", "114915.947000", "114915.950000", "114955.839000", "114955.843000", "114955.846000", "114955.850000", "114955.853000", "114955.857000", "114955.860000", "114955.863000", "114955.867000", "114955.870000", "114955.874000", "114955.877000", "114955.881000", "114955.884000", "114955.887000", "114955.891000", "114955.894000", "114955.898000", "114955.901000", "114955.905000", "114955.908000", "114955.911000", "114955.915000", "114955.918000", "114955.922000", "114955.925000", "114955.929000", "115035.840000", "115035.844000", "115035.848000", "115035.851000", "115035.854000", "115035.858000", "115035.862000", "115035.865000", "115035.868000", "115035.872000", "115035.875000", "115035.879000", "115035.882000", "115035.886000", "115035.889000", "115035.892000", "115035.896000", "115035.899000", "115035.903000", "115035.906000", "115035.910000", "115035.913000", "115035.917000", "115035.920000", "115035.924000", "115035.927000", "115035.931000", "115055.840000", "115055.844000", "115055.848000", "115055.851000", "115055.855000", "115055.860000", "115055.863000", "115055.867000", "115055.870000", "115055.874000", "115055.877000", "115055.881000", "115055.884000", "115055.888000", "115135.839000", "115135.843000", "115135.846000", "115135.850000", "115135.854000", "115135.857000", "115135.860000", "115135.864000", "115135.867000", "115135.870000", "115135.874000", "115135.877000", "115135.880000", "115135.884000", "115135.887000", "115135.891000", "115135.894000", "115135.898000", "115135.901000", "115135.904000", "115135.908000", "115135.911000", "115135.916000", "115135.921000", "115135.925000", "115135.929000", "115215.839000", "115215.843000", "115215.847000", "115215.850000", "115215.853000", "115215.857000", "115215.860000", "115215.864000", "115215.867000", "115215.870000", "115215.874000", "115215.877000", "115215.881000", "115215.884000", "115215.887000", "115215.891000", "115215.894000", "115215.897000", "115215.902000", "115215.905000", "115215.909000", "115215.912000", "115215.915000", "115215.919000", "115215.922000", "115215.926000", "115215.929000", "115237.151000", "115237.155000", "115237.159000", "115237.187000", "115237.191000", "115237.194000", "115237.197000", "115237.201000", "115237.204000", "115237.208000", "115237.211000", "115237.215000", "115237.218000", "115237.222000", "115237.225000"],
