{
  "AcquisitionMatrixPE": 104,
  "AcquisitionNumber": 1,
  "AcquisitionTime": "11:28:26.252500",
  "BandwidthPerPixelPhaseEncode": 17.17,
  "BaseResolution": 104,
  "BodyPartExamined": "BRAIN",
  "CoilCombinationMethod": "Sum of Squares",
  "ConsistencyInfo": "N4_VE11C_LATEST_20160120",
  "ConversionSoftware": "dcm2niix",
  "ConversionSoftwareVersion": "v1.0.20220505",
  "DerivedVendorReportedEchoSpacing": 0.000560011,
  "DeviceSerialNumber": "167006",
  "DwellTime": 2.1e-06,
  "EchoTime": 0.037,
  "EchoTime1": 0.037,
  "EchoTime2": 0.001,
  "EchoTrainLength": 104,
  "EffectiveEchoSpacing": 0.000560011,
  "FlipAngle": 52,
  "HeudiconvVersion": "0.5.3.post811+g6206e14",
  "ImageComments": "Unaliased MB4/PE3/LB",
  "ImageOrientationPatientDICOM": [0.999183, 0.00983486, 0.039197, 0.011859, 0.855874, -0.517049],
  "ImageOrientationText": "Tra>Cor(-31.2)>Sag(2.2)",
  "ImageType": [
    "ORIGINAL",
    "PRIMARY",
    "P",
    "MB",
    "ND",
    "MOSAIC",
    "PHASE"
],
  "ImagingFrequency": 123.259,
  "InPlanePhaseEncodingDirectionDICOM": "COL",
  "InstitutionAddress": "Chemin Queen-Mary 4565,Montreal,District,CA,H3W 1W5",
  "InstitutionName": "IUGM",
  "InstitutionalDepartmentName": "Department",
  "MRAcquisitionType": "2D",
  "MagneticFieldStrength": 3,
  "Manufacturer": "Siemens",
  "ManufacturersModelName": "Prisma_fit",
  "MatrixCoilMode": "SENSE",
  "Modality": "MR",
  "MultibandAccelerationFactor": 4,
  "PartialFourier": 1,
  "PatientPosition": "HFS",
  "PercentPhaseFOV": 100,
  "PercentSampling": 100,
  "PhaseEncodingDirection": "j",
  "PhaseEncodingSteps": 104,
  "PhaseResolution": 1,
  "PixelBandwidth": 2290,
  "ProcedureStepDescription": "games^mariostars",
  "ProtocolName": "func_task-mariostars_run-01",
  "PulseSequenceDetails": "%CustomerSeq%\\cmrr_mbep2d_bold",
  "ReceiveCoilActiveElements": "HC1-7;NC1,2",
  "ReceiveCoilName": "HeadNeck_64",
  "ReconMatrixPE": 104,
  "RepetitionTime": 1.49,
  "SAR": 0.0505693,
  "ScanOptions": "FS",
  "ScanningSequence": "EP",
  "SequenceName": "epfid2d1_104",
  "SequenceVariant": "SK\\SS",
  "SeriesDescription": "func_task-mariostars_run-01",
  "SeriesNumber": 12,
  "ShimSetting": [623, -7197, -8881, 244, 25, -166, 19, 36],
  "SliceThickness": 2,
  "SliceTiming": [0, 0.7825, 0.0975, 0.8825, 0.195, 0.98, 0.295, 1.0775, 0.3925, 1.175, 0.49, 1.2725, 0.5875, 1.3725, 0.685, 0, 0.7825, 0.0975, 0.8825, 0.195, 0.98, 0.295, 1.0775, 0.3925, 1.175, 0.49, 1.2725, 0.5875, 1.3725, 0.685, 0, 0.7825, 0.0975, 0.8825, 0.195, 0.98, 0.295, 1.0775, 0.3925, 1.175, 0.49, 1.2725, 0.5875, 1.3725, 0.685, 0, 0.7825, 0.0975, 0.8825, 0.195, 0.98, 0.295, 1.0775, 0.3925, 1.175, 0.49, 1.2725, 0.5875, 1.3725, 0.685],
  "SoftwareVersions": "syngo MR E11",
  "SpacingBetweenSlices": 2,
  "StationName": "MRC35049",
  "TaskName": "mariostars",
  "TotalReadoutTime": 0.0576811,
  "TxRefAmp": 263.407,
  "WipMemBlock": "cf1891be-a0d4-4da0-8950-6107bced1d33||Sequence: R017 ve11c/master r/75a17815+; Jun 28 2022 16:32:11 by eja",
  "dcmmeta_affine": [
    [-1.9983662366867065, 0.0237180944532156, 0.07726556807756424, 104.42195129394531],
    [-0.01966971904039383, 1.711747646331787, -1.0341824293136597, -48.509368896484375],
    [0.07839399576187134, 1.03409743309021, 1.7101160287857056, -93.5775375366211],
    [0.0, 0.0, 0.0, 1.0]
],
  "dcmmeta_reorient_transform": [
    [0.0, -1.0, 0.0, 103.0],
    [1.0, 0.0, 0.0, 0.0],
    [0.0, 0.0, 1.0, 0.0],
    [0.0, 0.0, 0.0, 1.0]
],
  "dcmmeta_shape": [104, 104, 60, 463],
  "dcmmeta_slice_dim": 2,
  "dcmmeta_version": 0.6,
  "global": {
    "const": {
      "AcquisitionMatrix": [104, 0, 0, 104],
      "AngioFlag": "N",
      "BitsAllocated": 16,
      "BitsStored": 16,
      "BodyPartExamined": "BRAIN",
      "Columns": 832,
      "EchoNumbers": 1,
      "EchoTime": 37.0,
      "EchoTrainLength": 104,
      "FlipAngle": 52.0,
      "HighBit": 15,
      "ImageOrientationPatient": [0.99918310179325, 0.00983485964581, 0.039196997673, 0.01185904716641, 0.85587380137197, -0.5170487396033],
      "ImagePositionPatient": [-842.90360111849, -758.03653940796, 360.8105719545],
      "ImageType": [
        "ORIGINAL",
        "PRIMARY",
        "P",
        "MB",
        "ND",
        "MOSAIC"
],
      "ImagedNucleus": "1H",
      "ImagingFrequency": 123.259012,
      "InPlanePhaseEncodingDirection": "COL",
      "LargestImagePixelValue": 4095,
      "MRAcquisitionType": "2D",
      "MagneticFieldStrength": 3.0,
      "Manufacturer": "SIEMENS",
      "ManufacturerModelName": "Prisma_fit",
      "Modality": "MR",
      "NumberOfAverages": 1.0,
      "NumberOfPhaseEncodingSteps": 104,
      "PercentPhaseFieldOfView": 100.0,
      "PercentSampling": 100.0,
      "PerformedProcedureStepStartTime": "112506.103000",
      "PhotometricInterpretation": "MONOCHROME2",
      "PixelBandwidth": 2290.0,
      "PixelRepresentation": 0,
      "PixelSpacing": [2.0, 2.0],
      "ProtocolName": "func_task-mariostars_run-01",
      "RepetitionTime": 1490.0,
      "RescaleIntercept": -4096.0,
      "RescaleSlope": 2.0,
      "RescaleType": "US",
      "Rows": 832,
      "SAR": 0.05056933773866,
      "SamplesPerPixel": 1,
      "ScanOptions": "FS",
      "ScanningSequence": "EP",
      "SequenceName": "epfid2d1_104",
      "SequenceVariant": [
        "SK",
        "SS"
],
      "SeriesDescription": "func_task-mariostars_run-01",
      "SeriesNumber": 12,
      "SeriesTime": "112949.547000",
      "SliceLocation": -50.89634316445,
      "SliceThickness": 2.0,
      "SmallestImagePixelValue": 0,
      "SoftwareVersions": "syngo MR E11",
      "SpacingBetweenSlices": 1.9999999688152,
      "SpecificCharacterSet": "ISO_IR 100",
      "StudyID": "1",
      "StudyTime": "112506.017000",
      "TransmitCoilName": "Body",
      "VariableFlipAngleFlag": "N",
      "WindowCenterWidthExplanation": "Algo1",
      "dBdt": 0.0},
    "slices": {}
  },
  "time": {
    "samples": {
      "AcquisitionNumber": [1, 2, 3, 4, 5, 6, 7, 8, 9, 10, 11, 12, 13, 14, 15, 16, 17, 18, 19, 20, 21, 22, 23, 24, 25, 26, 27, 28, 29, 30, 31, 32, 33, 34, 35, 36, 37, 38, 39, 40, 41, 42, 43, 44, 45, 46, 47, 48, 49, 50, 51, 52, 53, 54, 55, 56, 57, 58, 59, 60, 61, 62, 63, 64, 65, 66, 67, 68, 69, 70, 71, 72, 73, 74, 75, 76, 77, 78, 79, 80, 81, 82, 83, 84, 85, 86, 87, 88, 89, 90, 91, 92, 93, 94, 95, 96, 97, 98, 99, 100, 101, 102, 103, 104, 105, 106, 107, 108, 109, 110, 111, 112, 113, 114, 115, 116, 117, 118, 119, 120, 121, 122, 123, 124, 125, 126, 127, 128, 129, 130, 131, 132, 133, 134, 135, 136, 137, 138, 139, 140, 141, 142, 143, 144, 145, 146, 147, 148, 149, 150, 151, 152, 153, 154, 155, 156, 157, 158, 159, 160, 161, 162, 163, 164, 165, 166, 167, 168, 169, 170, 171, 172, 173, 174, 175, 176, 177, 178, 179, 180, 181, 182, 183, 184, 185, 186, 187, 188, 189, 190, 191, 192, 193, 194, 195, 196, 197, 198, 199, 200, 201, 202, 203, 204, 205, 206, 207, 208, 209, 210, 211, 212, 213, 214, 215, 216, 217, 218, 219, 220, 221, 222, 223, 224, 225, 226, 227, 228, 229, 230, 231, 232, 233, 234, 235, 236, 237, 238, 239, 240, 241, 242, 243, 244, 245, 246, 247, 248, 249, 250, 251, 252, 253, 254, 255, 256, 257, 258, 259, 260, 261, 262, 263, 264, 265, 266, 267, 268, 269, 270, 271, 272, 273, 274, 275, 276, 277, 278, 279, 280, 281, 282, 283, 284, 285, 286, 287, 288, 289, 290, 291, 292, 293, 294, 295, 296, 297, 298, 299, 300, 301, 302, 303, 304, 305, 306, 307, 308, 309, 310, 311, 312, 313, 314, 315, 316, 317, 318, 319, 320, 321, 322, 323, 324, 325, 326, 327, 328, 329, 330, 331, 332, 333, 334, 335, 336, 337, 338, 339, 340, 341, 342, 343, 344, 345, 346, 347, 348, 349, 350, 351, 352, 353, 354, 355, 356, 357, 358, 359, 360, 361, 362, 363, 364, 365, 366, 367, 368, 369, 370, 371, 372, 373, 374, 375, 376, 377, 378, 379, 380, 381, 382, 383, 384, 385, 386, 387, 388, 389, 390, 391, 392, 393, 394, 395, 396, 397, 398, 399, 400, 401, 402, 403, 404, 405, 406, 407, 408, 409, 410, 411, 412, 413, 414, 415, 416, 417, 418, 419, 420, 421, 422, 423, 424, 425, 426, 427, 428, 429, 430, 431, 432, 433, 434, 435, 436, 437, 438, 439, 440, 441, 442, 443, 444, 445, 446, 447, 448, 449, 450, 451, 452, 453, 454, 455, 456, 457, 458, 459, 460, 461, 462, 463],
      "AcquisitionTime": ["112826.252500", "112827.742500", "112829.232500", "112830.722500", "112832.212500", "112833.702500", "112835.192500", "112836.682500", "112838.172500", "112839.662500", "112841.152500", "112842.642500", "112844.132500", "112845.622500", "112847.112500", "112848.602500", "112850.092500", "112851.582500", "112853.072500", "112854.562500", "112856.052500", "112857.542500", "112859.032500", "112900.522500", "112902.012500", "112903.502500", "112904.992500", "112906.482500", "112907.972500", "112909.462500", "112910.952500", "112912.442500", "112913.932500", "112915.422500", "112916.912500", "112918.402500", "112919.892500", "112921.382500", "112922.872500", "112924.362500", "112925.852500", "112927.342500", "112928.832500", "112930.322500", "112931.812500", "112933.302500", "112934.792500", "112936.282500", "112937.772500", "112939.262500", "112940.752500", "112942.242500", "112943.732500", "112945.222500", "112946.712500", "112948.202500", "112949.692500", "112951.182500", "112952.672500", "112954.162500", "112955.652500", "112957.142500", "112958.632500", "113000.122500", "113001.612500", "113003.102500", "113004.592500", "113006.082500", "113007.572500", "113009.062500", "113010.552500", "113012.042500", "113013.532500", "113015.022500", "113016.512500", "113018.002500", "113019.492500", "113020.982500", "113022.472500", "113023.962500", "113025.452500", "113026.942500", "113028.432500", "113029.922500", "113031.412500", "113032.902500", "113034.392500", "113035.882500", "113037.372500", "113038.862500", "113040.352500", "113041.842500", "113043.332500", "113044.822500", "113046.312500", "113047.802500", "113049.292500", "113050.782500", "113052.272500", "113053.762500", "113055.252500", "113056.742500", "113058.232500", "113059.722500", "113101.212500", "113102.702500", "113104.192500", "113105.682500", "113107.172500", "113108.662500", "113110.152500", "113111.642500", "113113.132500", "113114.622500", "113116.112500", "113117.602500", "113119.092500", "113120.582500", "113122.072500", "113123.562500", "113125.052500", "113126.542500", "113128.032500", "113129.522500", "113131.012500", "113132.502500", "113133.992500", "113135.482500", "113136.972500", "113138.462500", "113139.952500", "113141.442500", "113142.932500", "113144.422500", "113145.912500", "113147.402500", "113148.892500", "113150.382500", "113151.872500", "113153.362500", "113154.852500", "113156.342500", "113157.832500", "113159.322500", "113200.812500", "113202.302500", "113203.792500", "113205.282500", "113206.772500", "113208.262500", "113209.752500", "113211.242500", "113212.732500", "113214.222500", "113215.712500", "113217.202500", "113218.692500", "113220.182500", "113221.672500", "113223.162500", "113224.652500", "113226.142500", "113227.632500", "113229.122500", "113230.612500", "113232.102500", "113233.592500", "113235.082500", "113236.572500", "113238.062500", "113239.552500", "113241.042500", "113242.532500", "113244.022500", "113245.512500", "113247.002500", "113248.492500", "113249.982500", "113251.472500", "113252.962500", "113254.452500", "113255.942500", "113257.432500", "113258.922500", "113300.412500", "113301.902500", "113303.392500", "113304.882500", "113306.372500", "113307.862500", "113309.352500", "113310.842500", "113312.332500", "113313.822500", "113315.312500", "113316.802500", "113318.292500", "113319.782500", "113321.272500", "113322.762500", "113324.252500", "113325.742500", "113327.232500", "113328.722500", "113330.212500", "113331.702500", "113333.192500", "113334.682500", "113336.172500", "113337.662500", "113339.152500", "113340.642500", "113342.132500", "113343.622500", "113345.112500", "113346.602500", "113348.092500", "113349.582500", "113351.072500", "113352.562500", "113354.052500", "113355.542500", "113357.032500", "113358.522500", "113400.012500", "113401.502500", "113402.992500", "113404.482500", "113405.972500", "113407.462500", "113408.952500", "113410.442500", "113411.932500", "113413.422500", "113414.912500", "113416.402500", "113417.892500", "113419.382500", "113420.872500", "113422.362500", "113423.852500", "113425.342500", "113426.832500", "113428.322500", "113429.812500", "113431.302500", "113432.792500", "113434.282500", "113435.772500", "113437.262500", "113438.752500", "113440.242500", "113441.732500", "113443.222500", "113444.712500", "113446.202500", "113447.692500", "113449.182500", "113450.672500", "113452.162500", "113453.652500", "113455.142500", "113456.632500", "113458.122500", "113459.612500", "113501.102500", "113502.592500", "113504.082500", "113505.572500", "113507.062500", "113508.552500", "113510.042500", "113511.532500", "113513.022500", "113514.512500", "113516.002500", "113517.492500", "113518.982500", "113520.472500", "113521.962500", "113523.452500", "113524.942500", "113526.432500", "113527.922500", "113529.412500", "113530.902500", "113532.392500", "113533.882500", "113535.372500", "113536.862500", "113538.352500", "113539.842500", "113541.332500", "113542.822500", "113544.312500", "113545.802500", "113547.292500", "113548.782500", "113550.272500", "113551.762500", "113553.252500", "113554.742500", "113556.232500", "113557.722500", "113559.212500", "113600.702500", "113602.192500", "113603.682500", "113605.172500", "113606.662500", "113608.152500", "113609.642500", "113611.132500", "113612.622500", "113614.112500", "113615.602500", "113617.092500", "113618.582500", "113620.072500", "113621.562500", "113623.052500", "113624.542500", "113626.032500", "113627.522500", "113629.012500", "113630.502500", "113631.992500", "113633.482500", "113634.972500", "113636.462500", "113637.952500", "113639.442500", "113640.932500", "113642.422500", "113643.912500", "113645.402500", "113646.892500", "113648.382500", "113649.872500", "113651.362500", "113652.852500", "113654.342500", "113655.832500", "113657.322500", "113658.812500", "113700.302500", "113701.792500", "113703.282500", "113704.772500", "113706.262500", "113707.752500", "113709.242500", "113710.732500", "113712.222500", "113713.712500", "113715.202500", "113716.692500", "113718.182500", "113719.672500", "113721.162500", "113722.652500", "113724.142500", "113725.632500", "113727.122500", "113728.612500", "113730.102500", "113731.592500", "113733.082500", "113734.572500", "113736.062500", "113737.552500", "113739.042500", "113740.532500", "113742.022500", "113743.512500", "113745.002500", "113746.492500", "113747.982500", "113749.472500", "113750.962500", "113752.452500", "113753.942500", "113755.432500", "113756.922500", "113758.412500", "113759.902500", "113801.392500", "113802.882500", "113804.372500", "113805.862500", "113807.352500", "113808.842500", "113810.332500", "113811.822500", "113813.312500", "113814.802500", "113816.292500", "113817.782500", "113819.272500", "113820.762500", "113822.252500", "113823.742500", "113825.232500", "113826.722500", "113828.212500", "113829.702500", "113831.192500", "113832.682500", "113834.172500", "113835.662500", "113837.152500", "113838.642500", "113840.132500", "113841.622500", "113843.112500", "113844.602500", "113846.092500", "113847.582500", "113849.072500", "113850.562500", "113852.052500", "113853.542500", "113855.032500", "113856.522500", "113858.012500", "113859.502500", "113900.992500", "113902.482500", "113903.972500", "113905.462500", "113906.952500", "113908.442500", "113909.932500", "113911.422500", "113912.912500", "113914.402500", "113915.892500", "113917.382500", "113918.872500", "113920.362500", "113921.852500", "113923.342500", "113924.832500", "113926.322500", "113927.812500", "113929.302500", "113930.792500", "113932.282500", "113933.772500", "113935.262500", "113936.752500", "113938.242500", "113939.732500", "113941.222500", "113942.712500", "113944.202500", "113945.692500", "113947.182500", "113948.672500", "113950.162500", "113951.652500", "113953.142500", "113954.632500"],
      "ContentTime": ["112949.549000", "112949.552000", "112949.555000", "112949.557000", "112949.560000", "112949.562000", "112949.565000", "112949.568000", "112949.570000", "112949.573000", "112949.575000", "112949.578000", "112949.580000", "112949.583000", "112949.585000", "112949.588000", "112949.590000", "112949.593000", "112949.595000", "112949.598000", "112949.600000", "112949.603000", "112949.606000", "112949.608000", "112949.611000", "112949.613000", "112949.616000", "112949.627000", "112949.630000", "112949.632000", "112949.635000", "112949.637000", "112949.640000", "112949.642000", "113009.923000", "113009.926000", "113009.929000", "113009.931000", "113009.934000", "113009.937000", "113009.939000", "113009.942000", "113009.944000", "113009.947000", "113009.949000", "113009.952000", "113009.954000", "113009.957000", "113009.959000", "113009.962000", "113009.964000", "113009.967000", "113009.976000", "113009.978000", "113029.455000", "113029.458000", "113029.460000", "113029.463000", "113029.465000", "113029.468000", "113029.470000", "113029.473000", "113029.475000", "113029.478000", "113029.480000", "113029.483000", "113029.485000", "113029.488000", "113029.491000", "113029.493000", "113029.496000", "113029.499000", "113029.501000", "113029.504000", "113049.459000", "113049.462000", "113049.465000", "113049.467000", "113049.470000", "113049.472000", "113049.475000", "113049.478000", "113049.480000", "113049.483000", "113049.485000", "113049.488000", "113049.490000", "113049.493000", "113049.495000", "113049.498000", "113049.501000", "113049.503000", "113049.506000", "113049.508000", "113129.484000", "113129.487000", "113129.490000", "113129.492000", "113129.495000", "113129.497000", "113129.500000", "113129.502000", "113129.505000", "113129.508000", "113129.510000", "113129.513000", "113129.515000", "113129.518000", "113129.520000", "113129.523000", "113129.525000", "113129.528000", "113129.531000", "113129.534000", "113129.537000", "113129.539000", "113129.542000", "113129.544000", "113129.547000", "113129.549000", "113129.552000", "113129.555000", "113209.486000", "113209.489000", "113209.492000", "113209.494000", "113209.497000", "113209.499000", "113209.502000", "113209.504000", "113209.507000", "113209.510000", "113209.512000", "113209.515000", "113209.517000", "113209.520000", "113209.522000", "113209.525000", "113209.527000", "113209.530000", "113209.532000", "113209.535000", "113209.539000", "113209.541000", "113209.544000", "113209.546000", "113209.549000", "113209.551000", "113209.554000", "113249.483000", "113249.486000", "113249.489000", "113249.491000", "113249.494000", "113249.496000", "113249.499000", "113249.501000", "113249.504000", "113249.506000", "113249.509000", "113249.512000", "113249.514000", "113249.517000", "113249.519000", "113249.522000", "113249.524000", "113249.527000", "113249.529000", "113249.532000", "113249.535000", "113249.537000", "113249.540000", "113249.542000", "113249.545000", "113249.547000", "113249.550000", "113329.513000", "113329.516000", "113329.519000", "113329.522000", "113329.524000", "113329.527000", "113329.529000", "113329.532000", "113329.534000", "113329.537000", "113329.539000", "113329.542000", "113329.545000", "113329.547000", "113329.550000", "113329.552000", "113329.555000", "113329.557000", "113329.560000", "113329.563000", "113329.565000", "113329.568000", "113329.570000", "113329.573000", "113329.575000", "113329.578000", "113329.580000", "113409.481000", "113409.484000", "113409.487000", "113409.489000", "113409.492000", "113409.494000", "113409.497000", "113409.499000", "113409.502000", "113409.505000", "113409.507000", "113409.510000", "113409.512000", "113409.515000", "113409.517000", "113409.520000", "113409.522000", "113409.525000", "113409.528000", "113409.530000", "113409.533000", "113409.536000", "113409.538000", "113409.541000", "113409.543000", "113409.546000", "113409.548000", "113449.490000", "113449.493000", "113449.495000", "113449.498000", "113449.500000", "113449.503000", "113449.506000", "113449.508000", "113449.511000", "113449.513000", "113449.516000", "113449.518000", "113449.521000", "113449.524000", "113449.526000", "113449.529000", "113449.531000", "113449.534000", "113449.536000", "113449.539000", "113449.542000", "113449.544000", "113449.547000", "113449.549000", "113449.552000", "113449.554000", "113529.475000", "113529.478000", "113529.480000", "113529.483000", "113529.486000", "113529.488000", "113529.491000", "113529.494000", "113529.496000", "113529.499000", "113529.501000", "113529.504000", "113529.506000", "113529.509000", "113529.511000", "113529.514000", "113529.517000", "113529.519000", "113529.522000", "113529.524000", "113529.527000", "113529.529000", "113529.532000", "113529.534000", "113529.537000", "113529.540000", "113529.542000", "113609.494000", "113609.497000", "113609.500000", "113609.502000", "113609.505000", "113609.507000", "113609.510000", "113609.512000", "113609.515000", "113609.518000", "113609.520000", "113609.523000", "113609.525000", "113609.528000", "113609.530000", "113609.533000", "113609.535000", "113609.538000", "113609.541000", "113609.543000", "113609.546000", "113609.548000", "113609.551000", "113609.553000", "113609.556000", "113609.558000", "113609.561000", "113649.492000", "113649.495000", "113649.497000", "113649.500000", "113649.503000", "113649.505000", "113649.508000", "113649.510000", "113649.513000", "113649.515000", "113649.518000", "113649.521000", "113649.523000", "113649.526000", "113649.528000", "113649.531000", "113649.534000", "113649.536000", "113649.539000", "113649.541000", "113649.544000", "113649.546000", "113649.549000", "113649.551000", "113649.554000", "113649.557000", "113649.559000", "113729.482000", "113729.485000", "113729.488000", "113729.490000", "113729.493000", "113729.495000", "113729.498000", "113729.500000", "113729.503000", "113729.512000", "113729.514000", "113729.517000", "113729.519000", "113729.522000", "113729.524000", "113729.527000", "113729.529000", "113729.532000", "113729.534000", "113729.537000", "113729.540000", "113729.542000", "113729.545000", "113729.547000", "113729.550000", "113729.552000", "113729.555000", "113809.491000", "113809.494000", "113809.497000", "113809.499000", "113809.502000", "113809.504000", "113809.507000", "113809.509000", "113809.512000", "113809.515000", "113809.517000", "113809.520000", "113809.522000", "113809.525000", "113809.527000", "113809.530000", "113809.533000", "113809.535000", "113809.538000", "113809.540000", "113809.543000", "113809.545000", "113809.548000", "113809.551000", "113809.553000", "113809.556000", "113809.558000", "113849.494000", "113849.497000", "113849.500000", "113849.502000", "113849.505000", "113849.508000", "113849.510000", "113849.513000", "113849.515000", "113849.518000", "113849.520000", "113849.523000", "113849.526000", "113849.528000", "113849.531000", "113849.533000", "113849.536000", "113849.538000", "113849.541000", "113849.543000", "113849.546000", "113849.548000", "113849.551000", "113849.553000", "113849.556000", "113849.559000", "113849.561000", "113929.480000", "113929.483000", "113929.486000", "113929.488000", "113929.491000", "113929.493000", "113929.496000", "113929.498000", "113929.501000", "113929.504000", "113929.506000", "113929.509000", "113929.511000", "113929.514000", "113929.517000", "113929.519000", "113929.522000", "113929.524000", "113929.527000", "113929.529000", "113929.532000", "113929.534000", "113929.537000", "113929.547000", "113929.550000", "113929.552000", "113956.997000", "113957.001000", "113957.003000", "113957.006000", "113957.009000", "113957.012000", "113957.015000", "113957.017000", "113957.020000", "113957.022000", "113957.025000", "113957.028000", "113957.030000", "113957.033000", "113957.036000", "113957.039000", "113957.041000", "113957.044000", "113957.047000"],
