{
  "AcquisitionMatrixPE": 104,
  "AcquisitionNumber": 1,
  "AcquisitionTime": "11:28:26.252500",
  "BandwidthPerPixelPhaseEncode": 17.17,
  "BaseResolution": 104,
  "BodyPartExamined": "BRAIN",
  "CoilCombinationMethod": "Sum of Squares",
  "ConsistencyInfo": "N4_VE11C_LATEST_20160120",
  "ConversionSoftware": "dcm2niix",
  "ConversionSoftwareVersion": "v1.0.20220505",
  "DerivedVendorReportedEchoSpacing": 0.000560011,
  "DeviceSerialNumber": "167006",
  "DwellTime": 2.1e-06,
  "EchoTime": 0.037,
  "EchoTrainLength": 104,
  "EffectiveEchoSpacing": 0.000560011,
  "FlipAngle": 52,
  "HeudiconvVersion": "0.5.3.post811+g6206e14",
  "ImageComments": "Unaliased MB4/PE3/LB",
  "ImageOrientationPatientDICOM": [0.999183, 0.00983486, 0.039197, 0.011859, 0.855874, -0.517049],
  "ImageOrientationText": "Tra>Cor(-31.2)>Sag(2.2)",
  "ImageType": [
    "ORIGINAL",
    "PRIMARY",
    "M",
    "MB",
    "ND",
    "MOSAIC"
],
  "ImagingFrequency": 123.259,
  "InPlanePhaseEncodingDirectionDICOM": "COL",
  "InstitutionAddress": "Chemin Queen-Mary 4565,Montreal,District,CA,H3W 1W5",
  "InstitutionName": "IUGM",
  "InstitutionalDepartmentName": "Department",
  "MRAcquisitionType": "2D",
  "MagneticFieldStrength": 3,
  "Manufacturer": "Siemens",
  "ManufacturersModelName": "Prisma_fit",
  "MatrixCoilMode": "SENSE",
  "Modality": "MR",
  "MultibandAccelerationFactor": 4,
  "PartialFourier": 1,
  "PatientPosition": "HFS",
  "PercentPhaseFOV": 100,
  "PercentSampling": 100,
  "PhaseEncodingDirection": "j",
  "PhaseEncodingSteps": 104,
  "PhaseResolution": 1,
  "PixelBandwidth": 2290,
  "ProcedureStepDescription": "games^mariostars",
  "ProtocolName": "func_task-mariostars_run-01",
  "PulseSequenceDetails": "%CustomerSeq%\\cmrr_mbep2d_bold",
  "ReceiveCoilActiveElements": "HC1-7;NC1,2",
  "ReceiveCoilName": "HeadNeck_64",
  "ReconMatrixPE": 104,
  "RepetitionTime": 1.49,
  "SAR": 0.0505693,
  "ScanOptions": "FS",
  "ScanningSequence": "EP",
  "SequenceName": "epfid2d1_104",
  "SequenceVariant": "SK\\SS",
  "SeriesDescription": "func_task-mariostars_run-01",
  "SeriesNumber": 11,
  "ShimSetting": [623, -7197, -8881, 244, 25, -166, 19, 36],
  "SliceThickness": 2,
  "SliceTiming": [0, 0.7825, 0.0975, 0.8825, 0.195, 0.98, 0.295, 1.0775, 0.3925, 1.175, 0.49, 1.2725, 0.5875, 1.3725, 0.685, 0, 0.7825, 0.0975, 0.8825, 0.195, 0.98, 0.295, 1.0775, 0.3925, 1.175, 0.49, 1.2725, 0.5875, 1.3725, 0.685, 0, 0.7825, 0.0975, 0.8825, 0.195, 0.98, 0.295, 1.0775, 0.3925, 1.175, 0.49, 1.2725, 0.5875, 1.3725, 0.685, 0, 0.7825, 0.0975, 0.8825, 0.195, 0.98, 0.295, 1.0775, 0.3925, 1.175, 0.49, 1.2725, 0.5875, 1.3725, 0.685],
  "SoftwareVersions": "syngo MR E11",
  "SpacingBetweenSlices": 2,
  "StationName": "MRC35049",
  "TaskName": "mariostars",
  "TotalReadoutTime": 0.0576811,
  "TxRefAmp": 263.407,
  "WipMemBlock": "cf1891be-a0d4-4da0-8950-6107bced1d33||Sequence: R017 ve11c/master r/75a17815+; Jun 28 2022 16:32:11 by eja",
  "dcmmeta_affine": [
    [-1.9983662366867065, 0.0237180944532156, 0.07726556807756424, 104.42195129394531],
    [-0.01966971904039383, 1.711747646331787, -1.0341824293136597, -48.509368896484375],
    [0.07839399576187134, 1.03409743309021, 1.7101160287857056, -93.5775375366211],
    [0.0, 0.0, 0.0, 1.0]
],
  "dcmmeta_reorient_transform": [
    [0.0, -1.0, 0.0, 103.0],
    [1.0, 0.0, 0.0, 0.0],
    [0.0, 0.0, 1.0, 0.0],
    [0.0, 0.0, 0.0, 1.0]
],
  "dcmmeta_shape": [104, 104, 60, 463],
  "dcmmeta_slice_dim": 2,
  "dcmmeta_version": 0.6,
  "global": {
    "const": {
      "AcquisitionMatrix": [104, 0, 0, 104],
      "AngioFlag": "N",
      "BitsAllocated": 16,
      "BitsStored": 16,
      "BodyPartExamined": "BRAIN",
      "Columns": 832,
      "EchoNumbers": 1,
      "EchoTime": 37.0,
      "EchoTrainLength": 104,
      "FlipAngle": 52.0,
      "HighBit": 15,
      "ImageOrientationPatient": [0.99918310179325, 0.00983485964581, 0.039196997673, 0.01185904716641, 0.85587380137197, -0.5170487396033],
      "ImagePositionPatient": [-842.90360111849, -758.03653940796, 360.8105719545],
      "ImageType": [
        "ORIGINAL",
        "PRIMARY",
        "M",
        "MB",
        "ND",
        "MOSAIC"
],
      "ImagedNucleus": "1H",
      "ImagingFrequency": 123.259012,
      "InPlanePhaseEncodingDirection": "COL",
      "MRAcquisitionType": "2D",
      "MagneticFieldStrength": 3.0,
      "Manufacturer": "SIEMENS",
      "ManufacturerModelName": "Prisma_fit",
      "Modality": "MR",
      "NumberOfAverages": 1.0,
      "NumberOfPhaseEncodingSteps": 104,
      "PercentPhaseFieldOfView": 100.0,
      "PercentSampling": 100.0,
      "PerformedProcedureStepStartTime": "112506.103000",
      "PhotometricInterpretation": "MONOCHROME2",
      "PixelBandwidth": 2290.0,
      "PixelRepresentation": 0,
      "PixelSpacing": [2.0, 2.0],
      "ProtocolName": "func_task-mariostars_run-01",
      "RepetitionTime": 1490.0,
      "Rows": 832,
      "SAR": 0.05056933773866,
      "SamplesPerPixel": 1,
      "ScanOptions": "FS",
      "ScanningSequence": "EP",
      "SequenceName": "epfid2d1_104",
      "SequenceVariant": [
        "SK",
        "SS"
],
      "SeriesDescription": "func_task-mariostars_run-01",
      "SeriesNumber": 11,
      "SeriesTime": "112949.382000",
      "SliceLocation": -50.89634316445,
      "SliceThickness": 2.0,
      "SmallestImagePixelValue": 0,
      "SoftwareVersions": "syngo MR E11",
      "SpacingBetweenSlices": 1.9999999688152,
      "SpecificCharacterSet": "ISO_IR 100",
      "StudyID": "1",
      "StudyTime": "112506.017000",
      "TransmitCoilName": "Body",
      "VariableFlipAngleFlag": "N",
      "WindowCenterWidthExplanation": "Algo1",
      "dBdt": 0.0},
    "slices": {}
  },
  "time": {
    "samples": {
      "AcquisitionNumber": [1, 2, 3, 4, 5, 6, 7, 8, 9, 10, 11, 12, 13, 14, 15, 16, 17, 18, 19, 20, 21, 22, 23, 24, 25, 26, 27, 28, 29, 30, 31, 32, 33, 34, 35, 36, 37, 38, 39, 40, 41, 42, 43, 44, 45, 46, 47, 48, 49, 50, 51, 52, 53, 54, 55, 56, 57, 58, 59, 60, 61, 62, 63, 64, 65, 66, 67, 68, 69, 70, 71, 72, 73, 74, 75, 76, 77, 78, 79, 80, 81, 82, 83, 84, 85, 86, 87, 88, 89, 90, 91, 92, 93, 94, 95, 96, 97, 98, 99, 100, 101, 102, 103, 104, 105, 106, 107, 108, 109, 110, 111, 112, 113, 114, 115, 116, 117, 118, 119, 120, 121, 122, 123, 124, 125, 126, 127, 128, 129, 130, 131, 132, 133, 134, 135, 136, 137, 138, 139, 140, 141, 142, 143, 144, 145, 146, 147, 148, 149, 150, 151, 152, 153, 154, 155, 156, 157, 158, 159, 160, 161, 162, 163, 164, 165, 166, 167, 168, 169, 170, 171, 172, 173, 174, 175, 176, 177, 178, 179, 180, 181, 182, 183, 184, 185, 186, 187, 188, 189, 190, 191, 192, 193, 194, 195, 196, 197, 198, 199, 200, 201, 202, 203, 204, 205, 206, 207, 208, 209, 210, 211, 212, 213, 214, 215, 216, 217, 218, 219, 220, 221, 222, 223, 224, 225, 226, 227, 228, 229, 230, 231, 232, 233, 234, 235, 236, 237, 238, 239, 240, 241, 242, 243, 244, 245, 246, 247, 248, 249, 250, 251, 252, 253, 254, 255, 256, 257, 258, 259, 260, 261, 262, 263, 264, 265, 266, 267, 268, 269, 270, 271, 272, 273, 274, 275, 276, 277, 278, 279, 280, 281, 282, 283, 284, 285, 286, 287, 288, 289, 290, 291, 292, 293, 294, 295, 296, 297, 298, 299, 300, 301, 302, 303, 304, 305, 306, 307, 308, 309, 310, 311, 312, 313, 314, 315, 316, 317, 318, 319, 320, 321, 322, 323, 324, 325, 326, 327, 328, 329, 330, 331, 332, 333, 334, 335, 336, 337, 338, 339, 340, 341, 342, 343, 344, 345, 346, 347, 348, 349, 350, 351, 352, 353, 354, 355, 356, 357, 358, 359, 360, 361, 362, 363, 364, 365, 366, 367, 368, 369, 370, 371, 372, 373, 374, 375, 376, 377, 378, 379, 380, 381, 382, 383, 384, 385, 386, 387, 388, 389, 390, 391, 392, 393, 394, 395, 396, 397, 398, 399, 400, 401, 402, 403, 404, 405, 406, 407, 408, 409, 410, 411, 412, 413, 414, 415, 416, 417, 418, 419, 420, 421, 422, 423, 424, 425, 426, 427, 428, 429, 430, 431, 432, 433, 434, 435, 436, 437, 438, 439, 440, 441, 442, 443, 444, 445, 446, 447, 448, 449, 450, 451, 452, 453, 454, 455, 456, 457, 458, 459, 460, 461, 462, 463],
      "AcquisitionTime": ["112826.252500", "112827.742500", "112829.232500", "112830.722500", "112832.212500", "112833.702500", "112835.192500", "112836.682500", "112838.172500", "112839.662500", "112841.152500", "112842.642500", "112844.132500", "112845.622500", "112847.112500", "112848.602500", "112850.092500", "112851.582500", "112853.072500", "112854.562500", "112856.052500", "112857.542500", "112859.032500", "112900.522500", "112902.012500", "112903.502500", "112904.992500", "112906.482500", "112907.972500", "112909.462500", "112910.952500", "112912.442500", "112913.932500", "112915.422500", "112916.912500", "112918.402500", "112919.892500", "112921.382500", "112922.872500", "112924.362500", "112925.852500", "112927.342500", "112928.832500", "112930.322500", "112931.812500", "112933.302500", "112934.792500", "112936.282500", "112937.772500", "112939.262500", "112940.752500", "112942.242500", "112943.732500", "112945.222500", "112946.712500", "112948.202500", "112949.692500", "112951.182500", "112952.672500", "112954.162500", "112955.652500", "112957.142500", "112958.632500", "113000.122500", "113001.612500", "113003.102500", "113004.592500", "113006.082500", "113007.572500", "113009.062500", "113010.552500", "113012.042500", "113013.532500", "113015.022500", "113016.512500", "113018.002500", "113019.492500", "113020.982500", "113022.472500", "113023.962500", "113025.452500", "113026.942500", "113028.432500", "113029.922500", "113031.412500", "113032.902500", "113034.392500", "113035.882500", "113037.372500", "113038.862500", "113040.352500", "113041.842500", "113043.332500", "113044.822500", "113046.312500", "113047.802500", "113049.292500", "113050.782500", "113052.272500", "113053.762500", "113055.252500", "113056.742500", "113058.232500", "113059.722500", "113101.212500", "113102.702500", "113104.192500", "113105.682500", "113107.172500", "113108.662500", "113110.152500", "113111.642500", "113113.132500", "113114.622500", "113116.112500", "113117.602500", "113119.092500", "113120.582500", "113122.072500", "113123.562500", "113125.052500", "113126.542500", "113128.032500", "113129.522500", "113131.012500", "113132.502500", "113133.992500", "113135.482500", "113136.972500", "113138.462500", "113139.952500", "113141.442500", "113142.932500", "113144.422500", "113145.912500", "113147.402500", "113148.892500", "113150.382500", "113151.872500", "113153.362500", "113154.852500", "113156.342500", "113157.832500", "113159.322500", "113200.812500", "113202.302500", "113203.792500", "113205.282500", "113206.772500", "113208.262500", "113209.752500", "113211.242500", "113212.732500", "113214.222500", "113215.712500", "113217.202500", "113218.692500", "113220.182500", "113221.672500", "113223.162500", "113224.652500", "113226.142500", "113227.632500", "113229.122500", "113230.612500", "113232.102500", "113233.592500", "113235.082500", "113236.572500", "113238.062500", "113239.552500", "113241.042500", "113242.532500", "113244.022500", "113245.512500", "113247.002500", "113248.492500", "113249.982500", "113251.472500", "113252.962500", "113254.452500", "113255.942500", "113257.432500", "113258.922500", "113300.412500", "113301.902500", "113303.392500", "113304.882500", "113306.372500", "113307.862500", "113309.352500", "113310.842500", "113312.332500", "113313.822500", "113315.312500", "113316.802500", "113318.292500", "113319.782500", "113321.272500", "113322.762500", "113324.252500", "113325.742500", "113327.232500", "113328.722500", "113330.212500", "113331.702500", "113333.192500", "113334.682500", "113336.172500", "113337.662500", "113339.152500", "113340.642500", "113342.132500", "113343.622500", "113345.112500", "113346.602500", "113348.092500", "113349.582500", "113351.072500", "113352.562500", "113354.052500", "113355.542500", "113357.032500", "113358.522500", "113400.012500", "113401.502500", "113402.992500", "113404.482500", "113405.972500", "113407.462500", "113408.952500", "113410.442500", "113411.932500", "113413.422500", "113414.912500", "113416.402500", "113417.892500", "113419.382500", "113420.872500", "113422.362500", "113423.852500", "113425.342500", "113426.832500", "113428.322500", "113429.812500", "113431.302500", "113432.792500", "113434.282500", "113435.772500", "113437.262500", "113438.752500", "113440.242500", "113441.732500", "113443.222500", "113444.712500", "113446.202500", "113447.692500", "113449.182500", "113450.672500", "113452.162500", "113453.652500", "113455.142500", "113456.632500", "113458.122500", "113459.612500", "113501.102500", "113502.592500", "113504.082500", "113505.572500", "113507.062500", "113508.552500", "113510.042500", "113511.532500", "113513.022500", "113514.512500", "113516.002500", "113517.492500", "113518.982500", "113520.472500", "113521.962500", "113523.452500", "113524.942500", "113526.432500", "113527.922500", "113529.412500", "113530.902500", "113532.392500", "113533.882500", "113535.372500", "113536.862500", "113538.352500", "113539.842500", "113541.332500", "113542.822500", "113544.312500", "113545.802500", "113547.292500", "113548.782500", "113550.272500", "113551.762500", "113553.252500", "113554.742500", "113556.232500", "113557.722500", "113559.212500", "113600.702500", "113602.192500", "113603.682500", "113605.172500", "113606.662500", "113608.152500", "113609.642500", "113611.132500", "113612.622500", "113614.112500", "113615.602500", "113617.092500", "113618.582500", "113620.072500", "113621.562500", "113623.052500", "113624.542500", "113626.032500", "113627.522500", "113629.012500", "113630.502500", "113631.992500", "113633.482500", "113634.972500", "113636.462500", "113637.952500", "113639.442500", "113640.932500", "113642.422500", "113643.912500", "113645.402500", "113646.892500", "113648.382500", "113649.872500", "113651.362500", "113652.852500", "113654.342500", "113655.832500", "113657.322500", "113658.812500", "113700.302500", "113701.792500", "113703.282500", "113704.772500", "113706.262500", "113707.752500", "113709.242500", "113710.732500", "113712.222500", "113713.712500", "113715.202500", "113716.692500", "113718.182500", "113719.672500", "113721.162500", "113722.652500", "113724.142500", "113725.632500", "113727.122500", "113728.612500", "113730.102500", "113731.592500", "113733.082500", "113734.572500", "113736.062500", "113737.552500", "113739.042500", "113740.532500", "113742.022500", "113743.512500", "113745.002500", "113746.492500", "113747.982500", "113749.472500", "113750.962500", "113752.452500", "113753.942500", "113755.432500", "113756.922500", "113758.412500", "113759.902500", "113801.392500", "113802.882500", "113804.372500", "113805.862500", "113807.352500", "113808.842500", "113810.332500", "113811.822500", "113813.312500", "113814.802500", "113816.292500", "113817.782500", "113819.272500", "113820.762500", "113822.252500", "113823.742500", "113825.232500", "113826.722500", "113828.212500", "113829.702500", "113831.192500", "113832.682500", "113834.172500", "113835.662500", "113837.152500", "113838.642500", "113840.132500", "113841.622500", "113843.112500", "113844.602500", "113846.092500", "113847.582500", "113849.072500", "113850.562500", "113852.052500", "113853.542500", "113855.032500", "113856.522500", "113858.012500", "113859.502500", "113900.992500", "113902.482500", "113903.972500", "113905.462500", "113906.952500", "113908.442500", "113909.932500", "113911.422500", "113912.912500", "113914.402500", "113915.892500", "113917.382500", "113918.872500", "113920.362500", "113921.852500", "113923.342500", "113924.832500", "113926.322500", "113927.812500", "113929.302500", "113930.792500", "113932.282500", "113933.772500", "113935.262500", "113936.752500", "113938.242500", "113939.732500", "113941.222500", "113942.712500", "113944.202500", "113945.692500", "113947.182500", "113948.672500", "113950.162500", "113951.652500", "113953.142500", "113954.632500"],
      "ContentTime": ["112949.386000", "112949.390000", "112949.393000", "112949.396000", "112949.400000", "112949.403000", "112949.407000", "112949.410000", "112949.414000", "112949.417000", "112949.420000", "112949.424000", "112949.427000", "112949.430000", "112949.434000", "112949.437000", "112949.441000", "112949.444000", "112949.447000", "112949.451000", "112949.454000", "112949.457000", "112949.466000", "112949.469000", "112949.473000", "112949.476000", "112949.479000", "112949.482000", "112949.486000", "112949.489000", "112949.493000", "112949.496000", "112949.499000", "112949.503000", "113009.340000", "113009.344000", "113009.347000", "113009.351000", "113009.354000", "113009.357000", "113009.361000", "113009.364000", "113009.367000", "113009.371000", "113009.374000", "113009.378000", "113009.381000", "113009.384000", "113009.388000", "113009.391000", "113009.395000", "113009.398000", "113009.401000", "113009.405000", "113029.340000", "113029.344000", "113029.347000", "113029.351000", "113029.354000", "113029.357000", "113029.361000", "113029.364000", "113029.367000", "113029.371000", "113029.374000", "113029.377000", "113029.381000", "113029.384000", "113029.387000", "113029.391000", "113029.394000", "113029.398000", "113029.401000", "113029.404000", "113049.339000", "113049.343000", "113049.346000", "113049.350000", "113049.353000", "113049.357000", "113049.360000", "113049.363000", "113049.367000", "113049.370000", "113049.374000", "113049.377000", "113049.381000", "113049.384000", "113049.387000", "113049.391000", "113049.394000", "113049.397000", "113049.401000", "113049.416000", "113129.339000", "113129.343000", "113129.357000", "113129.360000", "113129.364000", "113129.367000", "113129.370000", "113129.374000", "113129.377000", "113129.381000", "113129.384000", "113129.387000", "113129.391000", "113129.394000", "113129.398000", "113129.401000", "113129.404000", "113129.408000", "113129.411000", "113129.414000", "113129.418000", "113129.421000", "113129.424000", "113129.428000", "113129.431000", "113129.435000", "113129.438000", "113129.441000", "113209.339000", "113209.343000", "113209.346000", "113209.350000", "113209.353000", "113209.357000", "113209.360000", "113209.363000", "113209.367000", "113209.370000", "113209.373000", "113209.377000", "113209.380000", "113209.384000", "113209.387000", "113209.391000", "113209.394000", "113209.397000", "113209.401000", "113209.404000", "113209.408000", "113209.411000", "113209.414000", "113209.418000", "113209.421000", "113209.425000", "113209.428000", "113249.340000", "113249.351000", "113249.355000", "113249.358000", "113249.361000", "113249.365000", "113249.368000", "113249.372000", "113249.375000", "113249.378000", "113249.382000", "113249.385000", "113249.389000", "113249.392000", "113249.395000", "113249.399000", "113249.402000", "113249.406000", "113249.409000", "113249.412000", "113249.416000", "113249.419000", "113249.423000", "113249.426000", "113249.429000", "113249.433000", "113249.436000", "113329.339000", "113329.367000", "113329.370000", "113329.374000", "113329.377000", "113329.380000", "113329.384000", "113329.387000", "113329.390000", "113329.394000", "113329.397000", "113329.400000", "113329.404000", "113329.407000", "113329.411000", "113329.414000", "113329.418000", "113329.421000", "113329.424000", "113329.428000", "113329.443000", "113329.447000", "113329.450000", "113329.453000", "113329.457000", "113329.460000", "113329.463000", "113409.339000", "113409.343000", "113409.346000", "113409.350000", "113409.353000", "113409.357000", "113409.360000", "113409.364000", "113409.367000", "113409.370000", "113409.374000", "113409.377000", "113409.380000", "113409.384000", "113409.387000", "113409.390000", "113409.394000", "113409.397000", "113409.401000", "113409.404000", "113409.407000", "113409.411000", "113409.414000", "113409.418000", "113409.421000", "113409.424000", "113409.428000", "113449.340000", "113449.344000", "113449.348000", "113449.352000", "113449.356000", "113449.359000", "113449.362000", "113449.366000", "113449.369000", "113449.373000", "113449.376000", "113449.379000", "113449.383000", "113449.386000", "113449.390000", "113449.393000", "113449.396000", "113449.400000", "113449.403000", "113449.406000", "113449.410000", "113449.413000", "113449.417000", "113449.420000", "113449.423000", "113449.427000", "113449.430000", "113529.339000", "113529.343000", "113529.347000", "113529.350000", "113529.353000", "113529.357000", "113529.360000", "113529.364000", "113529.367000", "113529.370000", "113529.374000", "113529.377000", "113529.381000", "113529.384000", "113529.387000", "113529.391000", "113529.394000", "113529.397000", "113529.401000", "113529.404000", "113529.408000", "113529.411000", "113529.414000", "113529.418000", "113529.421000", "113529.424000", "113609.339000", "113609.343000", "113609.361000", "113609.365000", "113609.368000", "113609.371000", "113609.375000", "113609.378000", "113609.381000", "113609.385000", "113609.388000", "113609.392000", "113609.395000", "113609.398000", "113609.402000", "113609.405000", "113609.408000", "113609.412000", "113609.415000", "113609.419000", "113609.422000", "113609.425000", "113609.429000", "113609.432000", "113609.435000", "113609.439000", "113609.442000", "113649.340000", "113649.344000", "113649.348000", "113649.351000", "113649.355000", "113649.358000", "113649.362000", "113649.365000", "113649.368000", "113649.372000", "113649.375000", "113649.379000", "113649.382000", "113649.385000", "113649.389000", "113649.392000", "113649.396000", "113649.399000", "113649.403000", "113649.406000", "113649.409000", "113649.413000", "113649.416000", "113649.420000", "113649.423000", "113649.427000", "113649.430000", "113729.341000", "113729.344000", "113729.348000", "113729.351000", "113729.355000", "113729.358000", "113729.361000", "113729.365000", "113729.368000", "113729.372000", "113729.375000", "113729.379000", "113729.382000", "113729.385000", "113729.389000", "113729.392000", "113729.396000", "113729.399000", "113729.402000", "113729.406000", "113729.409000", "113729.412000", "113729.416000", "113729.419000", "113729.423000", "113729.426000", "113729.429000", "113809.339000", "113809.343000", "113809.347000", "113809.350000", "113809.353000", "113809.357000", "113809.360000", "113809.364000", "113809.367000", "113809.372000", "113809.376000", "113809.379000", "113809.383000", "113809.386000", "113809.390000", "113809.393000", "113809.397000", "113809.400000", "113809.404000", "113809.407000", "113809.410000", "113809.414000", "113809.417000", "113809.421000", "113809.424000", "113809.427000", "113809.431000", "113849.339000", "113849.343000", "113849.346000", "113849.350000", "113849.353000", "113849.356000", "113849.360000", "113849.363000", "113849.367000", "113849.370000", "113849.373000", "113849.377000", "113849.380000", "113849.383000", "113849.387000", "113849.390000", "113849.394000", "113849.397000", "113849.400000", "113849.404000", "113849.407000", "113849.411000", "113849.414000", "113849.417000", "113849.421000", "113849.424000", "113849.428000", "113929.340000", "113929.344000", "113929.348000", "113929.351000", "113929.354000", "113929.358000", "113929.361000", "113929.365000", "113929.368000", "113929.372000", "113929.375000", "113929.378000", "113929.382000", "113929.385000", "113929.389000", "113929.392000", "113929.395000", "113929.399000", "113929.402000", "113929.405000", "113929.409000", "113929.412000", "113929.416000", "113929.419000", "113929.423000", "113929.426000", "113956.892000", "113956.897000", "113956.901000", "113956.905000", "113956.908000", "113956.912000", "113956.916000", "113956.919000", "113956.923000", "113956.926000", "113956.929000", "113956.933000", "113956.936000", "113956.940000", "113956.943000", "113956.947000", "113956.950000", "113956.953000", "113956.957000"],
