{
  "AcquisitionMatrixPE": 104,
  "AcquisitionNumber": 1,
  "AcquisitionTime": "14:03:25.275000",
  "BandwidthPerPixelPhaseEncode": 17.17,
  "BaseResolution": 104,
  "BodyPartExamined": "BRAIN",
  "CoilCombinationMethod": "Sum of Squares",
  "ConsistencyInfo": "N4_VE11C_LATEST_20160120",
  "ConversionSoftware": "dcm2niix",
  "ConversionSoftwareVersion": "v1.0.20211006",
  "DerivedVendorReportedEchoSpacing": 0.000560011,
  "DeviceSerialNumber": "167006",
  "DwellTime": 2.1e-06,
  "EchoTime": 0.037,
  "EchoTrainLength": 104,
  "EffectiveEchoSpacing": 0.000560011,
  "FlipAngle": 52,
  "HeudiconvVersion": "0.11.3.post9+gc939bf8",
  "ImageComments": "Unaliased MB4/PE3/LB",
  "ImageOrientationPatientDICOM": [0.999845, 0.0108408, 0.0138982, -0.0073293, 0.972801, -0.231525],
  "ImageOrientationText": "Tra>Cor(-13.4)>Sag(0.9)",
  "ImageType": [
    "ORIGINAL",
    "PRIMARY",
    "M",
    "MB",
    "ND",
    "MOSAIC"
],
  "ImagingFrequency": 123.259,
  "InPlanePhaseEncodingDirectionDICOM": "COL",
  "InstitutionAddress": "Chemin Queen-Mary 4565,Montreal,District,CA,H3W 1W5",
  "InstitutionName": "IUGM",
  "InstitutionalDepartmentName": "Department",
  "MRAcquisitionType": "2D",
  "MagneticFieldStrength": 3,
  "Manufacturer": "Siemens",
  "ManufacturersModelName": "Prisma_fit",
  "MatrixCoilMode": "SENSE",
  "Modality": "MR",
  "MultibandAccelerationFactor": 4,
  "PartialFourier": 1,
  "PatientPosition": "HFS",
  "PercentPhaseFOV": 100,
  "PercentSampling": 100,
  "PhaseEncodingDirection": "j",
  "PhaseEncodingSteps": 104,
  "PhaseResolution": 1,
  "PixelBandwidth": 2290,
  "ProcedureStepDescription": "games^mariostars",
  "ProtocolName": "func_task-mariostars_run-04",
  "PulseSequenceDetails": "%CustomerSeq%\\cmrr_mbep2d_bold",
  "ReceiveCoilActiveElements": "HC1-7;NC1,2",
  "ReceiveCoilName": "HeadNeck_64",
  "ReconMatrixPE": 104,
  "RepetitionTime": 1.49,
  "SAR": 0.0600532,
  "ScanOptions": "FS",
  "ScanningSequence": "EP",
  "SequenceName": "epfid2d1_104",
  "SequenceVariant": "SK\\SS",
  "SeriesDescription": "func_task-mariostars_run-04",
  "SeriesNumber": 20,
  "ShimSetting": [623, -7227, -8750, 707, 27, -35, 93, -11],
  "SliceThickness": 2,
  "SliceTiming": [0, 0.785, 0.1, 0.8825, 0.1975, 0.98, 0.295, 1.0775, 0.3925, 1.1775, 0.49, 1.275, 0.5875, 1.3725, 0.6875, 0, 0.785, 0.1, 0.8825, 0.1975, 0.98, 0.295, 1.0775, 0.3925, 1.1775, 0.49, 1.275, 0.5875, 1.3725, 0.6875, 0, 0.785, 0.1, 0.8825, 0.1975, 0.98, 0.295, 1.0775, 0.3925, 1.1775, 0.49, 1.275, 0.5875, 1.3725, 0.6875, 0, 0.785, 0.1, 0.8825, 0.1975, 0.98, 0.295, 1.0775, 0.3925, 1.1775, 0.49, 1.275, 0.5875, 1.3725, 0.6875],
  "SoftwareVersions": "syngo MR E11",
  "SpacingBetweenSlices": 2,
  "StationName": "MRC35049",
  "TaskName": "mariostars",
  "TotalReadoutTime": 0.0576811,
  "TxRefAmp": 253.418,
  "WipMemBlock": "56a36213-f4c6-4bfb-a1df-696137c49f08||Sequence: R016 ve11c/master r/e634e98; Dec 19 2017 11:00:25 by eja",
  "dcmmeta_affine": [
    [-1.9996893405914307, -0.014658607542514801, 0.03206011280417442, 108.94188690185547],
    [-0.021681571379303932, 1.9456027746200562, -0.46277374029159546, -74.84284210205078],
    [0.027796313166618347, 0.46304941177368164, 1.9454594850540161, -51.35407638549805],
    [0.0, 0.0, 0.0, 1.0]
],
  "dcmmeta_reorient_transform": [
    [0.0, -1.0, 0.0, 103.0],
    [1.0, 0.0, 0.0, 0.0],
    [0.0, 0.0, 1.0, 0.0],
    [0.0, 0.0, 0.0, 1.0]
],
  "dcmmeta_shape": [104, 104, 60, 479],
  "dcmmeta_slice_dim": 2,
  "dcmmeta_version": 0.6,
  "global": {
    "const": {
      "AcquisitionMatrix": [104, 0, 0, 104],
      "AngioFlag": "N",
      "BitsAllocated": 16,
      "BitsStored": 16,
      "BodyPartExamined": "BRAIN",
      "Columns": 832,
      "EchoNumbers": 1,
      "EchoTime": 37.0,
      "EchoTrainLength": 104,
      "FlipAngle": 52.0,
      "HighBit": 15,
      "ImageOrientationPatient": [0.99984464723316, 0.01084078600389, 0.01389815664097, -0.007329303981, 0.9728014147539, -0.2315247044183],
      "ImagePositionPatient": [-829.98322291076, -841.64576986227, 154.77213780259],
      "ImageType": [
        "ORIGINAL",
        "PRIMARY",
        "M",
        "MB",
        "ND",
        "MOSAIC"
],
      "ImagedNucleus": "1H",
      "ImagingFrequency": 123.258817,
      "InPlanePhaseEncodingDirection": "COL",
      "MRAcquisitionType": "2D",
      "MagneticFieldStrength": 3.0,
      "Manufacturer": "SIEMENS",
      "ManufacturerModelName": "Prisma_fit",
      "Modality": "MR",
      "NumberOfAverages": 1.0,
      "NumberOfPhaseEncodingSteps": 104,
      "PercentPhaseFieldOfView": 100.0,
      "PercentSampling": 100.0,
      "PerformedProcedureStepStartTime": "125910.491000",
      "PhotometricInterpretation": "MONOCHROME2",
      "PixelBandwidth": 2290.0,
      "PixelRepresentation": 0,
      "PixelSpacing": [2.0, 2.0],
      "ProtocolName": "func_task-mariostars_run-04",
      "RepetitionTime": 1490.0,
      "Rows": 832,
      "SAR": 0.06005318613427,
      "SamplesPerPixel": 1,
      "ScanOptions": "FS",
      "ScanningSequence": "EP",
      "SequenceName": "epfid2d1_104",
      "SequenceVariant": [
        "SK",
        "SS"
],
      "SeriesDescription": "func_task-mariostars_run-04",
      "SeriesNumber": 20,
      "SeriesTime": "140429.424000",
      "SliceLocation": -30.889643008216,
      "SliceThickness": 2.0,
      "SmallestImagePixelValue": 0,
      "SoftwareVersions": "syngo MR E11",
      "SpacingBetweenSlices": 2.0000000071878,
      "SpecificCharacterSet": "ISO_IR 100",
      "StudyID": "1",
      "StudyTime": "125910.369000",
      "TransmitCoilName": "Body",
      "VariableFlipAngleFlag": "N",
      "WindowCenterWidthExplanation": "Algo1",
      "dBdt": 0.0},
    "slices": {}
  },
  "time": {
    "samples": {
      "AcquisitionNumber": [1, 2, 3, 4, 5, 6, 7, 8, 9, 10, 11, 12, 13, 14, 15, 16, 17, 18, 19, 20, 21, 22, 23, 24, 25, 26, 27, 28, 29, 30, 31, 32, 33, 34, 35, 36, 37, 38, 39, 40, 41, 42, 43, 44, 45, 46, 47, 48, 49, 50, 51, 52, 53, 54, 55, 56, 57, 58, 59, 60, 61, 62, 63, 64, 65, 66, 67, 68, 69, 70, 71, 72, 73, 74, 75, 76, 77, 78, 79, 80, 81, 82, 83, 84, 85, 86, 87, 88, 89, 90, 91, 92, 93, 94, 95, 96, 97, 98, 99, 100, 101, 102, 103, 104, 105, 106, 107, 108, 109, 110, 111, 112, 113, 114, 115, 116, 117, 118, 119, 120, 121, 122, 123, 124, 125, 126, 127, 128, 129, 130, 131, 132, 133, 134, 135, 136, 137, 138, 139, 140, 141, 142, 143, 144, 145, 146, 147, 148, 149, 150, 151, 152, 153, 154, 155, 156, 157, 158, 159, 160, 161, 162, 163, 164, 165, 166, 167, 168, 169, 170, 171, 172, 173, 174, 175, 176, 177, 178, 179, 180, 181, 182, 183, 184, 185, 186, 187, 188, 189, 190, 191, 192, 193, 194, 195, 196, 197, 198, 199, 200, 201, 202, 203, 204, 205, 206, 207, 208, 209, 210, 211, 212, 213, 214, 215, 216, 217, 218, 219, 220, 221, 222, 223, 224, 225, 226, 227, 228, 229, 230, 231, 232, 233, 234, 235, 236, 237, 238, 239, 240, 241, 242, 243, 244, 245, 246, 247, 248, 249, 250, 251, 252, 253, 254, 255, 256, 257, 258, 259, 260, 261, 262, 263, 264, 265, 266, 267, 268, 269, 270, 271, 272, 273, 274, 275, 276, 277, 278, 279, 280, 281, 282, 283, 284, 285, 286, 287, 288, 289, 290, 291, 292, 293, 294, 295, 296, 297, 298, 299, 300, 301, 302, 303, 304, 305, 306, 307, 308, 309, 310, 311, 312, 313, 314, 315, 316, 317, 318, 319, 320, 321, 322, 323, 324, 325, 326, 327, 328, 329, 330, 331, 332, 333, 334, 335, 336, 337, 338, 339, 340, 341, 342, 343, 344, 345, 346, 347, 348, 349, 350, 351, 352, 353, 354, 355, 356, 357, 358, 359, 360, 361, 362, 363, 364, 365, 366, 367, 368, 369, 370, 371, 372, 373, 374, 375, 376, 377, 378, 379, 380, 381, 382, 383, 384, 385, 386, 387, 388, 389, 390, 391, 392, 393, 394, 395, 396, 397, 398, 399, 400, 401, 402, 403, 404, 405, 406, 407, 408, 409, 410, 411, 412, 413, 414, 415, 416, 417, 418, 419, 420, 421, 422, 423, 424, 425, 426, 427, 428, 429, 430, 431, 432, 433, 434, 435, 436, 437, 438, 439, 440, 441, 442, 443, 444, 445, 446, 447, 448, 449, 450, 451, 452, 453, 454, 455, 456, 457, 458, 459, 460, 461, 462, 463, 464, 465, 466, 467, 468, 469, 470, 471, 472, 473, 474, 475, 476, 477, 478, 479],
      "AcquisitionTime": ["140325.275000", "140326.765000", "140328.255000", "140329.745000", "140331.235000", "140332.725000", "140334.215000", "140335.705000", "140337.195000", "140338.685000", "140340.175000", "140341.665000", "140343.155000", "140344.645000", "140346.135000", "140347.625000", "140349.115000", "140350.605000", "140352.095000", "140353.585000", "140355.075000", "140356.565000", "140358.055000", "140359.545000", "140401.035000", "140402.525000", "140404.015000", "140405.505000", "140406.995000", "140408.485000", "140409.975000", "140411.465000", "140412.955000", "140414.445000", "140415.935000", "140417.425000", "140418.915000", "140420.405000", "140421.895000", "140423.385000", "140424.875000", "140426.365000", "140427.855000", "140429.345000", "140430.835000", "140432.325000", "140433.815000", "140435.305000", "140436.795000", "140438.285000", "140439.775000", "140441.265000", "140442.755000", "140444.245000", "140445.735000", "140447.225000", "140448.715000", "140450.205000", "140451.695000", "140453.185000", "140454.675000", "140456.165000", "140457.655000", "140459.145000", "140500.635000", "140502.125000", "140503.615000", "140505.105000", "140506.595000", "140508.085000", "140509.575000", "140511.065000", "140512.555000", "140514.045000", "140515.535000", "140517.025000", "140518.515000", "140520.005000", "140521.495000", "140522.985000", "140524.475000", "140525.965000", "140527.455000", "140528.945000", "140530.435000", "140531.925000", "140533.415000", "140534.905000", "140536.395000", "140537.885000", "140539.375000", "140540.865000", "140542.355000", "140543.845000", "140545.335000", "140546.825000", "140548.315000", "140549.805000", "140551.295000", "140552.785000", "140554.275000", "140555.765000", "140557.255000", "140558.745000", "140600.235000", "140601.725000", "140603.215000", "140604.705000", "140606.195000", "140607.685000", "140609.175000", "140610.665000", "140612.155000", "140613.645000", "140615.135000", "140616.625000", "140618.115000", "140619.605000", "140621.095000", "140622.585000", "140624.075000", "140625.565000", "140627.055000", "140628.545000", "140630.035000", "140631.525000", "140633.015000", "140634.505000", "140635.995000", "140637.485000", "140638.975000", "140640.465000", "140641.955000", "140643.445000", "140644.935000", "140646.425000", "140647.915000", "140649.405000", "140650.895000", "140652.385000", "140653.875000", "140655.365000", "140656.855000", "140658.345000", "140659.835000", "140701.325000", "140702.815000", "140704.305000", "140705.795000", "140707.285000", "140708.775000", "140710.265000", "140711.755000", "140713.245000", "140714.735000", "140716.225000", "140717.715000", "140719.205000", "140720.695000", "140722.185000", "140723.675000", "140725.165000", "140726.655000", "140728.145000", "140729.635000", "140731.125000", "140732.615000", "140734.105000", "140735.595000", "140737.085000", "140738.575000", "140740.065000", "140741.555000", "140743.045000", "140744.535000", "140746.025000", "140747.515000", "140749.005000", "140750.495000", "140751.985000", "140753.475000", "140754.965000", "140756.455000", "140757.945000", "140759.435000", "140800.925000", "140802.415000", "140803.905000", "140805.395000", "140806.885000", "140808.375000", "140809.865000", "140811.355000", "140812.845000", "140814.335000", "140815.825000", "140817.315000", "140818.805000", "140820.295000", "140821.785000", "140823.275000", "140824.765000", "140826.255000", "140827.745000", "140829.235000", "140830.725000", "140832.215000", "140833.705000", "140835.195000", "140836.685000", "140838.175000", "140839.665000", "140841.155000", "140842.645000", "140844.135000", "140845.625000", "140847.115000", "140848.605000", "140850.095000", "140851.585000", "140853.075000", "140854.565000", "140856.055000", "140857.545000", "140859.035000", "140900.525000", "140902.015000", "140903.505000", "140904.995000", "140906.485000", "140907.975000", "140909.465000", "140910.955000", "140912.445000", "140913.935000", "140915.425000", "140916.915000", "140918.405000", "140919.895000", "140921.385000", "140922.875000", "140924.365000", "140925.855000", "140927.345000", "140928.835000", "140930.325000", "140931.815000", "140933.305000", "140934.795000", "140936.285000", "140937.775000", "140939.265000", "140940.755000", "140942.245000", "140943.735000", "140945.225000", "140946.715000", "140948.205000", "140949.695000", "140951.185000", "140952.675000", "140954.165000", "140955.655000", "140957.145000", "140958.635000", "141000.125000", "141001.615000", "141003.105000", "141004.595000", "141006.085000", "141007.575000", "141009.065000", "141010.555000", "141012.045000", "141013.535000", "141015.025000", "141016.515000", "141018.005000", "141019.495000", "141020.985000", "141022.475000", "141023.965000", "141025.455000", "141026.945000", "141028.435000", "141029.925000", "141031.415000", "141032.905000", "141034.395000", "141035.885000", "141037.375000", "141038.865000", "141040.355000", "141041.845000", "141043.335000", "141044.825000", "141046.315000", "141047.805000", "141049.295000", "141050.785000", "141052.275000", "141053.765000", "141055.255000", "141056.745000", "141058.235000", "141059.725000", "141101.215000", "141102.705000", "141104.195000", "141105.685000", "141107.175000", "141108.665000", "141110.155000", "141111.645000", "141113.135000", "141114.625000", "141116.115000", "141117.605000", "141119.095000", "141120.585000", "141122.075000", "141123.565000", "141125.055000", "141126.545000", "141128.035000", "141129.525000", "141131.015000", "141132.505000", "141133.995000", "141135.485000", "141136.975000", "141138.465000", "141139.955000", "141141.445000", "141142.935000", "141144.425000", "141145.915000", "141147.405000", "141148.895000", "141150.385000", "141151.875000", "141153.365000", "141154.855000", "141156.345000", "141157.835000", "141159.325000", "141200.815000", "141202.305000", "141203.795000", "141205.285000", "141206.775000", "141208.265000", "141209.755000", "141211.245000", "141212.735000", "141214.225000", "141215.715000", "141217.205000", "141218.695000", "141220.185000", "141221.675000", "141223.165000", "141224.655000", "141226.145000", "141227.635000", "141229.125000", "141230.615000", "141232.105000", "141233.595000", "141235.085000", "141236.575000", "141238.065000", "141239.555000", "141241.045000", "141242.535000", "141244.025000", "141245.515000", "141247.005000", "141248.495000", "141249.985000", "141251.475000", "141252.965000", "141254.455000", "141255.945000", "141257.435000", "141258.925000", "141300.415000", "141301.905000", "141303.395000", "141304.885000", "141306.375000", "141307.865000", "141309.355000", "141310.845000", "141312.335000", "141313.825000", "141315.315000", "141316.805000", "141318.295000", "141319.785000", "141321.275000", "141322.765000", "141324.255000", "141325.745000", "141327.235000", "141328.725000", "141330.215000", "141331.705000", "141333.195000", "141334.685000", "141336.175000", "141337.665000", "141339.155000", "141340.645000", "141342.135000", "141343.625000", "141345.115000", "141346.605000", "141348.095000", "141349.585000", "141351.075000", "141352.565000", "141354.055000", "141355.545000", "141357.035000", "141358.525000", "141400.015000", "141401.505000", "141402.995000", "141404.485000", "141405.975000", "141407.465000", "141408.955000", "141410.445000", "141411.935000", "141413.425000", "141414.915000", "141416.405000", "141417.895000", "141419.385000", "141420.875000", "141422.365000", "141423.855000", "141425.345000", "141426.835000", "141428.325000", "141429.815000", "141431.305000", "141432.795000", "141434.285000", "141435.775000", "141437.265000", "141438.755000", "141440.245000", "141441.735000", "141443.225000", "141444.715000", "141446.205000", "141447.695000", "141449.185000", "141450.675000", "141452.165000", "141453.655000", "141455.145000", "141456.635000", "141458.125000", "141459.615000", "141501.105000", "141502.595000", "141504.085000", "141505.575000", "141507.065000", "141508.555000", "141510.045000", "141511.535000", "141513.025000", "141514.515000", "141516.005000", "141517.495000"],
      "ContentTime": ["140429.428000", "140429.432000", "140429.436000", "140429.439000", "140429.450000", "140429.453000", "140429.457000", "140429.460000", "140429.464000", "140449.386000", "140449.390000", "140449.394000", "140449.397000", "140449.400000", "140449.404000", "140449.407000", "140449.411000", "140449.414000", "140449.417000", "140449.421000", "140449.424000", "140449.427000", "140449.431000", "140449.434000", "140449.437000", "140449.441000", "140449.444000", "140449.448000", "140449.451000", "140449.454000", "140509.386000", "140509.390000", "140509.400000", "140509.403000", "140509.407000", "140509.410000", "140509.414000", "140509.417000", "140509.420000", "140509.424000", "140509.427000", "140509.431000", "140509.434000", "140509.438000", "140509.441000", "140509.444000", "140509.448000", "140509.451000", "140509.455000", "140509.458000", "140529.385000", "140529.389000", "140529.392000", "140529.396000", "140529.399000", "140529.403000", "140529.406000", "140529.410000", "140529.413000", "140529.416000", "140529.420000", "140529.427000", "140529.431000", "140529.434000", "140529.437000", "140529.441000", "140529.444000", "140529.448000", "140529.451000", "140529.454000", "140549.397000", "140549.401000", "140549.404000", "140549.408000", "140549.411000", "140549.414000", "140549.418000", "140549.421000", "140549.425000", "140549.428000", "140549.432000", "140549.435000", "140549.438000", "140549.442000", "140549.445000", "140549.449000", "140549.452000", "140549.455000", "140549.459000", "140549.462000", "140629.385000", "140629.389000", "140629.392000", "140629.396000", "140629.400000", "140629.404000", "140629.407000", "140629.411000", "140629.414000", "140629.417000", "140629.421000", "140629.424000", "140629.427000", "140629.431000", "140629.434000", "140629.438000", "140629.441000", "140629.444000", "140629.448000", "140629.451000", "140629.455000", "140629.458000", "140629.462000", "140629.465000", "140629.468000", "140629.472000", "140629.475000", "140629.478000", "140629.482000", "140629.485000", "140629.489000", "140629.492000", "140709.386000", "140709.390000", "140709.393000", "140709.397000", "140709.400000", "140709.404000", "140709.407000", "140709.411000", "140709.414000", "140709.417000", "140709.421000", "140709.424000", "140709.428000", "140709.431000", "140709.434000", "140709.438000", "140709.441000", "140709.445000", "140709.448000", "140709.452000", "140709.455000", "140709.458000", "140709.462000", "140709.465000", "140709.469000", "140709.472000", "140709.476000", "140749.385000", "140749.389000", "140749.392000", "140749.396000", "140749.399000", "140749.403000", "140749.406000", "140749.410000", "140749.413000", "140749.416000", "140749.420000", "140749.424000", "140749.427000", "140749.431000", "140749.434000", "140749.437000", "140749.441000", "140749.444000", "140749.448000", "140749.451000", "140749.455000", "140749.471000", "140749.474000", "140749.478000", "140749.481000", "140749.485000", "140749.488000", "140829.385000", "140829.389000", "140829.392000", "140829.396000", "140829.399000", "140829.403000", "140829.406000", "140829.410000", "140829.413000", "140829.416000", "140829.420000", "140829.423000", "140829.427000", "140829.430000", "140829.434000", "140829.437000", "140829.441000", "140829.444000", "140829.448000", "140829.451000", "140829.454000", "140829.458000", "140829.461000", "140829.465000", "140829.468000", "140829.471000", "140829.475000", "140909.386000", "140909.390000", "140909.393000", "140909.397000", "140909.400000", "140909.404000", "140909.407000", "140909.411000", "140909.414000", "140909.417000", "140909.421000", "140909.424000", "140909.428000", "140909.431000", "140909.435000", "140909.438000", "140909.441000", "140909.445000", "140909.448000", "140909.452000", "140909.455000", "140909.459000", "140909.462000", "140909.465000", "140909.469000", "140909.472000", "140909.476000", "140949.386000", "140949.390000", "140949.394000", "140949.397000", "140949.401000", "140949.404000", "140949.407000", "140949.411000", "140949.414000", "140949.418000", "140949.421000", "140949.425000", "140949.428000", "140949.432000", "140949.435000", "140949.438000", "140949.442000", "140949.445000", "140949.449000", "140949.452000", "140949.456000", "140949.459000", "140949.462000", "140949.466000", "140949.469000", "140949.473000", "140949.476000", "141029.385000", "141029.389000", "141029.392000", "141029.396000", "141029.399000", "141029.403000", "141029.406000", "141029.410000", "141029.413000", "141029.417000", "141029.421000", "141029.425000", "141029.428000", "141029.432000", "141029.436000", "141029.440000", "141029.444000", "141029.447000", "141029.451000", "141029.454000", "141029.458000", "141029.461000", "141029.465000", "141029.468000", "141029.471000", "141029.475000", "141049.385000", "141049.389000", "141049.393000", "141049.396000", "141049.399000", "141049.403000", "141049.406000", "141049.410000", "141049.413000", "141049.417000", "141049.420000", "141049.423000", "141049.427000", "141049.430000", "141129.386000", "141129.390000", "141129.394000", "141129.397000", "141129.401000", "141129.404000", "141129.407000", "141129.411000", "141129.414000", "141129.418000", "141129.421000", "141129.425000", "141129.428000", "141129.431000", "141129.435000", "141129.438000", "141129.442000", "141129.445000", "141129.449000", "141129.452000", "141129.456000", "141129.459000", "141129.462000", "141129.466000", "141129.469000", "141129.473000", "141129.476000", "141209.386000", "141209.398000", "141209.401000", "141209.405000", "141209.408000", "141209.411000", "141209.415000", "141209.418000", "141209.422000", "141209.425000", "141209.428000", "141209.432000", "141209.435000", "141209.439000", "141209.442000", "141209.445000", "141209.449000", "141209.452000", "141209.456000", "141209.459000", "141209.463000", "141209.466000", "141209.469000", "141209.473000", "141209.476000", "141209.480000", "141209.483000", "141249.385000", "141249.389000", "141249.392000", "141249.396000", "141249.401000", "141249.405000", "141249.408000", "141249.412000", "141249.415000", "141249.418000", "141249.422000", "141249.425000", "141249.429000", "141249.432000", "141249.436000", "141249.439000", "141249.443000", "141249.446000", "141249.449000", "141249.453000", "141249.456000", "141249.460000", "141249.463000", "141249.467000", "141249.470000", "141249.474000", "141329.385000", "141329.389000", "141329.392000", "141329.396000", "141329.399000", "141329.403000", "141329.406000", "141329.410000", "141329.413000", "141329.417000", "141329.420000", "141329.423000", "141329.427000", "141329.430000", "141329.434000", "141329.437000", "141329.441000", "141329.444000", "141329.447000", "141329.451000", "141329.454000", "141329.458000", "141329.461000", "141329.465000", "141329.468000", "141329.471000", "141329.475000", "141409.386000", "141409.390000", "141409.394000", "141409.397000", "141409.400000", "141409.404000", "141409.407000", "141409.411000", "141409.414000", "141409.418000", "141409.421000", "141409.424000", "141409.428000", "141409.431000", "141409.435000", "141409.438000", "141409.442000", "141409.445000", "141409.448000", "141409.452000", "141409.455000", "141409.459000", "141409.462000", "141409.465000", "141409.469000", "141409.472000", "141409.475000", "141449.386000", "141449.390000", "141449.394000", "141449.397000", "141449.421000", "141449.425000", "141449.429000", "141449.433000", "141449.437000", "141449.440000", "141449.444000", "141449.448000", "141449.452000", "141449.456000", "141449.459000", "141449.463000", "141449.466000", "141449.470000", "141449.473000", "141449.477000", "141449.481000", "141449.485000", "141449.488000", "141449.492000", "141449.495000", "141449.499000", "141449.502000", "141520.022000", "141520.025000", "141520.029000", "141520.032000", "141520.036000", "141520.039000", "141520.042000", "141520.046000", "141520.049000", "141520.053000", "141520.056000", "141520.059000", "141520.063000", "141520.066000", "141520.070000", "141520.073000", "141520.076000", "141520.080000", "141520.083000", "141520.087000", "141520.090000"],
