{
  "AcquisitionMatrixPE": 104,
  "AcquisitionNumber": 1,
  "AcquisitionTime": "13:22:20.785000",
  "BandwidthPerPixelPhaseEncode": 17.17,
  "BaseResolution": 104,
  "BodyPartExamined": "BRAIN",
  "CoilCombinationMethod": "Sum of Squares",
  "ConsistencyInfo": "N4_VE11C_LATEST_20160120",
  "ConversionSoftware": "dcm2niix",
  "ConversionSoftwareVersion": "v1.0.20211006",
  "DerivedVendorReportedEchoSpacing": 0.000560011,
  "DeviceSerialNumber": "167006",
  "DwellTime": 2.1e-06,
  "EchoTime": 0.037,
  "EchoTrainLength": 104,
  "EffectiveEchoSpacing": 0.000560011,
  "FlipAngle": 52,
  "HeudiconvVersion": "0.11.3.post9+gc939bf8",
  "ImageComments": "Unaliased MB4/PE3/LB",
  "ImageOrientationPatientDICOM": [0.999845, 0.0108408, 0.0138982, -0.0073293, 0.972801, -0.231525],
  "ImageOrientationText": "Tra>Cor(-13.4)>Sag(0.9)",
  "ImageType": [
    "ORIGINAL",
    "PRIMARY",
    "M",
    "MB",
    "ND",
    "MOSAIC"
],
  "ImagingFrequency": 123.259,
  "InPlanePhaseEncodingDirectionDICOM": "COL",
  "InstitutionAddress": "Chemin Queen-Mary 4565,Montreal,District,CA,H3W 1W5",
  "InstitutionName": "IUGM",
  "InstitutionalDepartmentName": "Department",
  "MRAcquisitionType": "2D",
  "MagneticFieldStrength": 3,
  "Manufacturer": "Siemens",
  "ManufacturersModelName": "Prisma_fit",
  "MatrixCoilMode": "SENSE",
  "Modality": "MR",
  "MultibandAccelerationFactor": 4,
  "PartialFourier": 1,
  "PatientPosition": "HFS",
  "PercentPhaseFOV": 100,
  "PercentSampling": 100,
  "PhaseEncodingDirection": "j",
  "PhaseEncodingSteps": 104,
  "PhaseResolution": 1,
  "PixelBandwidth": 2290,
  "ProcedureStepDescription": "games^mariostars",
  "ProtocolName": "func_task-mariostars_run-01",
  "PulseSequenceDetails": "%CustomerSeq%\\cmrr_mbep2d_bold",
  "ReceiveCoilActiveElements": "HC1-7;NC1,2",
  "ReceiveCoilName": "HeadNeck_64",
  "ReconMatrixPE": 104,
  "RepetitionTime": 1.49,
  "SAR": 0.0600532,
  "ScanOptions": "FS",
  "ScanningSequence": "EP",
  "SequenceName": "epfid2d1_104",
  "SequenceVariant": "SK\\SS",
  "SeriesDescription": "func_task-mariostars_run-01",
  "SeriesNumber": 11,
  "ShimSetting": [623, -7227, -8750, 707, 27, -35, 93, -11],
  "SliceThickness": 2,
  "SliceTiming": [0, 0.785, 0.0975, 0.8825, 0.195, 0.98, 0.295, 1.0775, 0.3925, 1.175, 0.49, 1.275, 0.5875, 1.3725, 0.685, 0, 0.785, 0.0975, 0.8825, 0.195, 0.98, 0.295, 1.0775, 0.3925, 1.175, 0.49, 1.275, 0.5875, 1.3725, 0.685, 0, 0.785, 0.0975, 0.8825, 0.195, 0.98, 0.295, 1.0775, 0.3925, 1.175, 0.49, 1.275, 0.5875, 1.3725, 0.685, 0, 0.785, 0.0975, 0.8825, 0.195, 0.98, 0.295, 1.0775, 0.3925, 1.175, 0.49, 1.275, 0.5875, 1.3725, 0.685],
  "SoftwareVersions": "syngo MR E11",
  "SpacingBetweenSlices": 2,
  "StationName": "MRC35049",
  "TaskName": "mariostars",
  "TotalReadoutTime": 0.0576811,
  "TxRefAmp": 253.418,
  "WipMemBlock": "e173b9d7-c0b1-4c0d-978f-f6e11b8e73f8||Sequence: R016 ve11c/master r/e634e98; Dec 19 2017 11:00:25 by eja",
  "dcmmeta_affine": [
    [-1.9996893405914307, -0.014658607542514801, 0.03206011280417442, 108.94188690185547],
    [-0.021681571379303932, 1.9456027746200562, -0.46277374029159546, -74.84284210205078],
    [0.027796313166618347, 0.46304941177368164, 1.9454594850540161, -51.35407638549805],
    [0.0, 0.0, 0.0, 1.0]
],
  "dcmmeta_reorient_transform": [
    [0.0, -1.0, 0.0, 103.0],
    [1.0, 0.0, 0.0, 0.0],
    [0.0, 0.0, 1.0, 0.0],
    [0.0, 0.0, 0.0, 1.0]
],
  "dcmmeta_shape": [104, 104, 60, 429],
  "dcmmeta_slice_dim": 2,
  "dcmmeta_version": 0.6,
  "global": {
    "const": {
      "AcquisitionMatrix": [104, 0, 0, 104],
      "AngioFlag": "N",
      "BitsAllocated": 16,
      "BitsStored": 16,
      "BodyPartExamined": "BRAIN",
      "Columns": 832,
      "EchoNumbers": 1,
      "EchoTime": 37.0,
      "EchoTrainLength": 104,
      "FlipAngle": 52.0,
      "HighBit": 15,
      "ImageOrientationPatient": [0.99984464723316, 0.01084078600389, 0.01389815664097, -0.007329303981, 0.9728014147539, -0.2315247044183],
      "ImagePositionPatient": [-829.98322291076, -841.64576986227, 154.77213780259],
      "ImageType": [
        "ORIGINAL",
        "PRIMARY",
        "M",
        "MB",
        "ND",
        "MOSAIC"
],
      "ImagedNucleus": "1H",
      "ImagingFrequency": 123.258793,
      "InPlanePhaseEncodingDirection": "COL",
      "MRAcquisitionType": "2D",
      "MagneticFieldStrength": 3.0,
      "Manufacturer": "SIEMENS",
      "ManufacturerModelName": "Prisma_fit",
      "Modality": "MR",
      "NumberOfAverages": 1.0,
      "NumberOfPhaseEncodingSteps": 104,
      "PercentPhaseFieldOfView": 100.0,
      "PercentSampling": 100.0,
      "PerformedProcedureStepStartTime": "125910.491000",
      "PhotometricInterpretation": "MONOCHROME2",
      "PixelBandwidth": 2290.0,
      "PixelRepresentation": 0,
      "PixelSpacing": [2.0, 2.0],
      "ProtocolName": "func_task-mariostars_run-01",
      "RepetitionTime": 1490.0,
      "Rows": 832,
      "SAR": 0.06005318613427,
      "SamplesPerPixel": 1,
      "ScanOptions": "FS",
      "ScanningSequence": "EP",
      "SequenceName": "epfid2d1_104",
      "SequenceVariant": [
        "SK",
        "SS"
],
      "SeriesDescription": "func_task-mariostars_run-01",
      "SeriesNumber": 11,
      "SeriesTime": "132349.426000",
      "SliceLocation": -30.889643008216,
      "SliceThickness": 2.0,
      "SmallestImagePixelValue": 0,
      "SoftwareVersions": "syngo MR E11",
      "SpacingBetweenSlices": 2.0000000071878,
      "SpecificCharacterSet": "ISO_IR 100",
      "StudyID": "1",
      "StudyTime": "125910.369000",
      "TransmitCoilName": "Body",
      "VariableFlipAngleFlag": "N",
      "WindowCenterWidthExplanation": "Algo1",
      "dBdt": 0.0},
    "slices": {}
  },
  "time": {
    "samples": {
      "AcquisitionNumber": [1, 2, 3, 4, 5, 6, 7, 8, 9, 10, 11, 12, 13, 14, 15, 16, 17, 18, 19, 20, 21, 22, 23, 24, 25, 26, 27, 28, 29, 30, 31, 32, 33, 34, 35, 36, 37, 38, 39, 40, 41, 42, 43, 44, 45, 46, 47, 48, 49, 50, 51, 52, 53, 54, 55, 56, 57, 58, 59, 60, 61, 62, 63, 64, 65, 66, 67, 68, 69, 70, 71, 72, 73, 74, 75, 76, 77, 78, 79, 80, 81, 82, 83, 84, 85, 86, 87, 88, 89, 90, 91, 92, 93, 94, 95, 96, 97, 98, 99, 100, 101, 102, 103, 104, 105, 106, 107, 108, 109, 110, 111, 112, 113, 114, 115, 116, 117, 118, 119, 120, 121, 122, 123, 124, 125, 126, 127, 128, 129, 130, 131, 132, 133, 134, 135, 136, 137, 138, 139, 140, 141, 142, 143, 144, 145, 146, 147, 148, 149, 150, 151, 152, 153, 154, 155, 156, 157, 158, 159, 160, 161, 162, 163, 164, 165, 166, 167, 168, 169, 170, 171, 172, 173, 174, 175, 176, 177, 178, 179, 180, 181, 182, 183, 184, 185, 186, 187, 188, 189, 190, 191, 192, 193, 194, 195, 196, 197, 198, 199, 200, 201, 202, 203, 204, 205, 206, 207, 208, 209, 210, 211, 212, 213, 214, 215, 216, 217, 218, 219, 220, 221, 222, 223, 224, 225, 226, 227, 228, 229, 230, 231, 232, 233, 234, 235, 236, 237, 238, 239, 240, 241, 242, 243, 244, 245, 246, 247, 248, 249, 250, 251, 252, 253, 254, 255, 256, 257, 258, 259, 260, 261, 262, 263, 264, 265, 266, 267, 268, 269, 270, 271, 272, 273, 274, 275, 276, 277, 278, 279, 280, 281, 282, 283, 284, 285, 286, 287, 288, 289, 290, 291, 292, 293, 294, 295, 296, 297, 298, 299, 300, 301, 302, 303, 304, 305, 306, 307, 308, 309, 310, 311, 312, 313, 314, 315, 316, 317, 318, 319, 320, 321, 322, 323, 324, 325, 326, 327, 328, 329, 330, 331, 332, 333, 334, 335, 336, 337, 338, 339, 340, 341, 342, 343, 344, 345, 346, 347, 348, 349, 350, 351, 352, 353, 354, 355, 356, 357, 358, 359, 360, 361, 362, 363, 364, 365, 366, 367, 368, 369, 370, 371, 372, 373, 374, 375, 376, 377, 378, 379, 380, 381, 382, 383, 384, 385, 386, 387, 388, 389, 390, 391, 392, 393, 394, 395, 396, 397, 398, 399, 400, 401, 402, 403, 404, 405, 406, 407, 408, 409, 410, 411, 412, 413, 414, 415, 416, 417, 418, 419, 420, 421, 422, 423, 424, 425, 426, 427, 428, 429],
      "AcquisitionTime": ["132220.785000", "132222.275000", "132223.765000", "132225.255000", "132226.745000", "132228.235000", "132229.725000", "132231.215000", "132232.705000", "132234.195000", "132235.685000", "132237.175000", "132238.665000", "132240.155000", "132241.645000", "132243.135000", "132244.625000", "132246.115000", "132247.605000", "132249.095000", "132250.585000", "132252.075000", "132253.565000", "132255.055000", "132256.545000", "132258.035000", "132259.525000", "132301.015000", "132302.505000", "132303.995000", "132305.485000", "132306.975000", "132308.465000", "132309.955000", "132311.445000", "132312.935000", "132314.425000", "132315.915000", "132317.405000", "132318.895000", "132320.385000", "132321.875000", "132323.365000", "132324.855000", "132326.345000", "132327.835000", "132329.325000", "132330.815000", "132332.305000", "132333.795000", "132335.285000", "132336.775000", "132338.265000", "132339.755000", "132341.245000", "132342.735000", "132344.225000", "132345.715000", "132347.205000", "132348.695000", "132350.185000", "132351.675000", "132353.165000", "132354.655000", "132356.145000", "132357.635000", "132359.125000", "132400.615000", "132402.105000", "132403.595000", "132405.085000", "132406.575000", "132408.065000", "132409.555000", "132411.045000", "132412.535000", "132414.025000", "132415.515000", "132417.005000", "132418.495000", "132419.985000", "132421.475000", "132422.965000", "132424.455000", "132425.945000", "132427.435000", "132428.925000", "132430.415000", "132431.905000", "132433.395000", "132434.885000", "132436.375000", "132437.865000", "132439.355000", "132440.845000", "132442.335000", "132443.825000", "132445.315000", "132446.805000", "132448.295000", "132449.785000", "132451.275000", "132452.765000", "132454.255000", "132455.745000", "132457.235000", "132458.725000", "132500.215000", "132501.705000", "132503.195000", "132504.685000", "132506.175000", "132507.665000", "132509.155000", "132510.645000", "132512.135000", "132513.625000", "132515.115000", "132516.605000", "132518.095000", "132519.585000", "132521.075000", "132522.565000", "132524.055000", "132525.545000", "132527.035000", "132528.525000", "132530.015000", "132531.505000", "132532.995000", "132534.485000", "132535.975000", "132537.465000", "132538.955000", "132540.445000", "132541.935000", "132543.425000", "132544.915000", "132546.405000", "132547.895000", "132549.385000", "132550.875000", "132552.365000", "132553.855000", "132555.345000", "132556.835000", "132558.325000", "132559.815000", "132601.305000", "132602.795000", "132604.285000", "132605.775000", "132607.265000", "132608.755000", "132610.245000", "132611.735000", "132613.225000", "132614.715000", "132616.205000", "132617.695000", "132619.185000", "132620.675000", "132622.165000", "132623.655000", "132625.145000", "132626.635000", "132628.125000", "132629.615000", "132631.105000", "132632.595000", "132634.085000", "132635.575000", "132637.065000", "132638.555000", "132640.045000", "132641.535000", "132643.025000", "132644.515000", "132646.005000", "132647.495000", "132648.985000", "132650.475000", "132651.965000", "132653.455000", "132654.945000", "132656.435000", "132657.925000", "132659.415000", "132700.905000", "132702.395000", "132703.885000", "132705.375000", "132706.865000", "132708.355000", "132709.845000", "132711.335000", "132712.825000", "132714.315000", "132715.805000", "132717.295000", "132718.785000", "132720.275000", "132721.765000", "132723.255000", "132724.745000", "132726.235000", "132727.725000", "132729.215000", "132730.705000", "132732.195000", "132733.685000", "132735.175000", "132736.665000", "132738.155000", "132739.645000", "132741.135000", "132742.625000", "132744.115000", "132745.605000", "132747.095000", "132748.585000", "132750.075000", "132751.565000", "132753.055000", "132754.545000", "132756.035000", "132757.525000", "132759.015000", "132800.505000", "132801.995000", "132803.485000", "132804.975000", "132806.465000", "132807.955000", "132809.445000", "132810.935000", "132812.425000", "132813.915000", "132815.405000", "132816.895000", "132818.385000", "132819.875000", "132821.365000", "132822.855000", "132824.345000", "132825.835000", "132827.325000", "132828.815000", "132830.305000", "132831.795000", "132833.285000", "132834.775000", "132836.265000", "132837.755000", "132839.245000", "132840.735000", "132842.225000", "132843.715000", "132845.205000", "132846.695000", "132848.185000", "132849.675000", "132851.165000", "132852.655000", "132854.145000", "132855.635000", "132857.125000", "132858.615000", "132900.105000", "132901.595000", "132903.085000", "132904.575000", "132906.065000", "132907.555000", "132909.045000", "132910.535000", "132912.025000", "132913.515000", "132915.005000", "132916.495000", "132917.985000", "132919.475000", "132920.965000", "132922.455000", "132923.945000", "132925.435000", "132926.925000", "132928.415000", "132929.905000", "132931.395000", "132932.885000", "132934.375000", "132935.865000", "132937.355000", "132938.845000", "132940.335000", "132941.825000", "132943.315000", "132944.805000", "132946.295000", "132947.785000", "132949.275000", "132950.765000", "132952.255000", "132953.745000", "132955.235000", "132956.725000", "132958.215000", "132959.705000", "133001.195000", "133002.685000", "133004.175000", "133005.665000", "133007.155000", "133008.645000", "133010.135000", "133011.625000", "133013.115000", "133014.605000", "133016.095000", "133017.585000", "133019.075000", "133020.565000", "133022.055000", "133023.545000", "133025.035000", "133026.525000", "133028.015000", "133029.505000", "133030.995000", "133032.485000", "133033.975000", "133035.465000", "133036.955000", "133038.445000", "133039.935000", "133041.425000", "133042.915000", "133044.405000", "133045.895000", "133047.385000", "133048.875000", "133050.365000", "133051.855000", "133053.345000", "133054.835000", "133056.325000", "133057.815000", "133059.305000", "133100.795000", "133102.285000", "133103.775000", "133105.265000", "133106.755000", "133108.245000", "133109.735000", "133111.225000", "133112.715000", "133114.205000", "133115.695000", "133117.185000", "133118.675000", "133120.165000", "133121.655000", "133123.145000", "133124.635000", "133126.125000", "133127.615000", "133129.105000", "133130.595000", "133132.085000", "133133.575000", "133135.065000", "133136.555000", "133138.045000", "133139.535000", "133141.025000", "133142.515000", "133144.005000", "133145.495000", "133146.985000", "133148.475000", "133149.965000", "133151.455000", "133152.945000", "133154.435000", "133155.925000", "133157.415000", "133158.905000", "133200.395000", "133201.885000", "133203.375000", "133204.865000", "133206.355000", "133207.845000", "133209.335000", "133210.825000", "133212.315000", "133213.805000", "133215.295000", "133216.785000", "133218.275000", "133219.765000", "133221.255000", "133222.745000", "133224.235000", "133225.725000", "133227.215000", "133228.705000", "133230.195000", "133231.685000", "133233.175000", "133234.665000", "133236.155000", "133237.645000", "133239.135000", "133240.625000", "133242.115000", "133243.605000", "133245.095000", "133246.585000", "133248.075000", "133249.565000", "133251.055000", "133252.545000", "133254.035000", "133255.525000", "133257.015000", "133258.505000"],
      "ContentTime": ["132349.429000", "132349.432000", "132349.436000", "132349.439000", "132349.451000", "132349.455000", "132349.468000", "132349.473000", "132349.478000", "132349.482000", "132349.485000", "132349.490000", "132349.513000", "132349.517000", "132349.520000", "132349.524000", "132349.527000", "132349.531000", "132349.534000", "132349.537000", "132349.541000", "132349.544000", "132349.553000", "132349.557000", "132349.560000", "132349.564000", "132349.567000", "132349.571000", "132349.574000", "132349.578000", "132349.581000", "132349.585000", "132349.594000", "132409.385000", "132409.389000", "132409.392000", "132409.396000", "132409.399000", "132409.403000", "132409.406000", "132409.410000", "132409.413000", "132409.416000", "132409.420000", "132409.423000", "132409.427000", "132409.430000", "132409.440000", "132409.443000", "132409.447000", "132409.450000", "132409.453000", "132409.457000", "132409.460000", "132429.385000", "132429.389000", "132429.392000", "132429.396000", "132429.399000", "132429.402000", "132429.406000", "132429.409000", "132429.413000", "132429.416000", "132429.419000", "132429.428000", "132429.432000", "132429.435000", "132429.438000", "132429.442000", "132429.445000", "132429.449000", "132429.452000", "132429.455000", "132449.385000", "132449.394000", "132449.398000", "132449.401000", "132449.405000", "132449.423000", "132449.427000", "132449.430000", "132449.434000", "132449.437000", "132449.440000", "132449.444000", "132449.448000", "132449.451000", "132449.454000", "132449.458000", "132449.461000", "132449.465000", "132449.468000", "132449.472000", "132529.386000", "132529.390000", "132529.393000", "132529.397000", "132529.408000", "132529.411000", "132529.415000", "132529.418000", "132529.422000", "132529.425000", "132529.429000", "132529.432000", "132529.436000", "132529.439000", "132529.448000", "132529.451000", "132529.455000", "132529.474000", "132529.477000", "132529.481000", "132529.484000", "132529.488000", "132529.491000", "132529.495000", "132529.498000", "132529.502000", "132529.505000", "132529.509000", "132529.512000", "132529.516000", "132529.519000", "132529.522000", "132609.386000", "132609.390000", "132609.394000", "132609.397000", "132609.401000", "132609.405000", "132609.408000", "132609.412000", "132609.415000", "132609.419000", "132609.437000", "132609.440000", "132609.444000", "132609.447000", "132609.450000", "132609.454000", "132609.457000", "132609.461000", "132609.464000", "132609.467000", "132609.478000", "132609.481000", "132609.485000", "132609.488000", "132609.492000", "132609.495000", "132649.385000", "132649.389000", "132649.392000", "132649.396000", "132649.399000", "132649.403000", "132649.406000", "132649.410000", "132649.413000", "132649.417000", "132649.420000", "132649.423000", "132649.427000", "132649.430000", "132649.434000", "132649.437000", "132649.441000", "132649.444000", "132649.447000", "132649.451000", "132649.454000", "132649.458000", "132649.461000", "132649.464000", "132649.468000", "132649.471000", "132649.475000", "132729.386000", "132729.390000", "132729.393000", "132729.397000", "132729.400000", "132729.404000", "132729.407000", "132729.410000", "132729.414000", "132729.417000", "132729.421000", "132729.435000", "132729.438000", "132729.442000", "132729.445000", "132729.449000", "132729.452000", "132729.455000", "132729.459000", "132729.462000", "132729.466000", "132729.469000", "132729.473000", "132729.476000", "132729.479000", "132729.483000", "132729.486000", "132809.386000", "132809.390000", "132809.393000", "132809.397000", "132809.400000", "132809.404000", "132809.407000", "132809.410000", "132809.414000", "132809.418000", "132809.421000", "132809.424000", "132809.428000", "132809.431000", "132809.435000", "132809.438000", "132809.448000", "132809.452000", "132809.455000", "132809.458000", "132809.462000", "132809.465000", "132809.469000", "132809.472000", "132809.476000", "132809.479000", "132809.483000", "132849.385000", "132849.389000", "132849.393000", "132849.396000", "132849.399000", "132849.403000", "132849.406000", "132849.410000", "132849.413000", "132849.417000", "132849.420000", "132849.431000", "132849.435000", "132849.438000", "132849.442000", "132849.445000", "132849.449000", "132849.452000", "132849.456000", "132849.459000", "132849.462000", "132849.466000", "132849.470000", "132849.473000", "132849.477000", "132849.480000", "132849.484000", "132929.385000", "132929.389000", "132929.392000", "132929.405000", "132929.409000", "132929.412000", "132929.416000", "132929.419000", "132929.423000", "132929.426000", "132929.430000", "132929.433000", "132929.437000", "132929.446000", "132929.450000", "132929.453000", "132929.457000", "132929.460000", "132929.463000", "132929.467000", "132929.470000", "132929.474000", "132929.477000", "132929.487000", "132929.490000", "132929.494000", "132929.497000", "133009.386000", "133009.390000", "133009.394000", "133009.397000", "133009.400000", "133009.404000", "133009.411000", "133009.415000", "133009.418000", "133009.430000", "133009.433000", "133009.437000", "133009.440000", "133009.444000", "133009.447000", "133009.451000", "133009.454000", "133009.457000", "133009.461000", "133009.464000", "133009.471000", "133009.474000", "133009.478000", "133009.481000", "133009.485000", "133009.488000", "133009.492000", "133049.385000", "133049.389000", "133049.393000", "133049.396000", "133049.399000", "133049.403000", "133049.411000", "133049.414000", "133049.418000", "133049.421000", "133049.425000", "133049.428000", "133049.432000", "133049.435000", "133049.438000", "133049.442000", "133049.445000", "133049.449000", "133049.452000", "133049.456000", "133049.459000", "133049.463000", "133049.466000", "133049.470000", "133049.473000", "133049.477000", "133129.385000", "133129.389000", "133129.392000", "133129.396000", "133129.399000", "133129.403000", "133129.406000", "133129.410000", "133129.413000", "133129.417000", "133129.420000", "133129.424000", "133129.435000", "133129.439000", "133129.442000", "133129.446000", "133129.449000", "133129.453000", "133129.464000", "133129.467000", "133129.470000", "133129.474000", "133129.477000", "133129.481000", "133129.484000", "133129.487000", "133129.491000", "133209.386000", "133209.390000", "133209.394000", "133209.397000", "133209.401000", "133209.404000", "133209.409000", "133209.413000", "133209.416000", "133209.420000", "133209.423000", "133209.427000", "133209.430000", "133209.434000", "133209.437000", "133209.440000", "133209.444000", "133209.447000", "133209.451000", "133209.454000", "133209.458000", "133209.461000", "133209.464000", "133209.468000", "133209.471000", "133209.475000", "133209.478000", "133249.386000", "133249.390000", "133249.393000", "133249.397000", "133249.400000", "133249.404000", "133249.407000", "133249.410000", "133249.414000", "133249.417000", "133249.421000", "133249.424000", "133249.428000", "133249.431000", "133249.434000", "133249.438000", "133249.441000", "133249.445000", "133249.448000", "133249.451000", "133249.455000", "133249.458000", "133249.471000", "133249.474000", "133249.477000", "133249.481000", "133249.484000", "133301.042000", "133301.046000", "133301.050000", "133301.053000", "133301.057000", "133301.060000", "133301.064000", "133301.067000"],
      "InstanceCreationTime": ["132349.429000", "132349.432000", "132349.436000", "132349.439000", "132349.451000", "132349.455000", "132349.468000", "132349.473000", "132349.478000", "132349.482000", "132349.485000", "132349.490000", "132349.513000", "132349.517000", "132349.520000", "132349.524000", "132349.527000", "132349.531000", "132349.534000", "132349.537000", "132349.541000", "132349.544000", "132349.553000", "132349.557000", "132349.560000", "132349.564000", "132349.567000", "132349.571000", "132349.574000", "132349.578000", "132349.581000", "132349.585000", "132349.594000", "132409.385000", "132409.389000", "132409.392000", "132409.396000", "132409.399000", "132409.403000", "132409.406000", "132409.410000", "132409.413000", "132409.416000", "132409.420000", "132409.423000", "132409.427000", "132409.430000", "132409.440000", "132409.443000", "132409.447000", "132409.450000", "132409.453000", "132409.457000", "132409.460000", "132429.385000", "132429.389000", "132429.392000", "132429.396000", "132429.399000", "132429.402000", "132429.406000", "132429.409000", "132429.413000", "132429.416000", "132429.419000", "132429.428000", "132429.432000", "132429.435000", "132429.438000", "132429.442000", "132429.445000", "132429.449000", "132429.452000", "132429.455000", "132449.385000", "132449.394000", "132449.398000", "132449.401000", "132449.405000", "132449.423000", "132449.427000", "132449.430000", "132449.434000", "132449.437000", "132449.440000", "132449.444000", "132449.448000", "132449.451000", "132449.454000", "132449.458000", "132449.461000", "132449.465000", "132449.468000", "132449.472000", "132529.386000", "132529.390000", "132529.393000", "132529.397000", "132529.408000", "132529.411000", "132529.415000", "132529.418000", "132529.422000", "132529.425000", "132529.429000", "132529.432000", "132529.436000", "132529.439000", "132529.448000", "132529.451000", "132529.455000", "132529.474000", "132529.477000", "132529.481000", "132529.484000", "132529.488000", "132529.491000", "132529.495000", "132529.498000", "132529.502000", "132529.505000", "132529.509000", "132529.512000", "132529.516000", "132529.519000", "132529.522000", "132609.386000", "132609.390000", "132609.394000", "132609.397000", "132609.401000", "132609.405000", "132609.408000", "132609.412000", "132609.415000", "132609.419000", "132609.437000", "132609.440000", "132609.444000", "132609.447000", "132609.450000", "132609.454000", "132609.457000", "132609.461000", "132609.464000", "132609.467000", "132609.478000", "132609.481000", "132609.485000", "132609.488000", "132609.492000", "132609.495000", "132649.385000", "132649.389000", "132649.392000", "132649.396000", "132649.399000", "132649.403000", "132649.406000", "132649.410000", "132649.413000", "132649.417000", "132649.420000", "132649.423000", "132649.427000", "132649.430000", "132649.434000", "132649.437000", "132649.441000", "132649.444000", "132649.447000", "132649.451000", "132649.454000", "132649.458000", "132649.461000", "132649.464000", "132649.468000", "132649.471000", "132649.475000", "132729.386000", "132729.390000", "132729.393000", "132729.397000", "132729.400000", "132729.404000", "132729.407000", "132729.410000", "132729.414000", "132729.417000", "132729.421000", "132729.435000", "132729.438000", "132729.442000", "132729.445000", "132729.449000", "132729.452000", "132729.455000", "132729.459000", "132729.462000", "132729.466000", "132729.469000", "132729.473000", "132729.476000", "132729.479000", "132729.483000", "132729.486000", "132809.386000", "132809.390000", "132809.393000", "132809.397000", "132809.400000", "132809.404000", "132809.407000", "132809.410000", "132809.414000", "132809.418000", "132809.421000", "132809.424000", "132809.428000", "132809.431000", "132809.435000", "132809.438000", "132809.448000", "132809.452000", "132809.455000", "132809.458000", "132809.462000", "132809.465000", "132809.469000", "132809.472000", "132809.476000", "132809.479000", "132809.483000", "132849.385000", "132849.389000", "132849.393000", "132849.396000", "132849.399000", "132849.403000", "132849.406000", "132849.410000", "132849.413000", "132849.417000", "132849.420000", "132849.431000", "132849.435000", "132849.438000", "132849.442000", "132849.445000", "132849.449000", "132849.452000", "132849.456000", "132849.459000", "132849.462000", "132849.466000", "132849.470000", "132849.473000", "132849.477000", "132849.480000", "132849.484000", "132929.385000", "132929.389000", "132929.392000", "132929.405000", "132929.409000", "132929.412000", "132929.416000", "132929.419000", "132929.423000", "132929.426000", "132929.430000", "132929.433000", "132929.437000", "132929.446000", "132929.450000", "132929.453000", "132929.457000", "132929.460000", "132929.463000", "132929.467000", "132929.470000", "132929.474000", "132929.477000", "132929.487000", "132929.490000", "132929.494000", "132929.497000", "133009.386000", "133009.390000", "133009.394000", "133009.397000", "133009.400000", "133009.404000", "133009.411000", "133009.415000", "133009.418000", "133009.430000", "133009.433000", "133009.437000", "133009.440000", "133009.444000", "133009.447000", "133009.451000", "133009.454000", "133009.457000", "133009.461000", "133009.464000", "133009.471000", "133009.474000", "133009.478000", "133009.481000", "133009.485000", "133009.488000", "133009.492000", "133049.385000", "133049.389000", "133049.393000", "133049.396000", "133049.399000", "133049.403000", "133049.411000", "133049.414000", "133049.418000", "133049.421000", "133049.425000", "133049.428000", "133049.432000", "133049.435000", "133049.438000", "133049.442000", "133049.445000", "133049.449000", "133049.452000", "133049.456000", "133049.459000", "133049.463000", "133049.466000", "133049.470000", "133049.473000", "133049.477000", "133129.385000", "133129.389000", "133129.392000", "133129.396000", "133129.399000", "133129.403000", "133129.406000", "133129.410000", "133129.413000", "133129.417000", "133129.420000", "133129.424000", "133129.435000", "133129.439000", "133129.442000", "133129.446000", "133129.449000", "133129.453000", "133129.464000", "133129.467000", "133129.470000", "133129.474000", "133129.477000", "133129.481000", "133129.484000", "133129.487000", "133129.491000", "133209.386000", "133209.390000", "133209.394000", "133209.397000", "133209.401000", "133209.404000", "133209.409000", "133209.413000", "133209.416000", "133209.420000", "133209.423000", "133209.427000", "133209.430000", "133209.434000", "133209.437000", "133209.440000", "133209.444000", "133209.447000", "133209.451000", "133209.454000", "133209.458000", "133209.461000", "133209.464000", "133209.468000", "133209.471000", "133209.475000", "133209.478000", "133249.386000", "133249.390000", "133249.393000", "133249.397000", "133249.400000", "133249.404000", "133249.407000", "133249.410000", "133249.414000", "133249.417000", "133249.421000", "133249.424000", "133249.428000", "133249.431000", "133249.434000", "133249.438000", "133249.441000", "133249.445000", "133249.448000", "133249.451000", "133249.455000", "133249.458000", "133249.471000", "133249.474000", "133249.477000", "133249.481000", "133249.484000", "133301.042000", "133301.046000", "133301.050000", "133301.053000", "133301.057000", "133301.060000", "133301.064000", "133301.067000"],
