{
  "AcquisitionMatrixPE": 104,
  "AcquisitionNumber": 1,
  "AcquisitionTime": "14:03:25.275000",
  "BandwidthPerPixelPhaseEncode": 17.17,
  "BaseResolution": 104,
  "BodyPartExamined": "BRAIN",
  "CoilCombinationMethod": "Sum of Squares",
  "ConsistencyInfo": "N4_VE11C_LATEST_20160120",
  "ConversionSoftware": "dcm2niix",
  "ConversionSoftwareVersion": "v1.0.20211006",
  "DerivedVendorReportedEchoSpacing": 0.000560011,
  "DeviceSerialNumber": "167006",
  "DwellTime": 2.1e-06,
  "EchoTime": 0.037,
  "EchoTime1": 0.037,
  "EchoTime2": 0.001,
  "EchoTrainLength": 104,
  "EffectiveEchoSpacing": 0.000560011,
  "FlipAngle": 52,
  "HeudiconvVersion": "0.11.3.post9+gc939bf8",
  "ImageComments": "Unaliased MB4/PE3/LB",
  "ImageOrientationPatientDICOM": [0.999845, 0.0108408, 0.0138982, -0.0073293, 0.972801, -0.231525],
  "ImageOrientationText": "Tra>Cor(-13.4)>Sag(0.9)",
  "ImageType": [
    "ORIGINAL",
    "PRIMARY",
    "P",
    "MB",
    "ND",
    "MOSAIC",
    "PHASE"
],
  "ImagingFrequency": 123.259,
  "InPlanePhaseEncodingDirectionDICOM": "COL",
  "InstitutionAddress": "Chemin Queen-Mary 4565,Montreal,District,CA,H3W 1W5",
  "InstitutionName": "IUGM",
  "InstitutionalDepartmentName": "Department",
  "MRAcquisitionType": "2D",
  "MagneticFieldStrength": 3,
  "Manufacturer": "Siemens",
  "ManufacturersModelName": "Prisma_fit",
  "MatrixCoilMode": "SENSE",
  "Modality": "MR",
  "MultibandAccelerationFactor": 4,
  "PartialFourier": 1,
  "PatientPosition": "HFS",
  "PercentPhaseFOV": 100,
  "PercentSampling": 100,
  "PhaseEncodingDirection": "j",
  "PhaseEncodingSteps": 104,
  "PhaseResolution": 1,
  "PixelBandwidth": 2290,
  "ProcedureStepDescription": "games^mariostars",
  "ProtocolName": "func_task-mariostars_run-04",
  "PulseSequenceDetails": "%CustomerSeq%\\cmrr_mbep2d_bold",
  "ReceiveCoilActiveElements": "HC1-7;NC1,2",
  "ReceiveCoilName": "HeadNeck_64",
  "ReconMatrixPE": 104,
  "RepetitionTime": 1.49,
  "SAR": 0.0600532,
  "ScanOptions": "FS",
  "ScanningSequence": "EP",
  "SequenceName": "epfid2d1_104",
  "SequenceVariant": "SK\\SS",
  "SeriesDescription": "func_task-mariostars_run-04",
  "SeriesNumber": 21,
  "ShimSetting": [623, -7227, -8750, 707, 27, -35, 93, -11],
  "SliceThickness": 2,
  "SliceTiming": [0, 0.785, 0.1, 0.8825, 0.1975, 0.98, 0.295, 1.0775, 0.3925, 1.1775, 0.49, 1.275, 0.5875, 1.3725, 0.6875, 0, 0.785, 0.1, 0.8825, 0.1975, 0.98, 0.295, 1.0775, 0.3925, 1.1775, 0.49, 1.275, 0.5875, 1.3725, 0.6875, 0, 0.785, 0.1, 0.8825, 0.1975, 0.98, 0.295, 1.0775, 0.3925, 1.1775, 0.49, 1.275, 0.5875, 1.3725, 0.6875, 0, 0.785, 0.1, 0.8825, 0.1975, 0.98, 0.295, 1.0775, 0.3925, 1.1775, 0.49, 1.275, 0.5875, 1.3725, 0.6875],
  "SoftwareVersions": "syngo MR E11",
  "SpacingBetweenSlices": 2,
  "StationName": "MRC35049",
  "TaskName": "mariostars",
  "TotalReadoutTime": 0.0576811,
  "TxRefAmp": 253.418,
  "WipMemBlock": "56a36213-f4c6-4bfb-a1df-696137c49f08||Sequence: R016 ve11c/master r/e634e98; Dec 19 2017 11:00:25 by eja",
  "dcmmeta_affine": [
    [-1.9996893405914307, -0.014658607542514801, 0.03206011280417442, 108.94188690185547],
    [-0.021681571379303932, 1.9456027746200562, -0.46277374029159546, -74.84284210205078],
    [0.027796313166618347, 0.46304941177368164, 1.9454594850540161, -51.35407638549805],
    [0.0, 0.0, 0.0, 1.0]
],
  "dcmmeta_reorient_transform": [
    [0.0, -1.0, 0.0, 103.0],
    [1.0, 0.0, 0.0, 0.0],
    [0.0, 0.0, 1.0, 0.0],
    [0.0, 0.0, 0.0, 1.0]
],
  "dcmmeta_shape": [104, 104, 60, 479],
  "dcmmeta_slice_dim": 2,
  "dcmmeta_version": 0.6,
  "global": {
    "const": {
      "AcquisitionMatrix": [104, 0, 0, 104],
      "AngioFlag": "N",
      "BitsAllocated": 16,
      "BitsStored": 16,
      "BodyPartExamined": "BRAIN",
      "Columns": 832,
      "EchoNumbers": 1,
      "EchoTime": 37.0,
      "EchoTrainLength": 104,
      "FlipAngle": 52.0,
      "HighBit": 15,
      "ImageOrientationPatient": [0.99984464723316, 0.01084078600389, 0.01389815664097, -0.007329303981, 0.9728014147539, -0.2315247044183],
      "ImagePositionPatient": [-829.98322291076, -841.64576986227, 154.77213780259],
      "ImageType": [
        "ORIGINAL",
        "PRIMARY",
        "P",
        "MB",
        "ND",
        "MOSAIC"
],
      "ImagedNucleus": "1H",
      "ImagingFrequency": 123.258817,
      "InPlanePhaseEncodingDirection": "COL",
      "LargestImagePixelValue": 4095,
      "MRAcquisitionType": "2D",
      "MagneticFieldStrength": 3.0,
      "Manufacturer": "SIEMENS",
      "ManufacturerModelName": "Prisma_fit",
      "Modality": "MR",
      "NumberOfAverages": 1.0,
      "NumberOfPhaseEncodingSteps": 104,
      "PercentPhaseFieldOfView": 100.0,
      "PercentSampling": 100.0,
      "PerformedProcedureStepStartTime": "125910.491000",
      "PhotometricInterpretation": "MONOCHROME2",
      "PixelBandwidth": 2290.0,
      "PixelRepresentation": 0,
      "PixelSpacing": [2.0, 2.0],
      "ProtocolName": "func_task-mariostars_run-04",
      "RepetitionTime": 1490.0,
      "RescaleIntercept": -4096.0,
      "RescaleSlope": 2.0,
      "RescaleType": "US",
      "Rows": 832,
      "SAR": 0.06005318613427,
      "SamplesPerPixel": 1,
      "ScanOptions": "FS",
      "ScanningSequence": "EP",
      "SequenceName": "epfid2d1_104",
      "SequenceVariant": [
        "SK",
        "SS"
],
      "SeriesDescription": "func_task-mariostars_run-04",
      "SeriesNumber": 21,
      "SeriesTime": "140429.522000",
      "SliceLocation": -30.889643008216,
      "SliceThickness": 2.0,
      "SmallestImagePixelValue": 0,
      "SoftwareVersions": "syngo MR E11",
      "SpacingBetweenSlices": 2.0000000071878,
      "SpecificCharacterSet": "ISO_IR 100",
      "StudyID": "1",
      "StudyTime": "125910.369000",
      "TransmitCoilName": "Body",
      "VariableFlipAngleFlag": "N",
      "WindowCenterWidthExplanation": "Algo1",
      "dBdt": 0.0},
    "slices": {}
  },
  "time": {
    "samples": {
      "AcquisitionNumber": [1, 2, 3, 4, 5, 6, 7, 8, 9, 10, 11, 12, 13, 14, 15, 16, 17, 18, 19, 20, 21, 22, 23, 24, 25, 26, 27, 28, 29, 30, 31, 32, 33, 34, 35, 36, 37, 38, 39, 40, 41, 42, 43, 44, 45, 46, 47, 48, 49, 50, 51, 52, 53, 54, 55, 56, 57, 58, 59, 60, 61, 62, 63, 64, 65, 66, 67, 68, 69, 70, 71, 72, 73, 74, 75, 76, 77, 78, 79, 80, 81, 82, 83, 84, 85, 86, 87, 88, 89, 90, 91, 92, 93, 94, 95, 96, 97, 98, 99, 100, 101, 102, 103, 104, 105, 106, 107, 108, 109, 110, 111, 112, 113, 114, 115, 116, 117, 118, 119, 120, 121, 122, 123, 124, 125, 126, 127, 128, 129, 130, 131, 132, 133, 134, 135, 136, 137, 138, 139, 140, 141, 142, 143, 144, 145, 146, 147, 148, 149, 150, 151, 152, 153, 154, 155, 156, 157, 158, 159, 160, 161, 162, 163, 164, 165, 166, 167, 168, 169, 170, 171, 172, 173, 174, 175, 176, 177, 178, 179, 180, 181, 182, 183, 184, 185, 186, 187, 188, 189, 190, 191, 192, 193, 194, 195, 196, 197, 198, 199, 200, 201, 202, 203, 204, 205, 206, 207, 208, 209, 210, 211, 212, 213, 214, 215, 216, 217, 218, 219, 220, 221, 222, 223, 224, 225, 226, 227, 228, 229, 230, 231, 232, 233, 234, 235, 236, 237, 238, 239, 240, 241, 242, 243, 244, 245, 246, 247, 248, 249, 250, 251, 252, 253, 254, 255, 256, 257, 258, 259, 260, 261, 262, 263, 264, 265, 266, 267, 268, 269, 270, 271, 272, 273, 274, 275, 276, 277, 278, 279, 280, 281, 282, 283, 284, 285, 286, 287, 288, 289, 290, 291, 292, 293, 294, 295, 296, 297, 298, 299, 300, 301, 302, 303, 304, 305, 306, 307, 308, 309, 310, 311, 312, 313, 314, 315, 316, 317, 318, 319, 320, 321, 322, 323, 324, 325, 326, 327, 328, 329, 330, 331, 332, 333, 334, 335, 336, 337, 338, 339, 340, 341, 342, 343, 344, 345, 346, 347, 348, 349, 350, 351, 352, 353, 354, 355, 356, 357, 358, 359, 360, 361, 362, 363, 364, 365, 366, 367, 368, 369, 370, 371, 372, 373, 374, 375, 376, 377, 378, 379, 380, 381, 382, 383, 384, 385, 386, 387, 388, 389, 390, 391, 392, 393, 394, 395, 396, 397, 398, 399, 400, 401, 402, 403, 404, 405, 406, 407, 408, 409, 410, 411, 412, 413, 414, 415, 416, 417, 418, 419, 420, 421, 422, 423, 424, 425, 426, 427, 428, 429, 430, 431, 432, 433, 434, 435, 436, 437, 438, 439, 440, 441, 442, 443, 444, 445, 446, 447, 448, 449, 450, 451, 452, 453, 454, 455, 456, 457, 458, 459, 460, 461, 462, 463, 464, 465, 466, 467, 468, 469, 470, 471, 472, 473, 474, 475, 476, 477, 478, 479],
      "AcquisitionTime": ["140325.275000", "140326.765000", "140328.255000", "140329.745000", "140331.235000", "140332.725000", "140334.215000", "140335.705000", "140337.195000", "140338.685000", "140340.175000", "140341.665000", "140343.155000", "140344.645000", "140346.135000", "140347.625000", "140349.115000", "140350.605000", "140352.095000", "140353.585000", "140355.075000", "140356.565000", "140358.055000", "140359.545000", "140401.035000", "140402.525000", "140404.015000", "140405.505000", "140406.995000", "140408.485000", "140409.975000", "140411.465000", "140412.955000", "140414.445000", "140415.935000", "140417.425000", "140418.915000", "140420.405000", "140421.895000", "140423.385000", "140424.875000", "140426.365000", "140427.855000", "140429.345000", "140430.835000", "140432.325000", "140433.815000", "140435.305000", "140436.795000", "140438.285000", "140439.775000", "140441.265000", "140442.755000", "140444.245000", "140445.735000", "140447.225000", "140448.715000", "140450.205000", "140451.695000", "140453.185000", "140454.675000", "140456.165000", "140457.655000", "140459.145000", "140500.635000", "140502.125000", "140503.615000", "140505.105000", "140506.595000", "140508.085000", "140509.575000", "140511.065000", "140512.555000", "140514.045000", "140515.535000", "140517.025000", "140518.515000", "140520.005000", "140521.495000", "140522.985000", "140524.475000", "140525.965000", "140527.455000", "140528.945000", "140530.435000", "140531.925000", "140533.415000", "140534.905000", "140536.395000", "140537.885000", "140539.375000", "140540.865000", "140542.355000", "140543.845000", "140545.335000", "140546.825000", "140548.315000", "140549.805000", "140551.295000", "140552.785000", "140554.275000", "140555.765000", "140557.255000", "140558.745000", "140600.235000", "140601.725000", "140603.215000", "140604.705000", "140606.195000", "140607.685000", "140609.175000", "140610.665000", "140612.155000", "140613.645000", "140615.135000", "140616.625000", "140618.115000", "140619.605000", "140621.095000", "140622.585000", "140624.075000", "140625.565000", "140627.055000", "140628.545000", "140630.035000", "140631.525000", "140633.015000", "140634.505000", "140635.995000", "140637.485000", "140638.975000", "140640.465000", "140641.955000", "140643.445000", "140644.935000", "140646.425000", "140647.915000", "140649.405000", "140650.895000", "140652.385000", "140653.875000", "140655.365000", "140656.855000", "140658.345000", "140659.835000", "140701.325000", "140702.815000", "140704.305000", "140705.795000", "140707.285000", "140708.775000", "140710.265000", "140711.755000", "140713.245000", "140714.735000", "140716.225000", "140717.715000", "140719.205000", "140720.695000", "140722.185000", "140723.675000", "140725.165000", "140726.655000", "140728.145000", "140729.635000", "140731.125000", "140732.615000", "140734.105000", "140735.595000", "140737.085000", "140738.575000", "140740.065000", "140741.555000", "140743.045000", "140744.535000", "140746.025000", "140747.515000", "140749.005000", "140750.495000", "140751.985000", "140753.475000", "140754.965000", "140756.455000", "140757.945000", "140759.435000", "140800.925000", "140802.415000", "140803.905000", "140805.395000", "140806.885000", "140808.375000", "140809.865000", "140811.355000", "140812.845000", "140814.335000", "140815.825000", "140817.315000", "140818.805000", "140820.295000", "140821.785000", "140823.275000", "140824.765000", "140826.255000", "140827.745000", "140829.235000", "140830.725000", "140832.215000", "140833.705000", "140835.195000", "140836.685000", "140838.175000", "140839.665000", "140841.155000", "140842.645000", "140844.135000", "140845.625000", "140847.115000", "140848.605000", "140850.095000", "140851.585000", "140853.075000", "140854.565000", "140856.055000", "140857.545000", "140859.035000", "140900.525000", "140902.015000", "140903.505000", "140904.995000", "140906.485000", "140907.975000", "140909.465000", "140910.955000", "140912.445000", "140913.935000", "140915.425000", "140916.915000", "140918.405000", "140919.895000", "140921.385000", "140922.875000", "140924.365000", "140925.855000", "140927.345000", "140928.835000", "140930.325000", "140931.815000", "140933.305000", "140934.795000", "140936.285000", "140937.775000", "140939.265000", "140940.755000", "140942.245000", "140943.735000", "140945.225000", "140946.715000", "140948.205000", "140949.695000", "140951.185000", "140952.675000", "140954.165000", "140955.655000", "140957.145000", "140958.635000", "141000.125000", "141001.615000", "141003.105000", "141004.595000", "141006.085000", "141007.575000", "141009.065000", "141010.555000", "141012.045000", "141013.535000", "141015.025000", "141016.515000", "141018.005000", "141019.495000", "141020.985000", "141022.475000", "141023.965000", "141025.455000", "141026.945000", "141028.435000", "141029.925000", "141031.415000", "141032.905000", "141034.395000", "141035.885000", "141037.375000", "141038.865000", "141040.355000", "141041.845000", "141043.335000", "141044.825000", "141046.315000", "141047.805000", "141049.295000", "141050.785000", "141052.275000", "141053.765000", "141055.255000", "141056.745000", "141058.235000", "141059.725000", "141101.215000", "141102.705000", "141104.195000", "141105.685000", "141107.175000", "141108.665000", "141110.155000", "141111.645000", "141113.135000", "141114.625000", "141116.115000", "141117.605000", "141119.095000", "141120.585000", "141122.075000", "141123.565000", "141125.055000", "141126.545000", "141128.035000", "141129.525000", "141131.015000", "141132.505000", "141133.995000", "141135.485000", "141136.975000", "141138.465000", "141139.955000", "141141.445000", "141142.935000", "141144.425000", "141145.915000", "141147.405000", "141148.895000", "141150.385000", "141151.875000", "141153.365000", "141154.855000", "141156.345000", "141157.835000", "141159.325000", "141200.815000", "141202.305000", "141203.795000", "141205.285000", "141206.775000", "141208.265000", "141209.755000", "141211.245000", "141212.735000", "141214.225000", "141215.715000", "141217.205000", "141218.695000", "141220.185000", "141221.675000", "141223.165000", "141224.655000", "141226.145000", "141227.635000", "141229.125000", "141230.615000", "141232.105000", "141233.595000", "141235.085000", "141236.575000", "141238.065000", "141239.555000", "141241.045000", "141242.535000", "141244.025000", "141245.515000", "141247.005000", "141248.495000", "141249.985000", "141251.475000", "141252.965000", "141254.455000", "141255.945000", "141257.435000", "141258.925000", "141300.415000", "141301.905000", "141303.395000", "141304.885000", "141306.375000", "141307.865000", "141309.355000", "141310.845000", "141312.335000", "141313.825000", "141315.315000", "141316.805000", "141318.295000", "141319.785000", "141321.275000", "141322.765000", "141324.255000", "141325.745000", "141327.235000", "141328.725000", "141330.215000", "141331.705000", "141333.195000", "141334.685000", "141336.175000", "141337.665000", "141339.155000", "141340.645000", "141342.135000", "141343.625000", "141345.115000", "141346.605000", "141348.095000", "141349.585000", "141351.075000", "141352.565000", "141354.055000", "141355.545000", "141357.035000", "141358.525000", "141400.015000", "141401.505000", "141402.995000", "141404.485000", "141405.975000", "141407.465000", "141408.955000", "141410.445000", "141411.935000", "141413.425000", "141414.915000", "141416.405000", "141417.895000", "141419.385000", "141420.875000", "141422.365000", "141423.855000", "141425.345000", "141426.835000", "141428.325000", "141429.815000", "141431.305000", "141432.795000", "141434.285000", "141435.775000", "141437.265000", "141438.755000", "141440.245000", "141441.735000", "141443.225000", "141444.715000", "141446.205000", "141447.695000", "141449.185000", "141450.675000", "141452.165000", "141453.655000", "141455.145000", "141456.635000", "141458.125000", "141459.615000", "141501.105000", "141502.595000", "141504.085000", "141505.575000", "141507.065000", "141508.555000", "141510.045000", "141511.535000", "141513.025000", "141514.515000", "141516.005000", "141517.495000"],
      "ContentTime": ["140429.525000", "140429.528000", "140429.531000", "140429.534000", "140429.536000", "140429.539000", "140429.542000", "140429.544000", "140429.547000", "140449.516000", "140449.518000", "140449.521000", "140449.524000", "140449.526000", "140449.529000", "140449.531000", "140449.534000", "140449.536000", "140449.539000", "140449.541000", "140449.544000", "140449.546000", "140449.549000", "140449.551000", "140449.554000", "140449.556000", "140449.559000", "140449.569000", "140449.573000", "140449.576000", "140509.930000", "140509.933000", "140509.935000", "140509.938000", "140509.940000", "140509.943000", "140509.945000", "140509.948000", "140509.951000", "140509.953000", "140509.956000", "140509.958000", "140509.961000", "140509.963000", "140509.966000", "140509.968000", "140509.971000", "140509.973000", "140509.976000", "140509.979000", "140529.507000", "140529.509000", "140529.512000", "140529.515000", "140529.517000", "140529.520000", "140529.522000", "140529.525000", "140529.527000", "140529.530000", "140529.532000", "140529.535000", "140529.537000", "140529.540000", "140529.543000", "140529.545000", "140529.548000", "140529.550000", "140529.553000", "140529.555000", "140549.500000", "140549.503000", "140549.512000", "140549.514000", "140549.517000", "140549.519000", "140549.522000", "140549.524000", "140549.527000", "140549.529000", "140549.532000", "140549.534000", "140549.537000", "140549.539000", "140549.542000", "140549.545000", "140549.547000", "140549.550000", "140549.552000", "140549.555000", "140629.549000", "140629.552000", "140629.555000", "140629.558000", "140629.561000", "140629.563000", "140629.566000", "140629.568000", "140629.571000", "140629.574000", "140629.576000", "140629.579000", "140629.581000", "140629.584000", "140629.586000", "140629.589000", "140629.591000", "140629.594000", "140629.597000", "140629.599000", "140629.602000", "140629.604000", "140629.607000", "140629.609000", "140629.612000", "140629.614000", "140629.617000", "140629.620000", "140629.622000", "140629.625000", "140629.627000", "140629.630000", "140709.528000", "140709.531000", "140709.533000", "140709.536000", "140709.539000", "140709.541000", "140709.544000", "140709.546000", "140709.549000", "140709.551000", "140709.554000", "140709.556000", "140709.559000", "140709.562000", "140709.564000", "140709.567000", "140709.569000", "140709.572000", "140709.574000", "140709.577000", "140709.580000", "140709.582000", "140709.585000", "140709.587000", "140709.590000", "140709.592000", "140709.595000", "140749.541000", "140749.544000", "140749.547000", "140749.550000", "140749.552000", "140749.555000", "140749.557000", "140749.560000", "140749.562000", "140749.565000", "140749.567000", "140749.570000", "140749.573000", "140749.575000", "140749.578000", "140749.580000", "140749.583000", "140749.585000", "140749.588000", "140749.591000", "140749.593000", "140749.596000", "140749.598000", "140749.601000", "140749.603000", "140749.606000", "140749.608000", "140829.532000", "140829.535000", "140829.537000", "140829.540000", "140829.542000", "140829.545000", "140829.547000", "140829.550000", "140829.553000", "140829.555000", "140829.558000", "140829.560000", "140829.563000", "140829.565000", "140829.568000", "140829.571000", "140829.573000", "140829.576000", "140829.578000", "140829.581000", "140829.583000", "140829.586000", "140829.588000", "140829.591000", "140829.593000", "140829.596000", "140829.598000", "140909.529000", "140909.532000", "140909.535000", "140909.537000", "140909.540000", "140909.542000", "140909.545000", "140909.547000", "140909.550000", "140909.552000", "140909.555000", "140909.558000", "140909.560000", "140909.563000", "140909.565000", "140909.568000", "140909.571000", "140909.573000", "140909.576000", "140909.578000", "140909.581000", "140909.583000", "140909.586000", "140909.588000", "140909.591000", "140909.594000", "140909.596000", "140949.525000", "140949.528000", "140949.531000", "140949.533000", "140949.536000", "140949.538000", "140949.541000", "140949.544000", "140949.546000", "140949.549000", "140949.551000", "140949.554000", "140949.556000", "140949.559000", "140949.561000", "140949.564000", "140949.567000", "140949.569000", "140949.572000", "140949.574000", "140949.577000", "140949.579000", "140949.582000", "140949.585000", "140949.587000", "140949.590000", "140949.592000", "141029.527000", "141029.530000", "141029.533000", "141029.535000", "141029.538000", "141029.540000", "141029.543000", "141029.546000", "141029.548000", "141029.551000", "141029.553000", "141029.556000", "141029.558000", "141029.561000", "141029.564000", "141029.566000", "141029.569000", "141029.571000", "141029.574000", "141029.576000", "141029.579000", "141029.581000", "141029.584000", "141029.587000", "141029.589000", "141029.592000", "141049.469000", "141049.471000", "141049.474000", "141049.476000", "141049.479000", "141049.482000", "141049.484000", "141049.487000", "141049.489000", "141049.492000", "141049.494000", "141049.497000", "141049.500000", "141049.502000", "141129.541000", "141129.544000", "141129.546000", "141129.549000", "141129.551000", "141129.554000", "141129.557000", "141129.559000", "141129.562000", "141129.564000", "141129.567000", "141129.569000", "141129.572000", "141129.575000", "141129.577000", "141129.580000", "141129.582000", "141129.585000", "141129.588000", "141129.590000", "141129.593000", "141129.595000", "141129.598000", "141129.600000", "141129.603000", "141129.606000", "141129.608000", "141209.537000", "141209.540000", "141209.543000", "141209.545000", "141209.548000", "141209.550000", "141209.553000", "141209.556000", "141209.558000", "141209.561000", "141209.563000", "141209.566000", "141209.568000", "141209.571000", "141209.573000", "141209.576000", "141209.579000", "141209.581000", "141209.584000", "141209.586000", "141209.589000", "141209.591000", "141209.603000", "141209.605000", "141209.608000", "141209.610000", "141209.613000", "141249.529000", "141249.532000", "141249.534000", "141249.537000", "141249.539000", "141249.542000", "141249.544000", "141249.547000", "141249.550000", "141249.552000", "141249.555000", "141249.557000", "141249.560000", "141249.562000", "141249.565000", "141249.568000", "141249.570000", "141249.573000", "141249.575000", "141249.578000", "141249.580000", "141249.583000", "141249.585000", "141249.588000", "141249.591000", "141249.593000", "141329.531000", "141329.533000", "141329.536000", "141329.539000", "141329.541000", "141329.544000", "141329.546000", "141329.549000", "141329.551000", "141329.554000", "141329.557000", "141329.559000", "141329.562000", "141329.564000", "141329.567000", "141329.569000", "141329.573000", "141329.576000", "141329.578000", "141329.581000", "141329.583000", "141329.586000", "141329.588000", "141329.592000", "141329.595000", "141329.597000", "141329.600000", "141409.529000", "141409.531000", "141409.534000", "141409.536000", "141409.539000", "141409.542000", "141409.544000", "141409.547000", "141409.549000", "141409.552000", "141409.554000", "141409.557000", "141409.560000", "141409.562000", "141409.565000", "141409.568000", "141409.570000", "141409.573000", "141409.575000", "141409.578000", "141409.580000", "141409.583000", "141409.586000", "141409.588000", "141409.591000", "141409.593000", "141409.596000", "141449.548000", "141449.551000", "141449.554000", "141449.556000", "141449.559000", "141449.561000", "141449.564000", "141449.567000", "141449.569000", "141449.572000", "141449.574000", "141449.577000", "141449.579000", "141449.582000", "141449.585000", "141449.587000", "141449.590000", "141449.592000", "141449.595000", "141449.598000", "141449.600000", "141449.603000", "141449.605000", "141449.608000", "141449.610000", "141449.613000", "141449.616000", "141520.139000", "141520.142000", "141520.144000", "141520.147000", "141520.149000", "141520.152000", "141520.154000", "141520.157000", "141520.243000", "141520.246000", "141520.248000", "141520.251000", "141520.254000", "141520.257000", "141520.259000", "141520.262000", "141520.264000", "141520.267000", "141520.270000", "141520.272000", "141520.275000"],
