{
  "AcquisitionMatrixPE": 104,
  "AcquisitionNumber": 1,
  "AcquisitionTime": "13:35:54.687500",
  "BandwidthPerPixelPhaseEncode": 17.17,
  "BaseResolution": 104,
  "BodyPartExamined": "BRAIN",
  "CoilCombinationMethod": "Sum of Squares",
  "ConsistencyInfo": "N4_VE11C_LATEST_20160120",
  "ConversionSoftware": "dcm2niix",
  "ConversionSoftwareVersion": "v1.0.20211006",
  "DerivedVendorReportedEchoSpacing": 0.000560011,
  "DeviceSerialNumber": "167006",
  "DwellTime": 2.1e-06,
  "EchoTime": 0.037,
  "EchoTime1": 0.037,
  "EchoTime2": 0.001,
  "EchoTrainLength": 104,
  "EffectiveEchoSpacing": 0.000560011,
  "FlipAngle": 52,
  "HeudiconvVersion": "0.11.3.post9+gc939bf8",
  "ImageComments": "Unaliased MB4/PE3/LB",
  "ImageOrientationPatientDICOM": [0.999845, 0.0108408, 0.0138982, -0.0073293, 0.972801, -0.231525],
  "ImageOrientationText": "Tra>Cor(-13.4)>Sag(0.9)",
  "ImageType": [
    "ORIGINAL",
    "PRIMARY",
    "P",
    "MB",
    "ND",
    "MOSAIC",
    "PHASE"
],
  "ImagingFrequency": 123.259,
  "InPlanePhaseEncodingDirectionDICOM": "COL",
  "InstitutionAddress": "Chemin Queen-Mary 4565,Montreal,District,CA,H3W 1W5",
  "InstitutionName": "IUGM",
  "InstitutionalDepartmentName": "Department",
  "MRAcquisitionType": "2D",
  "MagneticFieldStrength": 3,
  "Manufacturer": "Siemens",
  "ManufacturersModelName": "Prisma_fit",
  "MatrixCoilMode": "SENSE",
  "Modality": "MR",
  "MultibandAccelerationFactor": 4,
  "PartialFourier": 1,
  "PatientPosition": "HFS",
  "PercentPhaseFOV": 100,
  "PercentSampling": 100,
  "PhaseEncodingDirection": "j",
  "PhaseEncodingSteps": 104,
  "PhaseResolution": 1,
  "PixelBandwidth": 2290,
  "ProcedureStepDescription": "games^mariostars",
  "ProtocolName": "func_task-mariostars_run-02",
  "PulseSequenceDetails": "%CustomerSeq%\\cmrr_mbep2d_bold",
  "ReceiveCoilActiveElements": "HC1-7;NC1,2",
  "ReceiveCoilName": "HeadNeck_64",
  "ReconMatrixPE": 104,
  "RepetitionTime": 1.49,
  "SAR": 0.0600532,
  "ScanOptions": "FS",
  "ScanningSequence": "EP",
  "SequenceName": "epfid2d1_104",
  "SequenceVariant": "SK\\SS",
  "SeriesDescription": "func_task-mariostars_run-02",
  "SeriesNumber": 15,
  "ShimSetting": [623, -7227, -8750, 707, 27, -35, 93, -11],
  "SliceThickness": 2,
  "SliceTiming": [0, 0.785, 0.0975, 0.8825, 0.1975, 0.98, 0.295, 1.0775, 0.3925, 1.1775, 0.49, 1.275, 0.5875, 1.3725, 0.6875, 0, 0.785, 0.0975, 0.8825, 0.1975, 0.98, 0.295, 1.0775, 0.3925, 1.1775, 0.49, 1.275, 0.5875, 1.3725, 0.6875, 0, 0.785, 0.0975, 0.8825, 0.1975, 0.98, 0.295, 1.0775, 0.3925, 1.1775, 0.49, 1.275, 0.5875, 1.3725, 0.6875, 0, 0.785, 0.0975, 0.8825, 0.1975, 0.98, 0.295, 1.0775, 0.3925, 1.1775, 0.49, 1.275, 0.5875, 1.3725, 0.6875],
  "SoftwareVersions": "syngo MR E11",
  "SpacingBetweenSlices": 2,
  "StationName": "MRC35049",
  "TaskName": "mariostars",
  "TotalReadoutTime": 0.0576811,
  "TxRefAmp": 253.418,
  "WipMemBlock": "d1754159-313a-47c5-802a-9c39b80c0ada||Sequence: R016 ve11c/master r/e634e98; Dec 19 2017 11:00:25 by eja",
  "dcmmeta_affine": [
    [-1.9996893405914307, -0.014658607542514801, 0.03206011280417442, 108.94188690185547],
    [-0.021681571379303932, 1.9456027746200562, -0.46277374029159546, -74.84284210205078],
    [0.027796313166618347, 0.46304941177368164, 1.9454594850540161, -51.35407638549805],
    [0.0, 0.0, 0.0, 1.0]
],
  "dcmmeta_reorient_transform": [
    [0.0, -1.0, 0.0, 103.0],
    [1.0, 0.0, 0.0, 0.0],
    [0.0, 0.0, 1.0, 0.0],
    [0.0, 0.0, 0.0, 1.0]
],
  "dcmmeta_shape": [104, 104, 60, 478],
  "dcmmeta_slice_dim": 2,
  "dcmmeta_version": 0.6,
  "global": {
    "const": {
      "AcquisitionMatrix": [104, 0, 0, 104],
      "AngioFlag": "N",
      "BitsAllocated": 16,
      "BitsStored": 16,
      "BodyPartExamined": "BRAIN",
      "Columns": 832,
      "EchoNumbers": 1,
      "EchoTime": 37.0,
      "EchoTrainLength": 104,
      "FlipAngle": 52.0,
      "HighBit": 15,
      "ImageOrientationPatient": [0.99984464723316, 0.01084078600389, 0.01389815664097, -0.007329303981, 0.9728014147539, -0.2315247044183],
      "ImagePositionPatient": [-829.98322291076, -841.64576986227, 154.77213780259],
      "ImageType": [
        "ORIGINAL",
        "PRIMARY",
        "P",
        "MB",
        "ND",
        "MOSAIC"
],
      "ImagedNucleus": "1H",
      "ImagingFrequency": 123.258807,
      "InPlanePhaseEncodingDirection": "COL",
      "LargestImagePixelValue": 4095,
      "MRAcquisitionType": "2D",
      "MagneticFieldStrength": 3.0,
      "Manufacturer": "SIEMENS",
      "ManufacturerModelName": "Prisma_fit",
      "Modality": "MR",
      "NumberOfAverages": 1.0,
      "NumberOfPhaseEncodingSteps": 104,
      "PercentPhaseFieldOfView": 100.0,
      "PercentSampling": 100.0,
      "PerformedProcedureStepStartTime": "125910.491000",
      "PhotometricInterpretation": "MONOCHROME2",
      "PixelBandwidth": 2290.0,
      "PixelRepresentation": 0,
      "PixelSpacing": [2.0, 2.0],
      "ProtocolName": "func_task-mariostars_run-02",
      "RepetitionTime": 1490.0,
      "RescaleIntercept": -4096.0,
      "RescaleSlope": 2.0,
      "RescaleType": "US",
      "Rows": 832,
      "SAR": 0.06005318613427,
      "SamplesPerPixel": 1,
      "ScanOptions": "FS",
      "ScanningSequence": "EP",
      "SequenceName": "epfid2d1_104",
      "SequenceVariant": [
        "SK",
        "SS"
],
      "SeriesDescription": "func_task-mariostars_run-02",
      "SeriesNumber": 15,
      "SeriesTime": "133712.596000",
      "SliceLocation": -30.889643008216,
      "SliceThickness": 2.0,
      "SmallestImagePixelValue": 0,
      "SoftwareVersions": "syngo MR E11",
      "SpacingBetweenSlices": 2.0000000071878,
      "SpecificCharacterSet": "ISO_IR 100",
      "StudyID": "1",
      "StudyTime": "125910.369000",
      "TransmitCoilName": "Body",
      "VariableFlipAngleFlag": "N",
      "WindowCenterWidthExplanation": "Algo1",
      "dBdt": 0.0},
    "slices": {}
  },
  "time": {
    "samples": {
      "AcquisitionNumber": [1, 2, 3, 4, 5, 6, 7, 8, 9, 10, 11, 12, 13, 14, 15, 16, 17, 18, 19, 20, 21, 22, 23, 24, 25, 26, 27, 28, 29, 30, 31, 32, 33, 34, 35, 36, 37, 38, 39, 40, 41, 42, 43, 44, 45, 46, 47, 48, 49, 50, 51, 52, 53, 54, 55, 56, 57, 58, 59, 60, 61, 62, 63, 64, 65, 66, 67, 68, 69, 70, 71, 72, 73, 74, 75, 76, 77, 78, 79, 80, 81, 82, 83, 84, 85, 86, 87, 88, 89, 90, 91, 92, 93, 94, 95, 96, 97, 98, 99, 100, 101, 102, 103, 104, 105, 106, 107, 108, 109, 110, 111, 112, 113, 114, 115, 116, 117, 118, 119, 120, 121, 122, 123, 124, 125, 126, 127, 128, 129, 130, 131, 132, 133, 134, 135, 136, 137, 138, 139, 140, 141, 142, 143, 144, 145, 146, 147, 148, 149, 150, 151, 152, 153, 154, 155, 156, 157, 158, 159, 160, 161, 162, 163, 164, 165, 166, 167, 168, 169, 170, 171, 172, 173, 174, 175, 176, 177, 178, 179, 180, 181, 182, 183, 184, 185, 186, 187, 188, 189, 190, 191, 192, 193, 194, 195, 196, 197, 198, 199, 200, 201, 202, 203, 204, 205, 206, 207, 208, 209, 210, 211, 212, 213, 214, 215, 216, 217, 218, 219, 220, 221, 222, 223, 224, 225, 226, 227, 228, 229, 230, 231, 232, 233, 234, 235, 236, 237, 238, 239, 240, 241, 242, 243, 244, 245, 246, 247, 248, 249, 250, 251, 252, 253, 254, 255, 256, 257, 258, 259, 260, 261, 262, 263, 264, 265, 266, 267, 268, 269, 270, 271, 272, 273, 274, 275, 276, 277, 278, 279, 280, 281, 282, 283, 284, 285, 286, 287, 288, 289, 290, 291, 292, 293, 294, 295, 296, 297, 298, 299, 300, 301, 302, 303, 304, 305, 306, 307, 308, 309, 310, 311, 312, 313, 314, 315, 316, 317, 318, 319, 320, 321, 322, 323, 324, 325, 326, 327, 328, 329, 330, 331, 332, 333, 334, 335, 336, 337, 338, 339, 340, 341, 342, 343, 344, 345, 346, 347, 348, 349, 350, 351, 352, 353, 354, 355, 356, 357, 358, 359, 360, 361, 362, 363, 364, 365, 366, 367, 368, 369, 370, 371, 372, 373, 374, 375, 376, 377, 378, 379, 380, 381, 382, 383, 384, 385, 386, 387, 388, 389, 390, 391, 392, 393, 394, 395, 396, 397, 398, 399, 400, 401, 402, 403, 404, 405, 406, 407, 408, 409, 410, 411, 412, 413, 414, 415, 416, 417, 418, 419, 420, 421, 422, 423, 424, 425, 426, 427, 428, 429, 430, 431, 432, 433, 434, 435, 436, 437, 438, 439, 440, 441, 442, 443, 444, 445, 446, 447, 448, 449, 450, 451, 452, 453, 454, 455, 456, 457, 458, 459, 460, 461, 462, 463, 464, 465, 466, 467, 468, 469, 470, 471, 472, 473, 474, 475, 476, 477, 478],
      "AcquisitionTime": ["133554.687500", "133556.177500", "133557.667500", "133559.157500", "133600.647500", "133602.137500", "133603.627500", "133605.117500", "133606.607500", "133608.097500", "133609.587500", "133611.077500", "133612.567500", "133614.057500", "133615.547500", "133617.037500", "133618.527500", "133620.017500", "133621.507500", "133622.997500", "133624.487500", "133625.977500", "133627.467500", "133628.957500", "133630.447500", "133631.937500", "133633.427500", "133634.917500", "133636.407500", "133637.897500", "133639.387500", "133640.877500", "133642.367500", "133643.857500", "133645.347500", "133646.837500", "133648.327500", "133649.817500", "133651.307500", "133652.797500", "133654.287500", "133655.777500", "133657.267500", "133658.757500", "133700.247500", "133701.737500", "133703.227500", "133704.717500", "133706.207500", "133707.697500", "133709.187500", "133710.677500", "133712.167500", "133713.657500", "133715.147500", "133716.637500", "133718.127500", "133719.617500", "133721.107500", "133722.597500", "133724.087500", "133725.577500", "133727.067500", "133728.557500", "133730.047500", "133731.537500", "133733.027500", "133734.517500", "133736.007500", "133737.497500", "133738.987500", "133740.477500", "133741.967500", "133743.457500", "133744.947500", "133746.437500", "133747.927500", "133749.417500", "133750.907500", "133752.397500", "133753.887500", "133755.377500", "133756.867500", "133758.357500", "133759.847500", "133801.337500", "133802.827500", "133804.317500", "133805.807500", "133807.297500", "133808.787500", "133810.277500", "133811.767500", "133813.257500", "133814.747500", "133816.237500", "133817.727500", "133819.217500", "133820.707500", "133822.197500", "133823.687500", "133825.177500", "133826.667500", "133828.157500", "133829.647500", "133831.137500", "133832.627500", "133834.117500", "133835.607500", "133837.097500", "133838.587500", "133840.077500", "133841.567500", "133843.057500", "133844.547500", "133846.037500", "133847.527500", "133849.017500", "133850.507500", "133851.997500", "133853.487500", "133854.977500", "133856.467500", "133857.957500", "133859.447500", "133900.937500", "133902.427500", "133903.917500", "133905.407500", "133906.897500", "133908.387500", "133909.877500", "133911.367500", "133912.857500", "133914.347500", "133915.837500", "133917.327500", "133918.817500", "133920.307500", "133921.797500", "133923.287500", "133924.777500", "133926.267500", "133927.757500", "133929.247500", "133930.737500", "133932.227500", "133933.717500", "133935.207500", "133936.697500", "133938.187500", "133939.677500", "133941.167500", "133942.657500", "133944.147500", "133945.637500", "133947.127500", "133948.617500", "133950.107500", "133951.597500", "133953.087500", "133954.577500", "133956.067500", "133957.557500", "133959.047500", "134000.537500", "134002.027500", "134003.517500", "134005.007500", "134006.497500", "134007.987500", "134009.477500", "134010.967500", "134012.457500", "134013.947500", "134015.437500", "134016.927500", "134018.417500", "134019.907500", "134021.397500", "134022.887500", "134024.377500", "134025.867500", "134027.357500", "134028.847500", "134030.337500", "134031.827500", "134033.317500", "134034.807500", "134036.297500", "134037.787500", "134039.277500", "134040.767500", "134042.257500", "134043.747500", "134045.237500", "134046.727500", "134048.217500", "134049.707500", "134051.197500", "134052.687500", "134054.177500", "134055.667500", "134057.157500", "134058.647500", "134100.137500", "134101.627500", "134103.117500", "134104.607500", "134106.097500", "134107.587500", "134109.077500", "134110.567500", "134112.057500", "134113.547500", "134115.037500", "134116.527500", "134118.017500", "134119.507500", "134120.997500", "134122.487500", "134123.977500", "134125.467500", "134126.957500", "134128.447500", "134129.937500", "134131.427500", "134132.917500", "134134.407500", "134135.897500", "134137.387500", "134138.877500", "134140.367500", "134141.857500", "134143.347500", "134144.837500", "134146.327500", "134147.817500", "134149.307500", "134150.797500", "134152.287500", "134153.777500", "134155.267500", "134156.757500", "134158.247500", "134159.737500", "134201.227500", "134202.717500", "134204.207500", "134205.697500", "134207.187500", "134208.677500", "134210.167500", "134211.657500", "134213.147500", "134214.637500", "134216.127500", "134217.617500", "134219.107500", "134220.597500", "134222.087500", "134223.577500", "134225.067500", "134226.557500", "134228.047500", "134229.537500", "134231.027500", "134232.517500", "134234.007500", "134235.497500", "134236.987500", "134238.477500", "134239.967500", "134241.457500", "134242.947500", "134244.437500", "134245.927500", "134247.417500", "134248.907500", "134250.397500", "134251.887500", "134253.377500", "134254.867500", "134256.357500", "134257.847500", "134259.337500", "134300.827500", "134302.317500", "134303.807500", "134305.297500", "134306.787500", "134308.277500", "134309.767500", "134311.257500", "134312.747500", "134314.237500", "134315.727500", "134317.217500", "134318.707500", "134320.197500", "134321.687500", "134323.177500", "134324.667500", "134326.157500", "134327.647500", "134329.137500", "134330.627500", "134332.117500", "134333.607500", "134335.097500", "134336.587500", "134338.077500", "134339.567500", "134341.057500", "134342.547500", "134344.037500", "134345.527500", "134347.017500", "134348.507500", "134349.997500", "134351.487500", "134352.977500", "134354.467500", "134355.957500", "134357.447500", "134358.937500", "134400.427500", "134401.917500", "134403.407500", "134404.897500", "134406.387500", "134407.877500", "134409.367500", "134410.857500", "134412.347500", "134413.837500", "134415.327500", "134416.817500", "134418.307500", "134419.797500", "134421.287500", "134422.777500", "134424.267500", "134425.757500", "134427.247500", "134428.737500", "134430.227500", "134431.717500", "134433.207500", "134434.697500", "134436.187500", "134437.677500", "134439.167500", "134440.657500", "134442.147500", "134443.637500", "134445.127500", "134446.617500", "134448.107500", "134449.597500", "134451.087500", "134452.577500", "134454.067500", "134455.557500", "134457.047500", "134458.537500", "134500.027500", "134501.517500", "134503.007500", "134504.497500", "134505.987500", "134507.477500", "134508.967500", "134510.457500", "134511.947500", "134513.437500", "134514.927500", "134516.417500", "134517.907500", "134519.397500", "134520.887500", "134522.377500", "134523.867500", "134525.357500", "134526.847500", "134528.337500", "134529.827500", "134531.317500", "134532.807500", "134534.297500", "134535.787500", "134537.277500", "134538.767500", "134540.257500", "134541.747500", "134543.237500", "134544.727500", "134546.217500", "134547.707500", "134549.197500", "134550.687500", "134552.177500", "134553.667500", "134555.157500", "134556.647500", "134558.137500", "134559.627500", "134601.117500", "134602.607500", "134604.097500", "134605.587500", "134607.077500", "134608.567500", "134610.057500", "134611.547500", "134613.037500", "134614.527500", "134616.017500", "134617.507500", "134618.997500", "134620.487500", "134621.977500", "134623.467500", "134624.957500", "134626.447500", "134627.937500", "134629.427500", "134630.917500", "134632.407500", "134633.897500", "134635.387500", "134636.877500", "134638.367500", "134639.857500", "134641.347500", "134642.837500", "134644.327500", "134645.817500", "134647.307500", "134648.797500", "134650.287500", "134651.777500", "134653.267500", "134654.757500", "134656.247500", "134657.737500", "134659.227500", "134700.717500", "134702.207500", "134703.697500", "134705.187500", "134706.677500", "134708.167500", "134709.657500", "134711.147500", "134712.637500", "134714.127500", "134715.617500", "134717.107500", "134718.597500", "134720.087500", "134721.577500", "134723.067500", "134724.557500", "134726.047500", "134727.537500", "134729.027500", "134730.517500", "134732.007500", "134733.497500", "134734.987500", "134736.477500", "134737.967500", "134739.457500", "134740.947500", "134742.437500", "134743.927500", "134745.417500"],
      "ContentTime": ["133712.598000", "133712.601000", "133712.604000", "133712.606000", "133712.609000", "133712.611000", "133712.614000", "133712.616000", "133712.619000", "133712.626000", "133712.629000", "133712.631000", "133712.634000", "133712.636000", "133712.639000", "133712.641000", "133712.644000", "133712.646000", "133712.649000", "133712.651000", "133712.654000", "133712.656000", "133712.659000", "133732.504000", "133732.507000", "133732.509000", "133732.512000", "133732.514000", "133732.517000", "133732.520000", "133732.522000", "133732.525000", "133732.527000", "133732.530000", "133732.532000", "133732.535000", "133732.537000", "133732.540000", "133732.542000", "133732.545000", "133732.547000", "133732.550000", "133732.552000", "133752.520000", "133752.523000", "133752.525000", "133752.528000", "133752.530000", "133752.533000", "133752.535000", "133752.538000", "133752.541000", "133752.543000", "133752.546000", "133752.548000", "133752.551000", "133752.553000", "133752.556000", "133752.558000", "133752.561000", "133752.564000", "133752.566000", "133752.569000", "133812.502000", "133812.505000", "133812.507000", "133812.510000", "133812.512000", "133812.515000", "133812.517000", "133812.520000", "133812.523000", "133812.525000", "133812.528000", "133812.530000", "133812.533000", "133812.535000", "133812.538000", "133812.540000", "133812.543000", "133812.545000", "133812.548000", "133812.551000", "133832.548000", "133832.550000", "133832.553000", "133832.555000", "133832.558000", "133832.561000", "133832.563000", "133832.566000", "133832.568000", "133832.571000", "133832.573000", "133832.576000", "133832.578000", "133832.581000", "133832.583000", "133832.586000", "133832.588000", "133832.591000", "133832.593000", "133832.596000", "133912.543000", "133912.545000", "133912.548000", "133912.551000", "133912.553000", "133912.556000", "133912.558000", "133912.561000", "133912.564000", "133912.566000", "133912.569000", "133912.571000", "133912.574000", "133912.576000", "133912.579000", "133912.581000", "133912.584000", "133912.587000", "133912.589000", "133912.592000", "133912.594000", "133912.601000", "133912.604000", "133912.607000", "133912.609000", "133912.612000", "133912.614000", "133912.617000", "133912.619000", "133953.081000", "133953.083000", "133953.086000", "133953.088000", "133953.091000", "133953.094000", "133953.096000", "133953.099000", "133953.101000", "133953.104000", "133953.106000", "133953.109000", "133953.112000", "133953.114000", "133953.117000", "133953.119000", "133953.122000", "133953.124000", "133953.127000", "133953.129000", "133953.132000", "133953.134000", "133953.137000", "133953.140000", "133953.142000", "133953.145000", "134032.558000", "134032.561000", "134032.563000", "134032.566000", "134032.568000", "134032.571000", "134032.574000", "134032.576000", "134032.579000", "134032.581000", "134032.584000", "134032.586000", "134032.589000", "134032.591000", "134032.594000", "134032.596000", "134032.599000", "134032.602000", "134032.604000", "134032.607000", "134032.609000", "134032.612000", "134032.614000", "134032.617000", "134032.619000", "134032.622000", "134032.625000", "134052.482000", "134052.485000", "134052.487000", "134052.490000", "134052.493000", "134052.495000", "134052.498000", "134052.500000", "134052.503000", "134052.505000", "134052.508000", "134052.510000", "134052.513000", "134052.516000", "134132.559000", "134132.562000", "134132.564000", "134132.567000", "134132.569000", "134132.572000", "134132.574000", "134132.577000", "134132.580000", "134132.582000", "134132.585000", "134132.587000", "134132.590000", "134132.592000", "134132.595000", "134132.597000", "134132.600000", "134132.602000", "134132.605000", "134132.608000", "134132.610000", "134132.613000", "134132.615000", "134132.618000", "134132.620000", "134132.623000", "134132.625000", "134212.555000", "134212.558000", "134212.560000", "134212.563000", "134212.566000", "134212.568000", "134212.571000", "134212.573000", "134212.576000", "134212.579000", "134212.581000", "134212.584000", "134212.587000", "134212.589000", "134212.593000", "134212.596000", "134212.598000", "134212.601000", "134212.604000", "134212.607000", "134212.610000", "134212.613000", "134212.615000", "134212.618000", "134212.621000", "134212.623000", "134252.557000", "134252.560000", "134252.563000", "134252.565000", "134252.568000", "134252.570000", "134252.573000", "134252.575000", "134252.578000", "134252.581000", "134252.583000", "134252.586000", "134252.588000", "134252.591000", "134252.593000", "134252.596000", "134252.598000", "134252.601000", "134252.603000", "134252.606000", "134252.608000", "134252.611000", "134252.613000", "134252.616000", "134252.619000", "134252.621000", "134252.624000", "134332.543000", "134332.546000", "134332.549000", "134332.551000", "134332.554000", "134332.556000", "134332.559000", "134332.562000", "134332.564000", "134332.567000", "134332.569000", "134332.572000", "134332.574000", "134332.577000", "134332.579000", "134332.582000", "134332.585000", "134332.587000", "134332.590000", "134332.592000", "134332.595000", "134332.597000", "134332.600000", "134332.602000", "134332.605000", "134332.608000", "134332.610000", "134412.552000", "134412.554000", "134412.557000", "134412.559000", "134412.562000", "134412.565000", "134412.567000", "134412.570000", "134412.573000", "134412.575000", "134412.578000", "134412.580000", "134412.583000", "134412.586000", "134412.588000", "134412.591000", "134412.593000", "134412.596000", "134412.598000", "134412.601000", "134412.603000", "134412.606000", "134412.609000", "134412.611000", "134412.614000", "134412.616000", "134412.619000", "134452.553000", "134452.556000", "134452.559000", "134452.561000", "134452.564000", "134452.567000", "134452.569000", "134452.572000", "134452.574000", "134452.577000", "134452.579000", "134452.582000", "134452.584000", "134452.588000", "134452.591000", "134452.593000", "134452.596000", "134452.598000", "134452.601000", "134452.603000", "134452.606000", "134452.609000", "134452.611000", "134452.614000", "134452.616000", "134452.619000", "134452.621000", "134532.551000", "134532.554000", "134532.557000", "134532.559000", "134532.562000", "134532.564000", "134532.567000", "134532.569000", "134532.572000", "134532.574000", "134532.577000", "134532.580000", "134532.582000", "134532.585000", "134532.587000", "134532.590000", "134532.592000", "134532.595000", "134532.597000", "134532.600000", "134532.602000", "134532.605000", "134532.608000", "134532.610000", "134532.613000", "134532.615000", "134532.618000", "134612.554000", "134612.556000", "134612.559000", "134612.562000", "134612.564000", "134612.567000", "134612.569000", "134612.572000", "134612.574000", "134612.577000", "134612.580000", "134612.582000", "134612.585000", "134612.587000", "134612.590000", "134612.592000", "134612.595000", "134612.598000", "134612.600000", "134612.603000", "134612.605000", "134612.608000", "134612.610000", "134612.613000", "134612.615000", "134612.618000", "134652.551000", "134652.553000", "134652.556000", "134652.558000", "134652.561000", "134652.564000", "134652.566000", "134652.569000", "134652.572000", "134652.575000", "134652.577000", "134652.580000", "134652.582000", "134652.585000", "134652.588000", "134652.590000", "134652.593000", "134652.595000", "134652.598000", "134652.600000", "134652.603000", "134652.605000", "134652.608000", "134652.610000", "134652.613000", "134652.615000", "134652.618000", "134732.616000", "134732.619000", "134732.621000", "134732.624000", "134732.626000", "134732.629000", "134732.637000", "134732.640000", "134732.642000", "134732.645000", "134732.648000", "134732.650000", "134732.653000", "134732.655000", "134732.658000", "134732.660000", "134732.663000", "134732.665000", "134732.668000", "134732.670000", "134732.673000", "134732.675000", "134732.678000", "134732.680000", "134732.683000", "134732.685000", "134732.688000", "134748.730000", "134748.733000", "134748.735000", "134748.738000", "134748.741000", "134748.743000", "134748.746000", "134748.748000", "134748.751000", "134748.753000", "134748.756000"],
