{
  "AcquisitionMatrixPE": 104,
  "AcquisitionNumber": 1,
  "AcquisitionTime": "13:35:54.687500",
  "BandwidthPerPixelPhaseEncode": 17.17,
  "BaseResolution": 104,
  "BodyPartExamined": "BRAIN",
  "CoilCombinationMethod": "Sum of Squares",
  "ConsistencyInfo": "N4_VE11C_LATEST_20160120",
  "ConversionSoftware": "dcm2niix",
  "ConversionSoftwareVersion": "v1.0.20211006",
  "DerivedVendorReportedEchoSpacing": 0.000560011,
  "DeviceSerialNumber": "167006",
  "DwellTime": 2.1e-06,
  "EchoTime": 0.037,
  "EchoTrainLength": 104,
  "EffectiveEchoSpacing": 0.000560011,
  "FlipAngle": 52,
  "HeudiconvVersion": "0.11.3.post9+gc939bf8",
  "ImageComments": "Unaliased MB4/PE3/LB",
  "ImageOrientationPatientDICOM": [0.999845, 0.0108408, 0.0138982, -0.0073293, 0.972801, -0.231525],
  "ImageOrientationText": "Tra>Cor(-13.4)>Sag(0.9)",
  "ImageType": [
    "ORIGINAL",
    "PRIMARY",
    "M",
    "MB",
    "ND",
    "MOSAIC"
],
  "ImagingFrequency": 123.259,
  "InPlanePhaseEncodingDirectionDICOM": "COL",
  "InstitutionAddress": "Chemin Queen-Mary 4565,Montreal,District,CA,H3W 1W5",
  "InstitutionName": "IUGM",
  "InstitutionalDepartmentName": "Department",
  "MRAcquisitionType": "2D",
  "MagneticFieldStrength": 3,
  "Manufacturer": "Siemens",
  "ManufacturersModelName": "Prisma_fit",
  "MatrixCoilMode": "SENSE",
  "Modality": "MR",
  "MultibandAccelerationFactor": 4,
  "PartialFourier": 1,
  "PatientPosition": "HFS",
  "PercentPhaseFOV": 100,
  "PercentSampling": 100,
  "PhaseEncodingDirection": "j",
  "PhaseEncodingSteps": 104,
  "PhaseResolution": 1,
  "PixelBandwidth": 2290,
  "ProcedureStepDescription": "games^mariostars",
  "ProtocolName": "func_task-mariostars_run-02",
  "PulseSequenceDetails": "%CustomerSeq%\\cmrr_mbep2d_bold",
  "ReceiveCoilActiveElements": "HC1-7;NC1,2",
  "ReceiveCoilName": "HeadNeck_64",
  "ReconMatrixPE": 104,
  "RepetitionTime": 1.49,
  "SAR": 0.0600532,
  "ScanOptions": "FS",
  "ScanningSequence": "EP",
  "SequenceName": "epfid2d1_104",
  "SequenceVariant": "SK\\SS",
  "SeriesDescription": "func_task-mariostars_run-02",
  "SeriesNumber": 14,
  "ShimSetting": [623, -7227, -8750, 707, 27, -35, 93, -11],
  "SliceThickness": 2,
  "SliceTiming": [0, 0.785, 0.0975, 0.8825, 0.1975, 0.98, 0.295, 1.0775, 0.3925, 1.1775, 0.49, 1.275, 0.5875, 1.3725, 0.6875, 0, 0.785, 0.0975, 0.8825, 0.1975, 0.98, 0.295, 1.0775, 0.3925, 1.1775, 0.49, 1.275, 0.5875, 1.3725, 0.6875, 0, 0.785, 0.0975, 0.8825, 0.1975, 0.98, 0.295, 1.0775, 0.3925, 1.1775, 0.49, 1.275, 0.5875, 1.3725, 0.6875, 0, 0.785, 0.0975, 0.8825, 0.1975, 0.98, 0.295, 1.0775, 0.3925, 1.1775, 0.49, 1.275, 0.5875, 1.3725, 0.6875],
  "SoftwareVersions": "syngo MR E11",
  "SpacingBetweenSlices": 2,
  "StationName": "MRC35049",
  "TaskName": "mariostars",
  "TotalReadoutTime": 0.0576811,
  "TxRefAmp": 253.418,
  "WipMemBlock": "d1754159-313a-47c5-802a-9c39b80c0ada||Sequence: R016 ve11c/master r/e634e98; Dec 19 2017 11:00:25 by eja",
  "dcmmeta_affine": [
    [-1.9996893405914307, -0.014658607542514801, 0.03206011280417442, 108.94188690185547],
    [-0.021681571379303932, 1.9456027746200562, -0.46277374029159546, -74.84284210205078],
    [0.027796313166618347, 0.46304941177368164, 1.9454594850540161, -51.35407638549805],
    [0.0, 0.0, 0.0, 1.0]
],
  "dcmmeta_reorient_transform": [
    [0.0, -1.0, 0.0, 103.0],
    [1.0, 0.0, 0.0, 0.0],
    [0.0, 0.0, 1.0, 0.0],
    [0.0, 0.0, 0.0, 1.0]
],
  "dcmmeta_shape": [104, 104, 60, 478],
  "dcmmeta_slice_dim": 2,
  "dcmmeta_version": 0.6,
  "global": {
    "const": {
      "AcquisitionMatrix": [104, 0, 0, 104],
      "AngioFlag": "N",
      "BitsAllocated": 16,
      "BitsStored": 16,
      "BodyPartExamined": "BRAIN",
      "Columns": 832,
      "EchoNumbers": 1,
      "EchoTime": 37.0,
      "EchoTrainLength": 104,
      "FlipAngle": 52.0,
      "HighBit": 15,
      "ImageOrientationPatient": [0.99984464723316, 0.01084078600389, 0.01389815664097, -0.007329303981, 0.9728014147539, -0.2315247044183],
      "ImagePositionPatient": [-829.98322291076, -841.64576986227, 154.77213780259],
      "ImageType": [
        "ORIGINAL",
        "PRIMARY",
        "M",
        "MB",
        "ND",
        "MOSAIC"
],
      "ImagedNucleus": "1H",
      "ImagingFrequency": 123.258807,
      "InPlanePhaseEncodingDirection": "COL",
      "MRAcquisitionType": "2D",
      "MagneticFieldStrength": 3.0,
      "Manufacturer": "SIEMENS",
      "ManufacturerModelName": "Prisma_fit",
      "Modality": "MR",
      "NumberOfAverages": 1.0,
      "NumberOfPhaseEncodingSteps": 104,
      "PercentPhaseFieldOfView": 100.0,
      "PercentSampling": 100.0,
      "PerformedProcedureStepStartTime": "125910.491000",
      "PhotometricInterpretation": "MONOCHROME2",
      "PixelBandwidth": 2290.0,
      "PixelRepresentation": 0,
      "PixelSpacing": [2.0, 2.0],
      "ProtocolName": "func_task-mariostars_run-02",
      "RepetitionTime": 1490.0,
      "Rows": 832,
      "SAR": 0.06005318613427,
      "SamplesPerPixel": 1,
      "ScanOptions": "FS",
      "ScanningSequence": "EP",
      "SequenceName": "epfid2d1_104",
      "SequenceVariant": [
        "SK",
        "SS"
],
      "SeriesDescription": "func_task-mariostars_run-02",
      "SeriesNumber": 14,
      "SeriesTime": "133712.450000",
      "SliceLocation": -30.889643008216,
      "SliceThickness": 2.0,
      "SmallestImagePixelValue": 0,
      "SoftwareVersions": "syngo MR E11",
      "SpacingBetweenSlices": 2.0000000071878,
      "SpecificCharacterSet": "ISO_IR 100",
      "StudyID": "1",
      "StudyTime": "125910.369000",
      "TransmitCoilName": "Body",
      "VariableFlipAngleFlag": "N",
      "WindowCenterWidthExplanation": "Algo1",
      "dBdt": 0.0},
    "slices": {}
  },
  "time": {
    "samples": {
      "AcquisitionNumber": [1, 2, 3, 4, 5, 6, 7, 8, 9, 10, 11, 12, 13, 14, 15, 16, 17, 18, 19, 20, 21, 22, 23, 24, 25, 26, 27, 28, 29, 30, 31, 32, 33, 34, 35, 36, 37, 38, 39, 40, 41, 42, 43, 44, 45, 46, 47, 48, 49, 50, 51, 52, 53, 54, 55, 56, 57, 58, 59, 60, 61, 62, 63, 64, 65, 66, 67, 68, 69, 70, 71, 72, 73, 74, 75, 76, 77, 78, 79, 80, 81, 82, 83, 84, 85, 86, 87, 88, 89, 90, 91, 92, 93, 94, 95, 96, 97, 98, 99, 100, 101, 102, 103, 104, 105, 106, 107, 108, 109, 110, 111, 112, 113, 114, 115, 116, 117, 118, 119, 120, 121, 122, 123, 124, 125, 126, 127, 128, 129, 130, 131, 132, 133, 134, 135, 136, 137, 138, 139, 140, 141, 142, 143, 144, 145, 146, 147, 148, 149, 150, 151, 152, 153, 154, 155, 156, 157, 158, 159, 160, 161, 162, 163, 164, 165, 166, 167, 168, 169, 170, 171, 172, 173, 174, 175, 176, 177, 178, 179, 180, 181, 182, 183, 184, 185, 186, 187, 188, 189, 190, 191, 192, 193, 194, 195, 196, 197, 198, 199, 200, 201, 202, 203, 204, 205, 206, 207, 208, 209, 210, 211, 212, 213, 214, 215, 216, 217, 218, 219, 220, 221, 222, 223, 224, 225, 226, 227, 228, 229, 230, 231, 232, 233, 234, 235, 236, 237, 238, 239, 240, 241, 242, 243, 244, 245, 246, 247, 248, 249, 250, 251, 252, 253, 254, 255, 256, 257, 258, 259, 260, 261, 262, 263, 264, 265, 266, 267, 268, 269, 270, 271, 272, 273, 274, 275, 276, 277, 278, 279, 280, 281, 282, 283, 284, 285, 286, 287, 288, 289, 290, 291, 292, 293, 294, 295, 296, 297, 298, 299, 300, 301, 302, 303, 304, 305, 306, 307, 308, 309, 310, 311, 312, 313, 314, 315, 316, 317, 318, 319, 320, 321, 322, 323, 324, 325, 326, 327, 328, 329, 330, 331, 332, 333, 334, 335, 336, 337, 338, 339, 340, 341, 342, 343, 344, 345, 346, 347, 348, 349, 350, 351, 352, 353, 354, 355, 356, 357, 358, 359, 360, 361, 362, 363, 364, 365, 366, 367, 368, 369, 370, 371, 372, 373, 374, 375, 376, 377, 378, 379, 380, 381, 382, 383, 384, 385, 386, 387, 388, 389, 390, 391, 392, 393, 394, 395, 396, 397, 398, 399, 400, 401, 402, 403, 404, 405, 406, 407, 408, 409, 410, 411, 412, 413, 414, 415, 416, 417, 418, 419, 420, 421, 422, 423, 424, 425, 426, 427, 428, 429, 430, 431, 432, 433, 434, 435, 436, 437, 438, 439, 440, 441, 442, 443, 444, 445, 446, 447, 448, 449, 450, 451, 452, 453, 454, 455, 456, 457, 458, 459, 460, 461, 462, 463, 464, 465, 466, 467, 468, 469, 470, 471, 472, 473, 474, 475, 476, 477, 478],
      "AcquisitionTime": ["133554.687500", "133556.177500", "133557.667500", "133559.157500", "133600.647500", "133602.137500", "133603.627500", "133605.117500", "133606.607500", "133608.097500", "133609.587500", "133611.077500", "133612.567500", "133614.057500", "133615.547500", "133617.037500", "133618.527500", "133620.017500", "133621.507500", "133622.997500", "133624.487500", "133625.977500", "133627.467500", "133628.957500", "133630.447500", "133631.937500", "133633.427500", "133634.917500", "133636.407500", "133637.897500", "133639.387500", "133640.877500", "133642.367500", "133643.857500", "133645.347500", "133646.837500", "133648.327500", "133649.817500", "133651.307500", "133652.797500", "133654.287500", "133655.777500", "133657.267500", "133658.757500", "133700.247500", "133701.737500", "133703.227500", "133704.717500", "133706.207500", "133707.697500", "133709.187500", "133710.677500", "133712.167500", "133713.657500", "133715.147500", "133716.637500", "133718.127500", "133719.617500", "133721.107500", "133722.597500", "133724.087500", "133725.577500", "133727.067500", "133728.557500", "133730.047500", "133731.537500", "133733.027500", "133734.517500", "133736.007500", "133737.497500", "133738.987500", "133740.477500", "133741.967500", "133743.457500", "133744.947500", "133746.437500", "133747.927500", "133749.417500", "133750.907500", "133752.397500", "133753.887500", "133755.377500", "133756.867500", "133758.357500", "133759.847500", "133801.337500", "133802.827500", "133804.317500", "133805.807500", "133807.297500", "133808.787500", "133810.277500", "133811.767500", "133813.257500", "133814.747500", "133816.237500", "133817.727500", "133819.217500", "133820.707500", "133822.197500", "133823.687500", "133825.177500", "133826.667500", "133828.157500", "133829.647500", "133831.137500", "133832.627500", "133834.117500", "133835.607500", "133837.097500", "133838.587500", "133840.077500", "133841.567500", "133843.057500", "133844.547500", "133846.037500", "133847.527500", "133849.017500", "133850.507500", "133851.997500", "133853.487500", "133854.977500", "133856.467500", "133857.957500", "133859.447500", "133900.937500", "133902.427500", "133903.917500", "133905.407500", "133906.897500", "133908.387500", "133909.877500", "133911.367500", "133912.857500", "133914.347500", "133915.837500", "133917.327500", "133918.817500", "133920.307500", "133921.797500", "133923.287500", "133924.777500", "133926.267500", "133927.757500", "133929.247500", "133930.737500", "133932.227500", "133933.717500", "133935.207500", "133936.697500", "133938.187500", "133939.677500", "133941.167500", "133942.657500", "133944.147500", "133945.637500", "133947.127500", "133948.617500", "133950.107500", "133951.597500", "133953.087500", "133954.577500", "133956.067500", "133957.557500", "133959.047500", "134000.537500", "134002.027500", "134003.517500", "134005.007500", "134006.497500", "134007.987500", "134009.477500", "134010.967500", "134012.457500", "134013.947500", "134015.437500", "134016.927500", "134018.417500", "134019.907500", "134021.397500", "134022.887500", "134024.377500", "134025.867500", "134027.357500", "134028.847500", "134030.337500", "134031.827500", "134033.317500", "134034.807500", "134036.297500", "134037.787500", "134039.277500", "134040.767500", "134042.257500", "134043.747500", "134045.237500", "134046.727500", "134048.217500", "134049.707500", "134051.197500", "134052.687500", "134054.177500", "134055.667500", "134057.157500", "134058.647500", "134100.137500", "134101.627500", "134103.117500", "134104.607500", "134106.097500", "134107.587500", "134109.077500", "134110.567500", "134112.057500", "134113.547500", "134115.037500", "134116.527500", "134118.017500", "134119.507500", "134120.997500", "134122.487500", "134123.977500", "134125.467500", "134126.957500", "134128.447500", "134129.937500", "134131.427500", "134132.917500", "134134.407500", "134135.897500", "134137.387500", "134138.877500", "134140.367500", "134141.857500", "134143.347500", "134144.837500", "134146.327500", "134147.817500", "134149.307500", "134150.797500", "134152.287500", "134153.777500", "134155.267500", "134156.757500", "134158.247500", "134159.737500", "134201.227500", "134202.717500", "134204.207500", "134205.697500", "134207.187500", "134208.677500", "134210.167500", "134211.657500", "134213.147500", "134214.637500", "134216.127500", "134217.617500", "134219.107500", "134220.597500", "134222.087500", "134223.577500", "134225.067500", "134226.557500", "134228.047500", "134229.537500", "134231.027500", "134232.517500", "134234.007500", "134235.497500", "134236.987500", "134238.477500", "134239.967500", "134241.457500", "134242.947500", "134244.437500", "134245.927500", "134247.417500", "134248.907500", "134250.397500", "134251.887500", "134253.377500", "134254.867500", "134256.357500", "134257.847500", "134259.337500", "134300.827500", "134302.317500", "134303.807500", "134305.297500", "134306.787500", "134308.277500", "134309.767500", "134311.257500", "134312.747500", "134314.237500", "134315.727500", "134317.217500", "134318.707500", "134320.197500", "134321.687500", "134323.177500", "134324.667500", "134326.157500", "134327.647500", "134329.137500", "134330.627500", "134332.117500", "134333.607500", "134335.097500", "134336.587500", "134338.077500", "134339.567500", "134341.057500", "134342.547500", "134344.037500", "134345.527500", "134347.017500", "134348.507500", "134349.997500", "134351.487500", "134352.977500", "134354.467500", "134355.957500", "134357.447500", "134358.937500", "134400.427500", "134401.917500", "134403.407500", "134404.897500", "134406.387500", "134407.877500", "134409.367500", "134410.857500", "134412.347500", "134413.837500", "134415.327500", "134416.817500", "134418.307500", "134419.797500", "134421.287500", "134422.777500", "134424.267500", "134425.757500", "134427.247500", "134428.737500", "134430.227500", "134431.717500", "134433.207500", "134434.697500", "134436.187500", "134437.677500", "134439.167500", "134440.657500", "134442.147500", "134443.637500", "134445.127500", "134446.617500", "134448.107500", "134449.597500", "134451.087500", "134452.577500", "134454.067500", "134455.557500", "134457.047500", "134458.537500", "134500.027500", "134501.517500", "134503.007500", "134504.497500", "134505.987500", "134507.477500", "134508.967500", "134510.457500", "134511.947500", "134513.437500", "134514.927500", "134516.417500", "134517.907500", "134519.397500", "134520.887500", "134522.377500", "134523.867500", "134525.357500", "134526.847500", "134528.337500", "134529.827500", "134531.317500", "134532.807500", "134534.297500", "134535.787500", "134537.277500", "134538.767500", "134540.257500", "134541.747500", "134543.237500", "134544.727500", "134546.217500", "134547.707500", "134549.197500", "134550.687500", "134552.177500", "134553.667500", "134555.157500", "134556.647500", "134558.137500", "134559.627500", "134601.117500", "134602.607500", "134604.097500", "134605.587500", "134607.077500", "134608.567500", "134610.057500", "134611.547500", "134613.037500", "134614.527500", "134616.017500", "134617.507500", "134618.997500", "134620.487500", "134621.977500", "134623.467500", "134624.957500", "134626.447500", "134627.937500", "134629.427500", "134630.917500", "134632.407500", "134633.897500", "134635.387500", "134636.877500", "134638.367500", "134639.857500", "134641.347500", "134642.837500", "134644.327500", "134645.817500", "134647.307500", "134648.797500", "134650.287500", "134651.777500", "134653.267500", "134654.757500", "134656.247500", "134657.737500", "134659.227500", "134700.717500", "134702.207500", "134703.697500", "134705.187500", "134706.677500", "134708.167500", "134709.657500", "134711.147500", "134712.637500", "134714.127500", "134715.617500", "134717.107500", "134718.597500", "134720.087500", "134721.577500", "134723.067500", "134724.557500", "134726.047500", "134727.537500", "134729.027500", "134730.517500", "134732.007500", "134733.497500", "134734.987500", "134736.477500", "134737.967500", "134739.457500", "134740.947500", "134742.437500", "134743.927500", "134745.417500"],
      "ContentTime": ["133712.454000", "133712.458000", "133712.461000", "133712.465000", "133712.474000", "133712.477000", "133712.480000", "133712.484000", "133712.487000", "133712.491000", "133712.494000", "133712.497000", "133712.501000", "133712.504000", "133712.508000", "133712.511000", "133712.514000", "133712.518000", "133712.521000", "133712.525000", "133712.528000", "133712.531000", "133712.535000", "133732.399000", "133732.403000", "133732.406000", "133732.410000", "133732.413000", "133732.417000", "133732.420000", "133732.423000", "133732.427000", "133732.430000", "133732.434000", "133732.437000", "133732.440000", "133732.444000", "133732.447000", "133732.451000", "133732.454000", "133732.457000", "133732.461000", "133732.464000", "133752.399000", "133752.403000", "133752.406000", "133752.410000", "133752.413000", "133752.417000", "133752.420000", "133752.423000", "133752.427000", "133752.430000", "133752.434000", "133752.437000", "133752.440000", "133752.444000", "133752.447000", "133752.450000", "133752.454000", "133752.457000", "133752.461000", "133752.464000", "133812.399000", "133812.403000", "133812.406000", "133812.410000", "133812.413000", "133812.417000", "133812.420000", "133812.423000", "133812.427000", "133812.430000", "133812.434000", "133812.437000", "133812.441000", "133812.444000", "133812.447000", "133812.451000", "133812.454000", "133812.458000", "133812.461000", "133812.464000", "133832.422000", "133832.425000", "133832.429000", "133832.432000", "133832.436000", "133832.439000", "133832.443000", "133832.446000", "133832.449000", "133832.453000", "133832.456000", "133832.460000", "133832.463000", "133832.466000", "133832.470000", "133832.473000", "133832.477000", "133832.480000", "133832.484000", "133832.487000", "133912.400000", "133912.404000", "133912.408000", "133912.411000", "133912.414000", "133912.418000", "133912.421000", "133912.424000", "133912.428000", "133912.431000", "133912.435000", "133912.438000", "133912.442000", "133912.445000", "133912.448000", "133912.452000", "133912.455000", "133912.459000", "133912.462000", "133912.465000", "133912.469000", "133912.472000", "133912.476000", "133912.479000", "133912.483000", "133912.486000", "133912.490000", "133912.493000", "133912.496000", "133952.400000", "133952.404000", "133952.407000", "133952.411000", "133952.414000", "133952.418000", "133952.421000", "133952.424000", "133952.428000", "133952.431000", "133952.435000", "133952.438000", "133952.442000", "133952.445000", "133952.449000", "133952.452000", "133952.456000", "133952.459000", "133952.463000", "133952.466000", "133952.470000", "133952.473000", "133952.477000", "133952.480000", "133952.483000", "133952.487000", "134032.399000", "134032.403000", "134032.407000", "134032.410000", "134032.413000", "134032.417000", "134032.420000", "134032.424000", "134032.427000", "134032.430000", "134032.434000", "134032.437000", "134032.441000", "134032.444000", "134032.447000", "134032.451000", "134032.454000", "134032.458000", "134032.461000", "134032.465000", "134032.468000", "134032.471000", "134032.475000", "134032.478000", "134032.482000", "134032.485000", "134032.510000", "134052.400000", "134052.404000", "134052.408000", "134052.411000", "134052.415000", "134052.418000", "134052.421000", "134052.425000", "134052.428000", "134052.432000", "134052.435000", "134052.439000", "134052.442000", "134052.445000", "134132.400000", "134132.404000", "134132.408000", "134132.411000", "134132.415000", "134132.418000", "134132.421000", "134132.425000", "134132.428000", "134132.432000", "134132.435000", "134132.438000", "134132.442000", "134132.445000", "134132.449000", "134132.452000", "134132.456000", "134132.459000", "134132.462000", "134132.466000", "134132.469000", "134132.473000", "134132.476000", "134132.479000", "134132.483000", "134132.486000", "134132.490000", "134212.399000", "134212.403000", "134212.407000", "134212.410000", "134212.414000", "134212.417000", "134212.420000", "134212.424000", "134212.427000", "134212.431000", "134212.434000", "134212.437000", "134212.441000", "134212.444000", "134212.448000", "134212.451000", "134212.455000", "134212.459000", "134212.462000", "134212.466000", "134212.469000", "134212.473000", "134212.476000", "134212.480000", "134212.483000", "134212.487000", "134252.399000", "134252.403000", "134252.406000", "134252.410000", "134252.413000", "134252.417000", "134252.420000", "134252.424000", "134252.427000", "134252.430000", "134252.434000", "134252.437000", "134252.441000", "134252.444000", "134252.448000", "134252.451000", "134252.454000", "134252.458000", "134252.461000", "134252.465000", "134252.468000", "134252.471000", "134252.475000", "134252.499000", "134252.502000", "134252.505000", "134252.509000", "134332.400000", "134332.404000", "134332.407000", "134332.411000", "134332.414000", "134332.418000", "134332.421000", "134332.425000", "134332.428000", "134332.431000", "134332.435000", "134332.438000", "134332.442000", "134332.445000", "134332.449000", "134332.452000", "134332.455000", "134332.459000", "134332.462000", "134332.466000", "134332.469000", "134332.473000", "134332.476000", "134332.479000", "134332.484000", "134332.487000", "134332.490000", "134412.400000", "134412.403000", "134412.407000", "134412.410000", "134412.414000", "134412.417000", "134412.421000", "134412.424000", "134412.428000", "134412.431000", "134412.434000", "134412.438000", "134412.441000", "134412.445000", "134412.448000", "134412.451000", "134412.455000", "134412.458000", "134412.462000", "134412.465000", "134412.469000", "134412.472000", "134412.475000", "134412.479000", "134412.482000", "134412.486000", "134412.489000", "134452.399000", "134452.403000", "134452.407000", "134452.410000", "134452.413000", "134452.417000", "134452.420000", "134452.424000", "134452.427000", "134452.431000", "134452.434000", "134452.438000", "134452.441000", "134452.445000", "134452.448000", "134452.451000", "134452.455000", "134452.458000", "134452.462000", "134452.465000", "134452.468000", "134452.472000", "134452.475000", "134452.479000", "134452.482000", "134452.486000", "134452.489000", "134532.400000", "134532.404000", "134532.407000", "134532.411000", "134532.414000", "134532.418000", "134532.421000", "134532.425000", "134532.428000", "134532.433000", "134532.436000", "134532.440000", "134532.443000", "134532.446000", "134532.450000", "134532.453000", "134532.457000", "134532.460000", "134532.464000", "134532.467000", "134532.471000", "134532.474000", "134532.477000", "134532.481000", "134532.484000", "134532.488000", "134532.491000", "134612.400000", "134612.404000", "134612.408000", "134612.411000", "134612.414000", "134612.418000", "134612.421000", "134612.425000", "134612.428000", "134612.431000", "134612.435000", "134612.438000", "134612.442000", "134612.445000", "134612.449000", "134612.452000", "134612.455000", "134612.459000", "134612.462000", "134612.467000", "134612.471000", "134612.474000", "134612.478000", "134612.483000", "134612.486000", "134612.490000", "134652.399000", "134652.403000", "134652.407000", "134652.410000", "134652.413000", "134652.417000", "134652.420000", "134652.424000", "134652.427000", "134652.430000", "134652.434000", "134652.437000", "134652.441000", "134652.444000", "134652.447000", "134652.451000", "134652.454000", "134652.458000", "134652.461000", "134652.465000", "134652.468000", "134652.471000", "134652.475000", "134652.478000", "134652.481000", "134652.485000", "134652.488000", "134732.399000", "134732.403000", "134732.407000", "134732.410000", "134732.413000", "134732.417000", "134732.420000", "134732.424000", "134732.427000", "134732.443000", "134732.447000", "134732.450000", "134732.453000", "134732.457000", "134732.460000", "134732.464000", "134732.467000", "134732.471000", "134732.474000", "134732.478000", "134732.481000", "134732.484000", "134732.488000", "134732.491000", "134732.495000", "134732.498000", "134732.502000", "134748.648000", "134748.652000", "134748.655000", "134748.659000", "134748.662000", "134748.666000", "134748.669000", "134748.672000", "134748.676000", "134748.679000", "134748.683000"],
