{
  "AcquisitionMatrixPE": 104,
  "AcquisitionNumber": 1,
  "AcquisitionTime": "14:16:43.330000",
  "BandwidthPerPixelPhaseEncode": 17.17,
  "BaseResolution": 104,
  "BodyPartExamined": "BRAIN",
  "CoilCombinationMethod": "Sum of Squares",
  "ConsistencyInfo": "N4_VE11C_LATEST_20160120",
  "ConversionSoftware": "dcm2niix",
  "ConversionSoftwareVersion": "v1.0.20211006",
  "DerivedVendorReportedEchoSpacing": 0.000560011,
  "DeviceSerialNumber": "167006",
  "DwellTime": 2.1e-06,
  "EchoTime": 0.037,
  "EchoTrainLength": 104,
  "EffectiveEchoSpacing": 0.000560011,
  "FlipAngle": 52,
  "HeudiconvVersion": "0.11.3.post9+gc939bf8",
  "ImageComments": "Unaliased MB4/PE3/LB",
  "ImageOrientationPatientDICOM": [0.999845, 0.0108408, 0.0138982, -0.0073293, 0.972801, -0.231525],
  "ImageOrientationText": "Tra>Cor(-13.4)>Sag(0.9)",
  "ImageType": [
    "ORIGINAL",
    "PRIMARY",
    "M",
    "MB",
    "ND",
    "MOSAIC"
],
  "ImagingFrequency": 123.259,
  "InPlanePhaseEncodingDirectionDICOM": "COL",
  "InstitutionAddress": "Chemin Queen-Mary 4565,Montreal,District,CA,H3W 1W5",
  "InstitutionName": "IUGM",
  "InstitutionalDepartmentName": "Department",
  "MRAcquisitionType": "2D",
  "MagneticFieldStrength": 3,
  "Manufacturer": "Siemens",
  "ManufacturersModelName": "Prisma_fit",
  "MatrixCoilMode": "SENSE",
  "Modality": "MR",
  "MultibandAccelerationFactor": 4,
  "PartialFourier": 1,
  "PatientPosition": "HFS",
  "PercentPhaseFOV": 100,
  "PercentSampling": 100,
  "PhaseEncodingDirection": "j",
  "PhaseEncodingSteps": 104,
  "PhaseResolution": 1,
  "PixelBandwidth": 2290,
  "ProcedureStepDescription": "games^mariostars",
  "ProtocolName": "func_task-mariostars_run-05",
  "PulseSequenceDetails": "%CustomerSeq%\\cmrr_mbep2d_bold",
  "ReceiveCoilActiveElements": "HC1-7;NC1,2",
  "ReceiveCoilName": "HeadNeck_64",
  "ReconMatrixPE": 104,
  "RepetitionTime": 1.49,
  "SAR": 0.0600532,
  "ScanOptions": "FS",
  "ScanningSequence": "EP",
  "SequenceName": "epfid2d1_104",
  "SequenceVariant": "SK\\SS",
  "SeriesDescription": "func_task-mariostars_run-05",
  "SeriesNumber": 23,
  "ShimSetting": [623, -7227, -8750, 707, 27, -35, 93, -11],
  "SliceThickness": 2,
  "SliceTiming": [0, 0.7825, 0.0975, 0.88, 0.195, 0.98, 0.2925, 1.0775, 0.39, 1.175, 0.49, 1.2725, 0.5875, 1.37, 0.685, 0, 0.7825, 0.0975, 0.88, 0.195, 0.98, 0.2925, 1.0775, 0.39, 1.175, 0.49, 1.2725, 0.5875, 1.37, 0.685, 0, 0.7825, 0.0975, 0.88, 0.195, 0.98, 0.2925, 1.0775, 0.39, 1.175, 0.49, 1.2725, 0.5875, 1.37, 0.685, 0, 0.7825, 0.0975, 0.88, 0.195, 0.98, 0.2925, 1.0775, 0.39, 1.175, 0.49, 1.2725, 0.5875, 1.37, 0.685],
  "SoftwareVersions": "syngo MR E11",
  "SpacingBetweenSlices": 2,
  "StationName": "MRC35049",
  "TaskName": "mariostars",
  "TotalReadoutTime": 0.0576811,
  "TxRefAmp": 253.418,
  "WipMemBlock": "43feb8c1-359c-4ffc-ad34-ef6329bf5a2c||Sequence: R016 ve11c/master r/e634e98; Dec 19 2017 11:00:25 by eja",
  "dcmmeta_affine": [
    [-1.9996893405914307, -0.014658607542514801, 0.03206011280417442, 108.94188690185547],
    [-0.021681571379303932, 1.9456027746200562, -0.46277374029159546, -74.84284210205078],
    [0.027796313166618347, 0.46304941177368164, 1.9454594850540161, -51.35407638549805],
    [0.0, 0.0, 0.0, 1.0]
],
  "dcmmeta_reorient_transform": [
    [0.0, -1.0, 0.0, 103.0],
    [1.0, 0.0, 0.0, 0.0],
    [0.0, 0.0, 1.0, 0.0],
    [0.0, 0.0, 0.0, 1.0]
],
  "dcmmeta_shape": [104, 104, 60, 450],
  "dcmmeta_slice_dim": 2,
  "dcmmeta_version": 0.6,
  "global": {
    "const": {
      "AcquisitionMatrix": [104, 0, 0, 104],
      "AngioFlag": "N",
      "BitsAllocated": 16,
      "BitsStored": 16,
      "BodyPartExamined": "BRAIN",
      "Columns": 832,
      "EchoNumbers": 1,
      "EchoTime": 37.0,
      "EchoTrainLength": 104,
      "FlipAngle": 52.0,
      "HighBit": 15,
      "ImageOrientationPatient": [0.99984464723316, 0.01084078600389, 0.01389815664097, -0.007329303981, 0.9728014147539, -0.2315247044183],
      "ImagePositionPatient": [-829.98322291076, -841.64576986227, 154.77213780259],
      "ImageType": [
        "ORIGINAL",
        "PRIMARY",
        "M",
        "MB",
        "ND",
        "MOSAIC"
],
      "ImagedNucleus": "1H",
      "ImagingFrequency": 123.25882,
      "InPlanePhaseEncodingDirection": "COL",
      "MRAcquisitionType": "2D",
      "MagneticFieldStrength": 3.0,
      "Manufacturer": "SIEMENS",
      "ManufacturerModelName": "Prisma_fit",
      "Modality": "MR",
      "NumberOfAverages": 1.0,
      "NumberOfPhaseEncodingSteps": 104,
      "PercentPhaseFieldOfView": 100.0,
      "PercentSampling": 100.0,
      "PerformedProcedureStepStartTime": "125910.491000",
      "PhotometricInterpretation": "MONOCHROME2",
      "PixelBandwidth": 2290.0,
      "PixelRepresentation": 0,
      "PixelSpacing": [2.0, 2.0],
      "ProtocolName": "func_task-mariostars_run-05",
      "RepetitionTime": 1490.0,
      "Rows": 832,
      "SAR": 0.06005318613427,
      "SamplesPerPixel": 1,
      "ScanOptions": "FS",
      "ScanningSequence": "EP",
      "SequenceName": "epfid2d1_104",
      "SequenceVariant": [
        "SK",
        "SS"
],
      "SeriesDescription": "func_task-mariostars_run-05",
      "SeriesNumber": 23,
      "SeriesTime": "141812.444000",
      "SliceLocation": -30.889643008216,
      "SliceThickness": 2.0,
      "SmallestImagePixelValue": 0,
      "SoftwareVersions": "syngo MR E11",
      "SpacingBetweenSlices": 2.0000000071878,
      "SpecificCharacterSet": "ISO_IR 100",
      "StudyID": "1",
      "StudyTime": "125910.369000",
      "TransmitCoilName": "Body",
      "VariableFlipAngleFlag": "N",
      "WindowCenterWidthExplanation": "Algo1",
      "dBdt": 0.0},
    "slices": {}
  },
  "time": {
    "samples": {
      "AcquisitionNumber": [1, 2, 3, 4, 5, 6, 7, 8, 9, 10, 11, 12, 13, 14, 15, 16, 17, 18, 19, 20, 21, 22, 23, 24, 25, 26, 27, 28, 29, 30, 31, 32, 33, 34, 35, 36, 37, 38, 39, 40, 41, 42, 43, 44, 45, 46, 47, 48, 49, 50, 51, 52, 53, 54, 55, 56, 57, 58, 59, 60, 61, 62, 63, 64, 65, 66, 67, 68, 69, 70, 71, 72, 73, 74, 75, 76, 77, 78, 79, 80, 81, 82, 83, 84, 85, 86, 87, 88, 89, 90, 91, 92, 93, 94, 95, 96, 97, 98, 99, 100, 101, 102, 103, 104, 105, 106, 107, 108, 109, 110, 111, 112, 113, 114, 115, 116, 117, 118, 119, 120, 121, 122, 123, 124, 125, 126, 127, 128, 129, 130, 131, 132, 133, 134, 135, 136, 137, 138, 139, 140, 141, 142, 143, 144, 145, 146, 147, 148, 149, 150, 151, 152, 153, 154, 155, 156, 157, 158, 159, 160, 161, 162, 163, 164, 165, 166, 167, 168, 169, 170, 171, 172, 173, 174, 175, 176, 177, 178, 179, 180, 181, 182, 183, 184, 185, 186, 187, 188, 189, 190, 191, 192, 193, 194, 195, 196, 197, 198, 199, 200, 201, 202, 203, 204, 205, 206, 207, 208, 209, 210, 211, 212, 213, 214, 215, 216, 217, 218, 219, 220, 221, 222, 223, 224, 225, 226, 227, 228, 229, 230, 231, 232, 233, 234, 235, 236, 237, 238, 239, 240, 241, 242, 243, 244, 245, 246, 247, 248, 249, 250, 251, 252, 253, 254, 255, 256, 257, 258, 259, 260, 261, 262, 263, 264, 265, 266, 267, 268, 269, 270, 271, 272, 273, 274, 275, 276, 277, 278, 279, 280, 281, 282, 283, 284, 285, 286, 287, 288, 289, 290, 291, 292, 293, 294, 295, 296, 297, 298, 299, 300, 301, 302, 303, 304, 305, 306, 307, 308, 309, 310, 311, 312, 313, 314, 315, 316, 317, 318, 319, 320, 321, 322, 323, 324, 325, 326, 327, 328, 329, 330, 331, 332, 333, 334, 335, 336, 337, 338, 339, 340, 341, 342, 343, 344, 345, 346, 347, 348, 349, 350, 351, 352, 353, 354, 355, 356, 357, 358, 359, 360, 361, 362, 363, 364, 365, 366, 367, 368, 369, 370, 371, 372, 373, 374, 375, 376, 377, 378, 379, 380, 381, 382, 383, 384, 385, 386, 387, 388, 389, 390, 391, 392, 393, 394, 395, 396, 397, 398, 399, 400, 401, 402, 403, 404, 405, 406, 407, 408, 409, 410, 411, 412, 413, 414, 415, 416, 417, 418, 419, 420, 421, 422, 423, 424, 425, 426, 427, 428, 429, 430, 431, 432, 433, 434, 435, 436, 437, 438, 439, 440, 441, 442, 443, 444, 445, 446, 447, 448, 449, 450],
      "AcquisitionTime": ["141643.330000", "141644.820000", "141646.310000", "141647.800000", "141649.290000", "141650.780000", "141652.270000", "141653.760000", "141655.250000", "141656.740000", "141658.230000", "141659.720000", "141701.210000", "141702.700000", "141704.190000", "141705.680000", "141707.170000", "141708.660000", "141710.150000", "141711.640000", "141713.130000", "141714.620000", "141716.110000", "141717.600000", "141719.090000", "141720.580000", "141722.070000", "141723.560000", "141725.050000", "141726.540000", "141728.030000", "141729.520000", "141731.010000", "141732.500000", "141733.990000", "141735.480000", "141736.970000", "141738.460000", "141739.950000", "141741.440000", "141742.930000", "141744.420000", "141745.910000", "141747.400000", "141748.890000", "141750.380000", "141751.870000", "141753.360000", "141754.850000", "141756.340000", "141757.830000", "141759.320000", "141800.810000", "141802.300000", "141803.790000", "141805.280000", "141806.770000", "141808.260000", "141809.750000", "141811.240000", "141812.730000", "141814.220000", "141815.710000", "141817.200000", "141818.690000", "141820.180000", "141821.670000", "141823.160000", "141824.650000", "141826.140000", "141827.630000", "141829.120000", "141830.610000", "141832.100000", "141833.590000", "141835.080000", "141836.570000", "141838.060000", "141839.550000", "141841.040000", "141842.530000", "141844.020000", "141845.510000", "141847.000000", "141848.490000", "141849.980000", "141851.470000", "141852.960000", "141854.450000", "141855.940000", "141857.430000", "141858.920000", "141900.410000", "141901.900000", "141903.390000", "141904.880000", "141906.370000", "141907.860000", "141909.350000", "141910.840000", "141912.330000", "141913.820000", "141915.310000", "141916.800000", "141918.290000", "141919.780000", "141921.270000", "141922.760000", "141924.250000", "141925.740000", "141927.230000", "141928.720000", "141930.210000", "141931.700000", "141933.190000", "141934.680000", "141936.170000", "141937.660000", "141939.150000", "141940.640000", "141942.130000", "141943.620000", "141945.110000", "141946.600000", "141948.090000", "141949.580000", "141951.070000", "141952.560000", "141954.050000", "141955.540000", "141957.030000", "141958.520000", "142000.010000", "142001.500000", "142002.990000", "142004.480000", "142005.970000", "142007.460000", "142008.950000", "142010.440000", "142011.930000", "142013.420000", "142014.910000", "142016.400000", "142017.890000", "142019.380000", "142020.870000", "142022.360000", "142023.850000", "142025.340000", "142026.830000", "142028.320000", "142029.810000", "142031.300000", "142032.790000", "142034.280000", "142035.770000", "142037.260000", "142038.750000", "142040.240000", "142041.730000", "142043.220000", "142044.710000", "142046.200000", "142047.690000", "142049.180000", "142050.670000", "142052.160000", "142053.650000", "142055.140000", "142056.630000", "142058.120000", "142059.610000", "142101.100000", "142102.590000", "142104.080000", "142105.570000", "142107.060000", "142108.550000", "142110.040000", "142111.530000", "142113.020000", "142114.510000", "142116.000000", "142117.490000", "142118.980000", "142120.470000", "142121.960000", "142123.450000", "142124.940000", "142126.430000", "142127.920000", "142129.410000", "142130.900000", "142132.390000", "142133.880000", "142135.370000", "142136.860000", "142138.350000", "142139.840000", "142141.330000", "142142.820000", "142144.310000", "142145.800000", "142147.290000", "142148.780000", "142150.270000", "142151.760000", "142153.250000", "142154.740000", "142156.230000", "142157.720000", "142159.210000", "142200.700000", "142202.190000", "142203.680000", "142205.170000", "142206.660000", "142208.150000", "142209.640000", "142211.130000", "142212.620000", "142214.110000", "142215.600000", "142217.090000", "142218.580000", "142220.070000", "142221.560000", "142223.050000", "142224.540000", "142226.030000", "142227.520000", "142229.010000", "142230.500000", "142231.990000", "142233.480000", "142234.970000", "142236.460000", "142237.950000", "142239.440000", "142240.930000", "142242.420000", "142243.910000", "142245.400000", "142246.890000", "142248.380000", "142249.870000", "142251.360000", "142252.850000", "142254.340000", "142255.830000", "142257.320000", "142258.810000", "142300.300000", "142301.790000", "142303.280000", "142304.770000", "142306.260000", "142307.750000", "142309.240000", "142310.730000", "142312.220000", "142313.710000", "142315.200000", "142316.690000", "142318.180000", "142319.670000", "142321.160000", "142322.650000", "142324.140000", "142325.630000", "142327.120000", "142328.610000", "142330.100000", "142331.590000", "142333.080000", "142334.570000", "142336.060000", "142337.550000", "142339.040000", "142340.530000", "142342.020000", "142343.510000", "142345.000000", "142346.490000", "142347.980000", "142349.470000", "142350.960000", "142352.450000", "142353.940000", "142355.430000", "142356.920000", "142358.410000", "142359.900000", "142401.390000", "142402.880000", "142404.370000", "142405.860000", "142407.350000", "142408.840000", "142410.330000", "142411.820000", "142413.310000", "142414.800000", "142416.290000", "142417.780000", "142419.270000", "142420.760000", "142422.250000", "142423.740000", "142425.230000", "142426.720000", "142428.210000", "142429.700000", "142431.190000", "142432.680000", "142434.170000", "142435.660000", "142437.150000", "142438.640000", "142440.130000", "142441.620000", "142443.110000", "142444.600000", "142446.090000", "142447.580000", "142449.070000", "142450.560000", "142452.050000", "142453.540000", "142455.030000", "142456.520000", "142458.010000", "142459.500000", "142500.990000", "142502.480000", "142503.970000", "142505.460000", "142506.950000", "142508.440000", "142509.930000", "142511.420000", "142512.910000", "142514.400000", "142515.890000", "142517.380000", "142518.870000", "142520.360000", "142521.850000", "142523.340000", "142524.830000", "142526.320000", "142527.810000", "142529.300000", "142530.790000", "142532.280000", "142533.770000", "142535.260000", "142536.750000", "142538.240000", "142539.730000", "142541.220000", "142542.710000", "142544.200000", "142545.690000", "142547.180000", "142548.670000", "142550.160000", "142551.650000", "142553.140000", "142554.630000", "142556.120000", "142557.610000", "142559.100000", "142600.590000", "142602.080000", "142603.570000", "142605.060000", "142606.550000", "142608.040000", "142609.530000", "142611.020000", "142612.510000", "142614.000000", "142615.490000", "142616.980000", "142618.470000", "142619.960000", "142621.450000", "142622.940000", "142624.430000", "142625.920000", "142627.410000", "142628.900000", "142630.390000", "142631.880000", "142633.370000", "142634.860000", "142636.350000", "142637.840000", "142639.330000", "142640.820000", "142642.310000", "142643.800000", "142645.290000", "142646.780000", "142648.270000", "142649.760000", "142651.250000", "142652.740000", "142654.230000", "142655.720000", "142657.210000", "142658.700000", "142700.190000", "142701.680000", "142703.170000", "142704.660000", "142706.150000", "142707.640000", "142709.130000", "142710.620000", "142712.110000", "142713.600000", "142715.090000", "142716.580000", "142718.070000", "142719.560000", "142721.050000", "142722.540000", "142724.030000", "142725.520000", "142727.010000", "142728.500000", "142729.990000", "142731.480000", "142732.970000", "142734.460000", "142735.950000", "142737.440000", "142738.930000", "142740.420000", "142741.910000", "142743.400000", "142744.890000", "142746.380000", "142747.870000", "142749.360000", "142750.850000", "142752.340000"],
      "ContentTime": ["141812.448000", "141812.452000", "141812.455000", "141812.459000", "141812.462000", "141812.465000", "141812.469000", "141812.472000", "141812.476000", "141812.479000", "141812.482000", "141812.486000", "141812.489000", "141812.493000", "141812.496000", "141812.500000", "141812.503000", "141812.506000", "141812.510000", "141812.513000", "141812.516000", "141812.520000", "141812.523000", "141812.527000", "141812.530000", "141812.533000", "141812.537000", "141812.540000", "141812.543000", "141812.547000", "141812.550000", "141812.562000", "141812.565000", "141812.569000", "141812.572000", "141812.576000", "141812.579000", "141832.400000", "141832.417000", "141832.421000", "141832.424000", "141832.427000", "141832.431000", "141832.434000", "141832.438000", "141832.441000", "141832.445000", "141832.448000", "141832.451000", "141832.455000", "141832.458000", "141832.461000", "141832.465000", "141832.468000", "141832.472000", "141832.475000", "141832.479000", "141852.400000", "141852.404000", "141852.407000", "141852.411000", "141852.414000", "141852.418000", "141852.421000", "141852.424000", "141852.428000", "141852.431000", "141852.435000", "141852.438000", "141852.442000", "141852.445000", "141852.448000", "141852.452000", "141852.455000", "141852.459000", "141852.462000", "141852.465000", "141912.399000", "141912.403000", "141912.406000", "141912.410000", "141912.413000", "141912.417000", "141912.420000", "141912.424000", "141912.427000", "141912.430000", "141912.434000", "141912.437000", "141912.441000", "141912.445000", "141912.449000", "141912.452000", "141912.455000", "141912.459000", "141912.462000", "141912.466000", "141952.399000", "141952.403000", "141952.406000", "141952.410000", "141952.413000", "141952.417000", "141952.420000", "141952.424000", "141952.427000", "141952.431000", "141952.434000", "141952.437000", "141952.441000", "141952.444000", "141952.448000", "141952.451000", "141952.455000", "141952.458000", "141952.461000", "141952.465000", "141952.468000", "141952.472000", "141952.475000", "141952.479000", "141952.482000", "141952.485000", "141952.489000", "141952.492000", "141952.496000", "142032.400000", "142032.404000", "142032.407000", "142032.411000", "142032.415000", "142032.418000", "142032.422000", "142032.448000", "142032.452000", "142032.455000", "142032.467000", "142032.470000", "142032.473000", "142032.477000", "142032.480000", "142032.484000", "142032.487000", "142032.491000", "142032.494000", "142032.498000", "142032.501000", "142032.504000", "142032.508000", "142032.511000", "142032.515000", "142032.518000", "142032.522000", "142052.400000", "142052.404000", "142052.408000", "142052.411000", "142052.414000", "142052.418000", "142052.421000", "142052.425000", "142052.428000", "142052.432000", "142052.435000", "142052.439000", "142052.442000", "142052.445000", "142132.399000", "142132.403000", "142132.407000", "142132.410000", "142132.413000", "142132.417000", "142132.420000", "142132.424000", "142132.427000", "142132.431000", "142132.434000", "142132.437000", "142132.441000", "142132.445000", "142132.449000", "142132.452000", "142132.456000", "142132.459000", "142132.463000", "142132.466000", "142132.469000", "142132.473000", "142132.476000", "142132.480000", "142132.483000", "142132.486000", "142212.399000", "142212.403000", "142212.407000", "142212.410000", "142212.413000", "142212.417000", "142212.420000", "142212.424000", "142212.427000", "142212.431000", "142212.434000", "142212.437000", "142212.441000", "142212.444000", "142212.448000", "142212.451000", "142212.455000", "142212.458000", "142212.461000", "142212.465000", "142212.468000", "142212.472000", "142212.475000", "142212.479000", "142212.482000", "142212.486000", "142212.489000", "142252.400000", "142252.404000", "142252.408000", "142252.411000", "142252.414000", "142252.418000", "142252.421000", "142252.425000", "142252.428000", "142252.432000", "142252.435000", "142252.438000", "142252.442000", "142252.445000", "142252.449000", "142252.461000", "142252.464000", "142252.468000", "142252.472000", "142252.475000", "142252.479000", "142252.482000", "142252.486000", "142252.489000", "142252.492000", "142252.496000", "142252.499000", "142332.399000", "142332.403000", "142332.406000", "142332.410000", "142332.413000", "142332.417000", "142332.420000", "142332.424000", "142332.427000", "142332.430000", "142332.434000", "142332.437000", "142332.441000", "142332.444000", "142332.448000", "142332.451000", "142332.454000", "142332.458000", "142332.461000", "142332.465000", "142332.468000", "142332.472000", "142332.475000", "142332.479000", "142332.482000", "142332.485000", "142332.489000", "142412.399000", "142412.403000", "142412.407000", "142412.410000", "142412.414000", "142412.417000", "142412.420000", "142412.424000", "142412.427000", "142412.431000", "142412.434000", "142412.438000", "142412.441000", "142412.444000", "142412.448000", "142412.451000", "142412.455000", "142412.458000", "142412.462000", "142412.465000", "142412.469000", "142412.472000", "142412.475000", "142412.479000", "142412.482000", "142412.486000", "142412.489000", "142452.400000", "142452.404000", "142452.408000", "142452.411000", "142452.415000", "142452.418000", "142452.422000", "142452.425000", "142452.428000", "142452.432000", "142452.435000", "142452.439000", "142452.442000", "142452.446000", "142452.449000", "142452.453000", "142452.456000", "142452.460000", "142452.463000", "142452.466000", "142452.470000", "142452.473000", "142452.477000", "142452.480000", "142452.484000", "142452.487000", "142452.508000", "142532.400000", "142532.404000", "142532.408000", "142532.411000", "142532.415000", "142532.418000", "142532.422000", "142532.425000", "142532.428000", "142532.432000", "142532.435000", "142532.439000", "142532.442000", "142532.446000", "142532.449000", "142532.454000", "142532.458000", "142532.461000", "142532.465000", "142532.471000", "142532.477000", "142532.481000", "142532.485000", "142532.488000", "142532.492000", "142532.496000", "142612.400000", "142612.403000", "142612.407000", "142612.410000", "142612.413000", "142612.417000", "142612.420000", "142612.424000", "142612.427000", "142612.430000", "142612.434000", "142612.437000", "142612.441000", "142612.444000", "142612.448000", "142612.451000", "142612.454000", "142612.458000", "142612.461000", "142612.465000", "142612.468000", "142612.471000", "142612.475000", "142612.478000", "142612.482000", "142612.485000", "142612.489000", "142652.399000", "142652.403000", "142652.407000", "142652.410000", "142652.414000", "142652.417000", "142652.421000", "142652.424000", "142652.427000", "142652.431000", "142652.434000", "142652.438000", "142652.441000", "142652.445000", "142652.448000", "142652.451000", "142652.455000", "142652.458000", "142652.462000", "142652.465000", "142652.469000", "142652.472000", "142652.476000", "142652.479000", "142652.482000", "142652.486000", "142652.489000", "142732.400000", "142732.410000", "142732.414000", "142732.417000", "142732.420000", "142732.424000", "142732.427000", "142732.431000", "142732.434000", "142732.438000", "142732.441000", "142732.444000", "142732.448000", "142732.451000", "142732.454000", "142732.458000", "142732.461000", "142732.465000", "142732.468000", "142732.472000", "142732.475000", "142732.479000", "142732.482000", "142732.486000", "142732.489000", "142732.492000", "142732.496000", "142754.147000", "142754.151000", "142754.154000", "142754.158000", "142754.188000", "142754.191000", "142754.195000", "142754.198000", "142754.209000", "142754.212000", "142754.216000", "142754.219000", "142754.223000", "142754.226000", "142754.229000"],
