{
  "AcquisitionMatrixPE": 104,
  "AcquisitionNumber": 1,
  "AcquisitionTime": "13:49:11.482500",
  "BandwidthPerPixelPhaseEncode": 17.17,
  "BaseResolution": 104,
  "BodyPartExamined": "BRAIN",
  "CoilCombinationMethod": "Sum of Squares",
  "ConsistencyInfo": "N4_VE11C_LATEST_20160120",
  "ConversionSoftware": "dcm2niix",
  "ConversionSoftwareVersion": "v1.0.20211006",
  "DerivedVendorReportedEchoSpacing": 0.000560011,
  "DeviceSerialNumber": "167006",
  "DwellTime": 2.1e-06,
  "EchoTime": 0.037,
  "EchoTime1": 0.037,
  "EchoTime2": 0.001,
  "EchoTrainLength": 104,
  "EffectiveEchoSpacing": 0.000560011,
  "FlipAngle": 52,
  "HeudiconvVersion": "0.11.3.post9+gc939bf8",
  "ImageComments": "Unaliased MB4/PE3/LB",
  "ImageOrientationPatientDICOM": [0.999845, 0.0108408, 0.0138982, -0.0073293, 0.972801, -0.231525],
  "ImageOrientationText": "Tra>Cor(-13.4)>Sag(0.9)",
  "ImageType": [
    "ORIGINAL",
    "PRIMARY",
    "P",
    "MB",
    "ND",
    "MOSAIC",
    "PHASE"
],
  "ImagingFrequency": 123.259,
  "InPlanePhaseEncodingDirectionDICOM": "COL",
  "InstitutionAddress": "Chemin Queen-Mary 4565,Montreal,District,CA,H3W 1W5",
  "InstitutionName": "IUGM",
  "InstitutionalDepartmentName": "Department",
  "MRAcquisitionType": "2D",
  "MagneticFieldStrength": 3,
  "Manufacturer": "Siemens",
  "ManufacturersModelName": "Prisma_fit",
  "MatrixCoilMode": "SENSE",
  "Modality": "MR",
  "MultibandAccelerationFactor": 4,
  "PartialFourier": 1,
  "PatientPosition": "HFS",
  "PercentPhaseFOV": 100,
  "PercentSampling": 100,
  "PhaseEncodingDirection": "j",
  "PhaseEncodingSteps": 104,
  "PhaseResolution": 1,
  "PixelBandwidth": 2290,
  "ProcedureStepDescription": "games^mariostars",
  "ProtocolName": "func_task-mariostars_run-03",
  "PulseSequenceDetails": "%CustomerSeq%\\cmrr_mbep2d_bold",
  "ReceiveCoilActiveElements": "HC1-7;NC1,2",
  "ReceiveCoilName": "HeadNeck_64",
  "ReconMatrixPE": 104,
  "RepetitionTime": 1.49,
  "SAR": 0.0600532,
  "ScanOptions": "FS",
  "ScanningSequence": "EP",
  "SequenceName": "epfid2d1_104",
  "SequenceVariant": "SK\\SS",
  "SeriesDescription": "func_task-mariostars_run-03",
  "SeriesNumber": 18,
  "ShimSetting": [623, -7227, -8750, 707, 27, -35, 93, -11],
  "SliceThickness": 2,
  "SliceTiming": [0, 0.7825, 0.0975, 0.88, 0.195, 0.98, 0.2925, 1.0775, 0.39, 1.175, 0.49, 1.2725, 0.5875, 1.37, 0.685, 0, 0.7825, 0.0975, 0.88, 0.195, 0.98, 0.2925, 1.0775, 0.39, 1.175, 0.49, 1.2725, 0.5875, 1.37, 0.685, 0, 0.7825, 0.0975, 0.88, 0.195, 0.98, 0.2925, 1.0775, 0.39, 1.175, 0.49, 1.2725, 0.5875, 1.37, 0.685, 0, 0.7825, 0.0975, 0.88, 0.195, 0.98, 0.2925, 1.0775, 0.39, 1.175, 0.49, 1.2725, 0.5875, 1.37, 0.685],
  "SoftwareVersions": "syngo MR E11",
  "SpacingBetweenSlices": 2,
  "StationName": "MRC35049",
  "TaskName": "mariostars",
  "TotalReadoutTime": 0.0576811,
  "TxRefAmp": 253.418,
  "WipMemBlock": "a12a5d53-9d50-4dda-82e5-576256a6eecd||Sequence: R016 ve11c/master r/e634e98; Dec 19 2017 11:00:25 by eja",
  "dcmmeta_affine": [
    [-1.9996893405914307, -0.014658607542514801, 0.03206011280417442, 108.94188690185547],
    [-0.021681571379303932, 1.9456027746200562, -0.46277374029159546, -74.84284210205078],
    [0.027796313166618347, 0.46304941177368164, 1.9454594850540161, -51.35407638549805],
    [0.0, 0.0, 0.0, 1.0]
],
  "dcmmeta_reorient_transform": [
    [0.0, -1.0, 0.0, 103.0],
    [1.0, 0.0, 0.0, 0.0],
    [0.0, 0.0, 1.0, 0.0],
    [0.0, 0.0, 0.0, 1.0]
],
  "dcmmeta_shape": [104, 104, 60, 453],
  "dcmmeta_slice_dim": 2,
  "dcmmeta_version": 0.6,
  "global": {
    "const": {
      "AcquisitionMatrix": [104, 0, 0, 104],
      "AngioFlag": "N",
      "BitsAllocated": 16,
      "BitsStored": 16,
      "BodyPartExamined": "BRAIN",
      "Columns": 832,
      "EchoNumbers": 1,
      "EchoTime": 37.0,
      "EchoTrainLength": 104,
      "FlipAngle": 52.0,
      "HighBit": 15,
      "ImageOrientationPatient": [0.99984464723316, 0.01084078600389, 0.01389815664097, -0.007329303981, 0.9728014147539, -0.2315247044183],
      "ImagePositionPatient": [-829.98322291076, -841.64576986227, 154.77213780259],
      "ImageType": [
        "ORIGINAL",
        "PRIMARY",
        "P",
        "MB",
        "ND",
        "MOSAIC"
],
      "ImagedNucleus": "1H",
      "ImagingFrequency": 123.258813,
      "InPlanePhaseEncodingDirection": "COL",
      "LargestImagePixelValue": 4095,
      "MRAcquisitionType": "2D",
      "MagneticFieldStrength": 3.0,
      "Manufacturer": "SIEMENS",
      "ManufacturerModelName": "Prisma_fit",
      "Modality": "MR",
      "NumberOfAverages": 1.0,
      "NumberOfPhaseEncodingSteps": 104,
      "PercentPhaseFieldOfView": 100.0,
      "PercentSampling": 100.0,
      "PerformedProcedureStepStartTime": "125910.491000",
      "PhotometricInterpretation": "MONOCHROME2",
      "PixelBandwidth": 2290.0,
      "PixelRepresentation": 0,
      "PixelSpacing": [2.0, 2.0],
      "ProtocolName": "func_task-mariostars_run-03",
      "RepetitionTime": 1490.0,
      "RescaleIntercept": -4096.0,
      "RescaleSlope": 2.0,
      "RescaleType": "US",
      "Rows": 832,
      "SAR": 0.06005318613427,
      "SamplesPerPixel": 1,
      "ScanOptions": "FS",
      "ScanningSequence": "EP",
      "SequenceName": "epfid2d1_104",
      "SequenceVariant": [
        "SK",
        "SS"
],
      "SeriesDescription": "func_task-mariostars_run-03",
      "SeriesNumber": 18,
      "SeriesTime": "135037.943000",
      "SliceLocation": -30.889643008216,
      "SliceThickness": 2.0,
      "SmallestImagePixelValue": 0,
      "SoftwareVersions": "syngo MR E11",
      "SpacingBetweenSlices": 2.0000000071878,
      "SpecificCharacterSet": "ISO_IR 100",
      "StudyID": "1",
      "StudyTime": "125910.369000",
      "TransmitCoilName": "Body",
      "VariableFlipAngleFlag": "N",
      "WindowCenterWidthExplanation": "Algo1",
      "dBdt": 0.0},
    "slices": {}
  },
  "time": {
    "samples": {
      "AcquisitionNumber": [1, 2, 3, 4, 5, 6, 7, 8, 9, 10, 11, 12, 13, 14, 15, 16, 17, 18, 19, 20, 21, 22, 23, 24, 25, 26, 27, 28, 29, 30, 31, 32, 33, 34, 35, 36, 37, 38, 39, 40, 41, 42, 43, 44, 45, 46, 47, 48, 49, 50, 51, 52, 53, 54, 55, 56, 57, 58, 59, 60, 61, 62, 63, 64, 65, 66, 67, 68, 69, 70, 71, 72, 73, 74, 75, 76, 77, 78, 79, 80, 81, 82, 83, 84, 85, 86, 87, 88, 89, 90, 91, 92, 93, 94, 95, 96, 97, 98, 99, 100, 101, 102, 103, 104, 105, 106, 107, 108, 109, 110, 111, 112, 113, 114, 115, 116, 117, 118, 119, 120, 121, 122, 123, 124, 125, 126, 127, 128, 129, 130, 131, 132, 133, 134, 135, 136, 137, 138, 139, 140, 141, 142, 143, 144, 145, 146, 147, 148, 149, 150, 151, 152, 153, 154, 155, 156, 157, 158, 159, 160, 161, 162, 163, 164, 165, 166, 167, 168, 169, 170, 171, 172, 173, 174, 175, 176, 177, 178, 179, 180, 181, 182, 183, 184, 185, 186, 187, 188, 189, 190, 191, 192, 193, 194, 195, 196, 197, 198, 199, 200, 201, 202, 203, 204, 205, 206, 207, 208, 209, 210, 211, 212, 213, 214, 215, 216, 217, 218, 219, 220, 221, 222, 223, 224, 225, 226, 227, 228, 229, 230, 231, 232, 233, 234, 235, 236, 237, 238, 239, 240, 241, 242, 243, 244, 245, 246, 247, 248, 249, 250, 251, 252, 253, 254, 255, 256, 257, 258, 259, 260, 261, 262, 263, 264, 265, 266, 267, 268, 269, 270, 271, 272, 273, 274, 275, 276, 277, 278, 279, 280, 281, 282, 283, 284, 285, 286, 287, 288, 289, 290, 291, 292, 293, 294, 295, 296, 297, 298, 299, 300, 301, 302, 303, 304, 305, 306, 307, 308, 309, 310, 311, 312, 313, 314, 315, 316, 317, 318, 319, 320, 321, 322, 323, 324, 325, 326, 327, 328, 329, 330, 331, 332, 333, 334, 335, 336, 337, 338, 339, 340, 341, 342, 343, 344, 345, 346, 347, 348, 349, 350, 351, 352, 353, 354, 355, 356, 357, 358, 359, 360, 361, 362, 363, 364, 365, 366, 367, 368, 369, 370, 371, 372, 373, 374, 375, 376, 377, 378, 379, 380, 381, 382, 383, 384, 385, 386, 387, 388, 389, 390, 391, 392, 393, 394, 395, 396, 397, 398, 399, 400, 401, 402, 403, 404, 405, 406, 407, 408, 409, 410, 411, 412, 413, 414, 415, 416, 417, 418, 419, 420, 421, 422, 423, 424, 425, 426, 427, 428, 429, 430, 431, 432, 433, 434, 435, 436, 437, 438, 439, 440, 441, 442, 443, 444, 445, 446, 447, 448, 449, 450, 451, 452, 453],
      "AcquisitionTime": ["134911.482500", "134912.972500", "134914.462500", "134915.952500", "134917.442500", "134918.932500", "134920.422500", "134921.912500", "134923.402500", "134924.892500", "134926.382500", "134927.872500", "134929.362500", "134930.852500", "134932.342500", "134933.832500", "134935.322500", "134936.812500", "134938.302500", "134939.792500", "134941.282500", "134942.772500", "134944.262500", "134945.752500", "134947.242500", "134948.732500", "134950.222500", "134951.712500", "134953.202500", "134954.692500", "134956.182500", "134957.672500", "134959.162500", "135000.652500", "135002.142500", "135003.632500", "135005.122500", "135006.612500", "135008.102500", "135009.592500", "135011.082500", "135012.572500", "135014.062500", "135015.552500", "135017.042500", "135018.532500", "135020.022500", "135021.512500", "135023.002500", "135024.492500", "135025.982500", "135027.472500", "135028.962500", "135030.452500", "135031.942500", "135033.432500", "135034.922500", "135036.412500", "135037.902500", "135039.392500", "135040.882500", "135042.372500", "135043.862500", "135045.352500", "135046.842500", "135048.332500", "135049.822500", "135051.312500", "135052.802500", "135054.292500", "135055.782500", "135057.272500", "135058.762500", "135100.252500", "135101.742500", "135103.232500", "135104.722500", "135106.212500", "135107.702500", "135109.192500", "135110.682500", "135112.172500", "135113.662500", "135115.152500", "135116.642500", "135118.132500", "135119.622500", "135121.112500", "135122.602500", "135124.092500", "135125.582500", "135127.072500", "135128.562500", "135130.052500", "135131.542500", "135133.032500", "135134.522500", "135136.012500", "135137.502500", "135138.992500", "135140.482500", "135141.972500", "135143.462500", "135144.952500", "135146.442500", "135147.932500", "135149.422500", "135150.912500", "135152.402500", "135153.892500", "135155.382500", "135156.872500", "135158.362500", "135159.852500", "135201.342500", "135202.832500", "135204.322500", "135205.812500", "135207.302500", "135208.792500", "135210.282500", "135211.772500", "135213.262500", "135214.752500", "135216.242500", "135217.732500", "135219.222500", "135220.712500", "135222.202500", "135223.692500", "135225.182500", "135226.672500", "135228.162500", "135229.652500", "135231.142500", "135232.632500", "135234.122500", "135235.612500", "135237.102500", "135238.592500", "135240.082500", "135241.572500", "135243.062500", "135244.552500", "135246.042500", "135247.532500", "135249.022500", "135250.512500", "135252.002500", "135253.492500", "135254.982500", "135256.472500", "135257.962500", "135259.452500", "135300.942500", "135302.432500", "135303.922500", "135305.412500", "135306.902500", "135308.392500", "135309.882500", "135311.372500", "135312.862500", "135314.352500", "135315.842500", "135317.332500", "135318.822500", "135320.312500", "135321.802500", "135323.292500", "135324.782500", "135326.272500", "135327.762500", "135329.252500", "135330.742500", "135332.232500", "135333.722500", "135335.212500", "135336.702500", "135338.192500", "135339.682500", "135341.172500", "135342.662500", "135344.152500", "135345.642500", "135347.132500", "135348.622500", "135350.112500", "135351.602500", "135353.092500", "135354.582500", "135356.072500", "135357.562500", "135359.052500", "135400.542500", "135402.032500", "135403.522500", "135405.012500", "135406.502500", "135407.992500", "135409.482500", "135410.972500", "135412.462500", "135413.952500", "135415.442500", "135416.932500", "135418.422500", "135419.912500", "135421.402500", "135422.892500", "135424.382500", "135425.872500", "135427.362500", "135428.852500", "135430.342500", "135431.832500", "135433.322500", "135434.812500", "135436.302500", "135437.792500", "135439.282500", "135440.772500", "135442.262500", "135443.752500", "135445.242500", "135446.732500", "135448.222500", "135449.712500", "135451.202500", "135452.692500", "135454.182500", "135455.672500", "135457.162500", "135458.652500", "135500.142500", "135501.632500", "135503.122500", "135504.612500", "135506.102500", "135507.592500", "135509.082500", "135510.572500", "135512.062500", "135513.552500", "135515.042500", "135516.532500", "135518.022500", "135519.512500", "135521.002500", "135522.492500", "135523.982500", "135525.472500", "135526.962500", "135528.452500", "135529.942500", "135531.432500", "135532.922500", "135534.412500", "135535.902500", "135537.392500", "135538.882500", "135540.372500", "135541.862500", "135543.352500", "135544.842500", "135546.332500", "135547.822500", "135549.312500", "135550.802500", "135552.292500", "135553.782500", "135555.272500", "135556.762500", "135558.252500", "135559.742500", "135601.232500", "135602.722500", "135604.212500", "135605.702500", "135607.192500", "135608.682500", "135610.172500", "135611.662500", "135613.152500", "135614.642500", "135616.132500", "135617.622500", "135619.112500", "135620.602500", "135622.092500", "135623.582500", "135625.072500", "135626.562500", "135628.052500", "135629.542500", "135631.032500", "135632.522500", "135634.012500", "135635.502500", "135636.992500", "135638.482500", "135639.972500", "135641.462500", "135642.952500", "135644.442500", "135645.932500", "135647.422500", "135648.912500", "135650.402500", "135651.892500", "135653.382500", "135654.872500", "135656.362500", "135657.852500", "135659.342500", "135700.832500", "135702.322500", "135703.812500", "135705.302500", "135706.792500", "135708.282500", "135709.772500", "135711.262500", "135712.752500", "135714.242500", "135715.732500", "135717.222500", "135718.712500", "135720.202500", "135721.692500", "135723.182500", "135724.672500", "135726.162500", "135727.652500", "135729.142500", "135730.632500", "135732.122500", "135733.612500", "135735.102500", "135736.592500", "135738.082500", "135739.572500", "135741.062500", "135742.552500", "135744.042500", "135745.532500", "135747.022500", "135748.512500", "135750.002500", "135751.492500", "135752.982500", "135754.472500", "135755.962500", "135757.452500", "135758.942500", "135800.432500", "135801.922500", "135803.412500", "135804.902500", "135806.392500", "135807.882500", "135809.372500", "135810.862500", "135812.352500", "135813.842500", "135815.332500", "135816.822500", "135818.312500", "135819.802500", "135821.292500", "135822.782500", "135824.272500", "135825.762500", "135827.252500", "135828.742500", "135830.232500", "135831.722500", "135833.212500", "135834.702500", "135836.192500", "135837.682500", "135839.172500", "135840.662500", "135842.152500", "135843.642500", "135845.132500", "135846.622500", "135848.112500", "135849.602500", "135851.092500", "135852.582500", "135854.072500", "135855.562500", "135857.052500", "135858.542500", "135900.032500", "135901.522500", "135903.012500", "135904.502500", "135905.992500", "135907.482500", "135908.972500", "135910.462500", "135911.952500", "135913.442500", "135914.932500", "135916.422500", "135917.912500", "135919.402500", "135920.892500", "135922.382500", "135923.872500", "135925.362500", "135926.852500", "135928.342500", "135929.832500", "135931.322500", "135932.812500", "135934.302500", "135935.792500", "135937.282500", "135938.772500", "135940.262500", "135941.752500", "135943.242500", "135944.732500", "135946.222500", "135947.712500", "135949.202500", "135950.692500", "135952.182500", "135953.672500", "135955.162500", "135956.652500", "135958.142500", "135959.632500", "140001.122500", "140002.612500", "140004.102500", "140005.592500", "140007.082500", "140008.572500", "140010.062500", "140011.552500", "140013.042500", "140014.532500", "140016.022500", "140017.512500", "140019.002500", "140020.492500", "140021.982500", "140023.472500", "140024.962500"],
      "ContentTime": ["135037.945000", "135037.948000", "135037.951000", "135037.953000", "135037.967000", "135037.970000", "135037.973000", "135037.975000", "135037.978000", "135037.981000", "135037.984000", "135037.987000", "135037.990000", "135037.992000", "135037.995000", "135037.998000", "135038.002000", "135038.004000", "135038.007000", "135038.009000", "135038.012000", "135038.014000", "135038.017000", "135038.019000", "135038.022000", "135038.024000", "135038.027000", "135038.030000", "135038.032000", "135038.035000", "135038.037000", "135038.040000", "135057.857000", "135057.860000", "135057.862000", "135057.865000", "135057.867000", "135057.870000", "135057.873000", "135057.875000", "135057.878000", "135057.880000", "135057.883000", "135057.885000", "135057.888000", "135057.890000", "135057.893000", "135057.895000", "135057.898000", "135057.900000", "135057.903000", "135057.905000", "135057.908000", "135117.877000", "135117.880000", "135117.883000", "135117.885000", "135117.888000", "135117.890000", "135117.893000", "135117.895000", "135117.898000", "135117.900000", "135117.903000", "135117.905000", "135117.908000", "135117.910000", "135117.913000", "135117.916000", "135117.918000", "135117.921000", "135117.923000", "135117.926000", "135138.329000", "135138.332000", "135138.334000", "135138.337000", "135138.340000", "135138.342000", "135138.345000", "135138.347000", "135138.350000", "135138.353000", "135138.355000", "135138.358000", "135138.360000", "135138.363000", "135138.365000", "135138.368000", "135138.370000", "135138.373000", "135138.375000", "135138.378000", "135217.903000", "135217.906000", "135217.909000", "135217.911000", "135217.914000", "135217.916000", "135217.919000", "135217.922000", "135217.924000", "135217.927000", "135217.929000", "135217.932000", "135217.934000", "135217.937000", "135217.939000", "135217.942000", "135217.945000", "135217.947000", "135217.950000", "135217.952000", "135217.955000", "135217.957000", "135217.960000", "135217.963000", "135217.965000", "135217.968000", "135217.970000", "135217.973000", "135217.975000", "135217.978000", "135217.981000", "135257.887000", "135257.890000", "135257.893000", "135257.895000", "135257.898000", "135257.901000", "135257.903000", "135257.906000", "135257.909000", "135257.911000", "135257.914000", "135257.916000", "135257.919000", "135257.921000", "135257.924000", "135257.926000", "135257.929000", "135257.932000", "135257.934000", "135257.937000", "135257.939000", "135257.942000", "135257.945000", "135257.947000", "135257.950000", "135257.952000", "135257.955000", "135337.901000", "135337.903000", "135337.906000", "135337.909000", "135337.911000", "135337.914000", "135337.916000", "135337.919000", "135337.922000", "135337.924000", "135337.927000", "135337.929000", "135337.932000", "135337.934000", "135337.937000", "135337.939000", "135337.942000", "135337.945000", "135337.947000", "135337.950000", "135337.952000", "135337.955000", "135337.957000", "135337.960000", "135337.972000", "135337.975000", "135337.977000", "135417.886000", "135417.889000", "135417.899000", "135417.901000", "135417.904000", "135417.907000", "135417.909000", "135417.912000", "135417.914000", "135417.917000", "135417.919000", "135417.922000", "135417.924000", "135417.927000", "135417.930000", "135417.932000", "135417.935000", "135417.937000", "135417.940000", "135417.942000", "135417.945000", "135417.947000", "135417.950000", "135417.953000", "135417.955000", "135417.958000", "135457.883000", "135457.886000", "135457.888000", "135457.891000", "135457.893000", "135457.896000", "135457.899000", "135457.901000", "135457.904000", "135457.906000", "135457.909000", "135457.911000", "135457.914000", "135457.917000", "135457.919000", "135457.922000", "135457.925000", "135457.927000", "135457.930000", "135457.932000", "135457.935000", "135457.937000", "135457.940000", "135457.942000", "135457.945000", "135457.948000", "135457.950000", "135537.896000", "135537.899000", "135537.901000", "135537.904000", "135537.906000", "135537.909000", "135537.911000", "135537.914000", "135537.917000", "135537.919000", "135537.922000", "135537.924000", "135537.927000", "135537.929000", "135537.932000", "135537.934000", "135537.937000", "135537.940000", "135537.942000", "135537.945000", "135537.947000", "135537.950000", "135537.952000", "135537.955000", "135537.958000", "135537.960000", "135537.963000", "135617.893000", "135617.895000", "135617.898000", "135617.901000", "135617.903000", "135617.906000", "135617.908000", "135617.911000", "135617.913000", "135617.916000", "135617.919000", "135617.921000", "135617.924000", "135617.926000", "135617.929000", "135617.931000", "135617.934000", "135617.937000", "135617.939000", "135617.942000", "135617.944000", "135617.947000", "135617.949000", "135617.952000", "135617.955000", "135617.957000", "135617.960000", "135657.896000", "135657.898000", "135657.901000", "135657.904000", "135657.906000", "135657.909000", "135657.911000", "135657.914000", "135657.916000", "135657.919000", "135657.921000", "135657.924000", "135657.927000", "135657.929000", "135657.932000", "135657.934000", "135657.937000", "135657.939000", "135657.942000", "135657.944000", "135657.947000", "135657.950000", "135657.952000", "135657.955000", "135657.957000", "135657.960000", "135657.963000", "135737.892000", "135737.895000", "135737.897000", "135737.900000", "135737.903000", "135737.905000", "135737.908000", "135737.910000", "135737.913000", "135737.915000", "135737.918000", "135737.920000", "135737.923000", "135737.926000", "135737.928000", "135737.931000", "135737.933000", "135737.936000", "135737.939000", "135737.941000", "135737.944000", "135737.946000", "135737.949000", "135737.951000", "135737.954000", "135737.957000", "135737.959000", "135817.896000", "135817.899000", "135817.902000", "135817.904000", "135817.907000", "135817.909000", "135817.912000", "135817.914000", "135817.917000", "135817.920000", "135817.922000", "135817.925000", "135817.927000", "135817.930000", "135817.933000", "135817.935000", "135817.938000", "135817.940000", "135817.943000", "135817.945000", "135817.948000", "135817.950000", "135817.953000", "135817.955000", "135817.958000", "135817.961000", "135817.963000", "135857.898000", "135857.901000", "135857.904000", "135857.907000", "135857.910000", "135857.912000", "135857.915000", "135857.918000", "135857.920000", "135857.923000", "135857.926000", "135857.928000", "135857.931000", "135857.933000", "135857.936000", "135857.938000", "135857.941000", "135857.944000", "135857.946000", "135857.949000", "135857.951000", "135857.954000", "135857.956000", "135857.959000", "135857.961000", "135857.964000", "135937.889000", "135937.892000", "135937.894000", "135937.897000", "135937.899000", "135937.902000", "135937.904000", "135937.907000", "135937.910000", "135937.912000", "135937.915000", "135937.917000", "135937.920000", "135937.922000", "135937.925000", "135937.927000", "135937.930000", "135937.933000", "135937.935000", "135937.938000", "135937.940000", "135937.943000", "135937.945000", "135937.948000", "135937.951000", "135937.953000", "135937.956000", "140017.903000", "140017.905000", "140017.908000", "140017.911000", "140017.913000", "140017.916000", "140017.918000", "140017.921000", "140017.924000", "140017.926000", "140017.929000", "140017.931000", "140017.934000", "140017.936000", "140017.939000", "140017.941000", "140017.944000", "140017.947000", "140017.949000", "140017.952000", "140017.954000", "140017.957000", "140017.960000", "140017.962000", "140017.965000", "140017.967000", "140017.970000", "140027.771000", "140027.774000", "140027.777000", "140027.779000", "140027.782000", "140027.785000", "140027.787000"],
