{
  "AcquisitionMatrixPE": 104,
  "AcquisitionNumber": 1,
  "AcquisitionTime": "11:27:53.222500",
  "BandwidthPerPixelPhaseEncode": 17.17,
  "BaseResolution": 104,
  "BodyPartExamined": "BRAIN",
  "CoilCombinationMethod": "Sum of Squares",
  "ConsistencyInfo": "N4_VE11C_LATEST_20160120",
  "ConversionSoftware": "dcm2niix",
  "ConversionSoftwareVersion": "v1.0.20220505",
  "DerivedVendorReportedEchoSpacing": 0.000560011,
  "DeviceSerialNumber": "167006",
  "DwellTime": 2.1e-06,
  "EchoTime": 0.037,
  "EchoTrainLength": 104,
  "EffectiveEchoSpacing": 0.000560011,
  "FlipAngle": 52,
  "HeudiconvVersion": "0.5.3.post811+g6206e14",
  "ImageComments": "Unaliased MB4/PE3/LB",
  "ImageOrientationPatientDICOM": [0.999491, 0.00764131, 0.0309783, 0.00994359, 0.84795, -0.529983],
  "ImageOrientationText": "Tra>Cor(-32.0)>Sag(1.7)",
  "ImageType": [
    "ORIGINAL",
    "PRIMARY",
    "M",
    "MB",
    "ND",
    "MOSAIC"
],
  "ImagingFrequency": 123.259,
  "InPlanePhaseEncodingDirectionDICOM": "COL",
  "InstitutionAddress": "Chemin Queen-Mary 4565,Montreal,District,CA,H3W 1W5",
  "InstitutionName": "IUGM",
  "InstitutionalDepartmentName": "Department",
  "MRAcquisitionType": "2D",
  "MagneticFieldStrength": 3,
  "Manufacturer": "Siemens",
  "ManufacturersModelName": "Prisma_fit",
  "MatrixCoilMode": "SENSE",
  "Modality": "MR",
  "MultibandAccelerationFactor": 4,
  "PartialFourier": 1,
  "PatientPosition": "HFS",
  "PercentPhaseFOV": 100,
  "PercentSampling": 100,
  "PhaseEncodingDirection": "j",
  "PhaseEncodingSteps": 104,
  "PhaseResolution": 1,
  "PixelBandwidth": 2290,
  "ProcedureStepDescription": "games^mariostars",
  "ProtocolName": "func_task-mariostars_run-02",
  "PulseSequenceDetails": "%CustomerSeq%\\cmrr_mbep2d_bold",
  "ReceiveCoilActiveElements": "HC1-7;NC1,2",
  "ReceiveCoilName": "HeadNeck_64",
  "ReconMatrixPE": 104,
  "RepetitionTime": 1.49,
  "SAR": 0.0617948,
  "ScanOptions": "FS",
  "ScanningSequence": "EP",
  "SequenceName": "epfid2d1_104",
  "SequenceVariant": "SK\\SS",
  "SeriesDescription": "func_task-mariostars_run-02",
  "SeriesNumber": 14,
  "ShimSetting": [619, -7187, -8879, 227, 35, -197, -42, 29],
  "SliceThickness": 2,
  "SliceTiming": [0, 0.785, 0.1, 0.8825, 0.1975, 0.98, 0.295, 1.08, 0.3925, 1.1775, 0.49, 1.275, 0.59, 1.3725, 0.6875, 0, 0.785, 0.1, 0.8825, 0.1975, 0.98, 0.295, 1.08, 0.3925, 1.1775, 0.49, 1.275, 0.59, 1.3725, 0.6875, 0, 0.785, 0.1, 0.8825, 0.1975, 0.98, 0.295, 1.08, 0.3925, 1.1775, 0.49, 1.275, 0.59, 1.3725, 0.6875, 0, 0.785, 0.1, 0.8825, 0.1975, 0.98, 0.295, 1.08, 0.3925, 1.1775, 0.49, 1.275, 0.59, 1.3725, 0.6875],
  "SoftwareVersions": "syngo MR E11",
  "SpacingBetweenSlices": 2,
  "StationName": "MRC35049",
  "TaskName": "mariostars",
  "TotalReadoutTime": 0.0576811,
  "TxRefAmp": 289.525,
  "WipMemBlock": "aa20eaf9-a3b3-4e23-aa76-9725dfaa16d4||Sequence: R017 ve11c/master r/75a17815+; Jun 28 2022 16:32:11 by eja",
  "dcmmeta_affine": [
    [-1.9989817142486572, 0.019887186586856842, 0.06063566729426384, 105.03136444091797],
    [-0.015282617881894112, 1.6959002017974854, -1.0600420236587524, -47.679908752441406],
    [0.06195664405822754, 1.0599656105041504, 1.6948847770690918, -89.60099792480469],
    [0.0, 0.0, 0.0, 1.0]
],
  "dcmmeta_reorient_transform": [
    [0.0, -1.0, 0.0, 103.0],
    [1.0, 0.0, 0.0, 0.0],
    [0.0, 0.0, 1.0, 0.0],
    [0.0, 0.0, 0.0, 1.0]
],
  "dcmmeta_shape": [104, 104, 60, 486],
  "dcmmeta_slice_dim": 2,
  "dcmmeta_version": 0.6,
  "global": {
    "const": {
      "AcquisitionMatrix": [104, 0, 0, 104],
      "AngioFlag": "N",
      "BitsAllocated": 16,
      "BitsStored": 16,
      "BodyPartExamined": "BRAIN",
      "Columns": 832,
      "EchoNumbers": 1,
      "EchoTime": 37.0,
      "EchoTrainLength": 104,
      "FlipAngle": 52.0,
      "HighBit": 15,
      "ImageOrientationPatient": [0.99949084735119, 0.00764130892921, 0.03097832240549, 0.00994359335355, 0.8479500716698, -0.5299828307657],
      "ImagePositionPatient": [-841.94801857587, -749.86833267449, 382.85074418077],
      "ImageType": [
        "ORIGINAL",
        "PRIMARY",
        "M",
        "MB",
        "ND",
        "MOSAIC"
],
      "ImagedNucleus": "1H",
      "ImagingFrequency": 123.258792,
      "InPlanePhaseEncodingDirection": "COL",
      "MRAcquisitionType": "2D",
      "MagneticFieldStrength": 3.0,
      "Manufacturer": "SIEMENS",
      "ManufacturerModelName": "Prisma_fit",
      "Modality": "MR",
      "NumberOfAverages": 1.0,
      "NumberOfPhaseEncodingSteps": 104,
      "PercentPhaseFieldOfView": 100.0,
      "PercentSampling": 100.0,
      "PerformedProcedureStepStartTime": "111226.606000",
      "PhotometricInterpretation": "MONOCHROME2",
      "PixelBandwidth": 2290.0,
      "PixelRepresentation": 0,
      "PixelSpacing": [2.0, 2.0],
      "ProtocolName": "func_task-mariostars_run-02",
      "RepetitionTime": 1490.0,
      "Rows": 832,
      "SAR": 0.06179477798944,
      "SamplesPerPixel": 1,
      "ScanOptions": "FS",
      "ScanningSequence": "EP",
      "SequenceName": "epfid2d1_104",
      "SequenceVariant": [
        "SK",
        "SS"
],
      "SeriesDescription": "func_task-mariostars_run-02",
      "SeriesNumber": 14,
      "SeriesTime": "112907.885000",
      "SliceLocation": -47.476006540824,
      "SliceThickness": 2.0,
      "SmallestImagePixelValue": 0,
      "SoftwareVersions": "syngo MR E11",
      "SpacingBetweenSlices": 2.0000000541081,
      "SpecificCharacterSet": "ISO_IR 100",
      "StudyID": "1",
      "StudyTime": "111226.515000",
      "TransmitCoilName": "Body",
      "VariableFlipAngleFlag": "N",
      "WindowCenterWidthExplanation": "Algo1",
      "dBdt": 0.0},
    "slices": {}
  },
  "time": {
    "samples": {
      "AcquisitionNumber": [1, 2, 3, 4, 5, 6, 7, 8, 9, 10, 11, 12, 13, 14, 15, 16, 17, 18, 19, 20, 21, 22, 23, 24, 25, 26, 27, 28, 29, 30, 31, 32, 33, 34, 35, 36, 37, 38, 39, 40, 41, 42, 43, 44, 45, 46, 47, 48, 49, 50, 51, 52, 53, 54, 55, 56, 57, 58, 59, 60, 61, 62, 63, 64, 65, 66, 67, 68, 69, 70, 71, 72, 73, 74, 75, 76, 77, 78, 79, 80, 81, 82, 83, 84, 85, 86, 87, 88, 89, 90, 91, 92, 93, 94, 95, 96, 97, 98, 99, 100, 101, 102, 103, 104, 105, 106, 107, 108, 109, 110, 111, 112, 113, 114, 115, 116, 117, 118, 119, 120, 121, 122, 123, 124, 125, 126, 127, 128, 129, 130, 131, 132, 133, 134, 135, 136, 137, 138, 139, 140, 141, 142, 143, 144, 145, 146, 147, 148, 149, 150, 151, 152, 153, 154, 155, 156, 157, 158, 159, 160, 161, 162, 163, 164, 165, 166, 167, 168, 169, 170, 171, 172, 173, 174, 175, 176, 177, 178, 179, 180, 181, 182, 183, 184, 185, 186, 187, 188, 189, 190, 191, 192, 193, 194, 195, 196, 197, 198, 199, 200, 201, 202, 203, 204, 205, 206, 207, 208, 209, 210, 211, 212, 213, 214, 215, 216, 217, 218, 219, 220, 221, 222, 223, 224, 225, 226, 227, 228, 229, 230, 231, 232, 233, 234, 235, 236, 237, 238, 239, 240, 241, 242, 243, 244, 245, 246, 247, 248, 249, 250, 251, 252, 253, 254, 255, 256, 257, 258, 259, 260, 261, 262, 263, 264, 265, 266, 267, 268, 269, 270, 271, 272, 273, 274, 275, 276, 277, 278, 279, 280, 281, 282, 283, 284, 285, 286, 287, 288, 289, 290, 291, 292, 293, 294, 295, 296, 297, 298, 299, 300, 301, 302, 303, 304, 305, 306, 307, 308, 309, 310, 311, 312, 313, 314, 315, 316, 317, 318, 319, 320, 321, 322, 323, 324, 325, 326, 327, 328, 329, 330, 331, 332, 333, 334, 335, 336, 337, 338, 339, 340, 341, 342, 343, 344, 345, 346, 347, 348, 349, 350, 351, 352, 353, 354, 355, 356, 357, 358, 359, 360, 361, 362, 363, 364, 365, 366, 367, 368, 369, 370, 371, 372, 373, 374, 375, 376, 377, 378, 379, 380, 381, 382, 383, 384, 385, 386, 387, 388, 389, 390, 391, 392, 393, 394, 395, 396, 397, 398, 399, 400, 401, 402, 403, 404, 405, 406, 407, 408, 409, 410, 411, 412, 413, 414, 415, 416, 417, 418, 419, 420, 421, 422, 423, 424, 425, 426, 427, 428, 429, 430, 431, 432, 433, 434, 435, 436, 437, 438, 439, 440, 441, 442, 443, 444, 445, 446, 447, 448, 449, 450, 451, 452, 453, 454, 455, 456, 457, 458, 459, 460, 461, 462, 463, 464, 465, 466, 467, 468, 469, 470, 471, 472, 473, 474, 475, 476, 477, 478, 479, 480, 481, 482, 483, 484, 485, 486],
      "AcquisitionTime": ["112753.222500", "112754.712500", "112756.202500", "112757.692500", "112759.182500", "112800.672500", "112802.162500", "112803.652500", "112805.142500", "112806.632500", "112808.122500", "112809.612500", "112811.102500", "112812.592500", "112814.082500", "112815.572500", "112817.062500", "112818.552500", "112820.042500", "112821.532500", "112823.022500", "112824.512500", "112826.002500", "112827.492500", "112828.982500", "112830.472500", "112831.962500", "112833.452500", "112834.942500", "112836.432500", "112837.922500", "112839.412500", "112840.902500", "112842.392500", "112843.882500", "112845.372500", "112846.862500", "112848.352500", "112849.842500", "112851.332500", "112852.822500", "112854.312500", "112855.802500", "112857.292500", "112858.782500", "112900.272500", "112901.762500", "112903.252500", "112904.742500", "112906.232500", "112907.722500", "112909.212500", "112910.702500", "112912.192500", "112913.682500", "112915.172500", "112916.662500", "112918.152500", "112919.642500", "112921.132500", "112922.622500", "112924.112500", "112925.602500", "112927.092500", "112928.582500", "112930.072500", "112931.562500", "112933.052500", "112934.542500", "112936.032500", "112937.522500", "112939.012500", "112940.502500", "112941.992500", "112943.482500", "112944.972500", "112946.462500", "112947.952500", "112949.442500", "112950.932500", "112952.422500", "112953.912500", "112955.402500", "112956.892500", "112958.382500", "112959.872500", "113001.362500", "113002.852500", "113004.342500", "113005.832500", "113007.322500", "113008.812500", "113010.302500", "113011.792500", "113013.282500", "113014.772500", "113016.262500", "113017.752500", "113019.242500", "113020.732500", "113022.222500", "113023.712500", "113025.202500", "113026.692500", "113028.182500", "113029.672500", "113031.162500", "113032.652500", "113034.142500", "113035.632500", "113037.122500", "113038.612500", "113040.102500", "113041.592500", "113043.082500", "113044.572500", "113046.062500", "113047.552500", "113049.042500", "113050.532500", "113052.022500", "113053.512500", "113055.002500", "113056.492500", "113057.982500", "113059.472500", "113100.962500", "113102.452500", "113103.942500", "113105.432500", "113106.922500", "113108.412500", "113109.902500", "113111.392500", "113112.882500", "113114.372500", "113115.862500", "113117.352500", "113118.842500", "113120.332500", "113121.822500", "113123.312500", "113124.802500", "113126.292500", "113127.782500", "113129.272500", "113130.762500", "113132.252500", "113133.742500", "113135.232500", "113136.722500", "113138.212500", "113139.702500", "113141.192500", "113142.682500", "113144.172500", "113145.662500", "113147.152500", "113148.642500", "113150.132500", "113151.622500", "113153.112500", "113154.602500", "113156.092500", "113157.582500", "113159.072500", "113200.562500", "113202.052500", "113203.542500", "113205.032500", "113206.522500", "113208.012500", "113209.502500", "113210.992500", "113212.482500", "113213.972500", "113215.462500", "113216.952500", "113218.442500", "113219.932500", "113221.422500", "113222.912500", "113224.402500", "113225.892500", "113227.382500", "113228.872500", "113230.362500", "113231.852500", "113233.342500", "113234.832500", "113236.322500", "113237.812500", "113239.302500", "113240.792500", "113242.282500", "113243.772500", "113245.262500", "113246.752500", "113248.242500", "113249.732500", "113251.222500", "113252.712500", "113254.202500", "113255.692500", "113257.182500", "113258.672500", "113300.162500", "113301.652500", "113303.142500", "113304.632500", "113306.122500", "113307.612500", "113309.102500", "113310.592500", "113312.082500", "113313.572500", "113315.062500", "113316.552500", "113318.042500", "113319.532500", "113321.022500", "113322.512500", "113324.002500", "113325.492500", "113326.982500", "113328.472500", "113329.962500", "113331.452500", "113332.942500", "113334.432500", "113335.922500", "113337.412500", "113338.902500", "113340.392500", "113341.882500", "113343.372500", "113344.862500", "113346.352500", "113347.842500", "113349.332500", "113350.822500", "113352.312500", "113353.802500", "113355.292500", "113356.782500", "113358.272500", "113359.762500", "113401.252500", "113402.742500", "113404.232500", "113405.722500", "113407.212500", "113408.702500", "113410.192500", "113411.682500", "113413.172500", "113414.662500", "113416.152500", "113417.642500", "113419.132500", "113420.622500", "113422.112500", "113423.602500", "113425.092500", "113426.582500", "113428.072500", "113429.562500", "113431.052500", "113432.542500", "113434.032500", "113435.522500", "113437.012500", "113438.502500", "113439.992500", "113441.482500", "113442.972500", "113444.462500", "113445.952500", "113447.442500", "113448.932500", "113450.422500", "113451.912500", "113453.402500", "113454.892500", "113456.382500", "113457.872500", "113459.362500", "113500.852500", "113502.342500", "113503.832500", "113505.322500", "113506.812500", "113508.302500", "113509.792500", "113511.282500", "113512.772500", "113514.262500", "113515.752500", "113517.242500", "113518.732500", "113520.222500", "113521.712500", "113523.202500", "113524.692500", "113526.182500", "113527.672500", "113529.162500", "113530.652500", "113532.142500", "113533.632500", "113535.122500", "113536.612500", "113538.102500", "113539.592500", "113541.082500", "113542.572500", "113544.062500", "113545.552500", "113547.042500", "113548.532500", "113550.022500", "113551.512500", "113553.002500", "113554.492500", "113555.982500", "113557.472500", "113558.962500", "113600.452500", "113601.942500", "113603.432500", "113604.922500", "113606.412500", "113607.902500", "113609.392500", "113610.882500", "113612.372500", "113613.862500", "113615.352500", "113616.842500", "113618.332500", "113619.822500", "113621.312500", "113622.802500", "113624.292500", "113625.782500", "113627.272500", "113628.762500", "113630.252500", "113631.742500", "113633.232500", "113634.722500", "113636.212500", "113637.702500", "113639.192500", "113640.682500", "113642.172500", "113643.662500", "113645.152500", "113646.642500", "113648.132500", "113649.622500", "113651.112500", "113652.602500", "113654.092500", "113655.582500", "113657.072500", "113658.562500", "113700.052500", "113701.542500", "113703.032500", "113704.522500", "113706.012500", "113707.502500", "113708.992500", "113710.482500", "113711.972500", "113713.462500", "113714.952500", "113716.442500", "113717.932500", "113719.422500", "113720.912500", "113722.402500", "113723.892500", "113725.382500", "113726.872500", "113728.362500", "113729.852500", "113731.342500", "113732.832500", "113734.322500", "113735.812500", "113737.302500", "113738.792500", "113740.282500", "113741.772500", "113743.262500", "113744.752500", "113746.242500", "113747.732500", "113749.222500", "113750.712500", "113752.202500", "113753.692500", "113755.182500", "113756.672500", "113758.162500", "113759.652500", "113801.142500", "113802.632500", "113804.122500", "113805.612500", "113807.102500", "113808.592500", "113810.082500", "113811.572500", "113813.062500", "113814.552500", "113816.042500", "113817.532500", "113819.022500", "113820.512500", "113822.002500", "113823.492500", "113824.982500", "113826.472500", "113827.962500", "113829.452500", "113830.942500", "113832.432500", "113833.922500", "113835.412500", "113836.902500", "113838.392500", "113839.882500", "113841.372500", "113842.862500", "113844.352500", "113845.842500", "113847.332500", "113848.822500", "113850.312500", "113851.802500", "113853.292500", "113854.782500", "113856.272500", "113857.762500", "113859.252500", "113900.742500", "113902.232500", "113903.722500", "113905.212500", "113906.702500", "113908.192500", "113909.682500", "113911.172500", "113912.662500", "113914.152500", "113915.642500", "113917.132500", "113918.622500", "113920.112500", "113921.602500", "113923.092500", "113924.582500", "113926.072500", "113927.562500", "113929.052500", "113930.542500", "113932.032500", "113933.522500", "113935.012500", "113936.502500", "113937.992500", "113939.482500", "113940.972500", "113942.462500", "113943.952500", "113945.442500", "113946.932500", "113948.422500", "113949.912500", "113951.402500", "113952.892500", "113954.382500", "113955.872500"],
      "ContentTime": ["112907.888000", "112907.892000", "112907.895000", "112907.899000", "112907.902000", "112907.905000", "112907.909000", "112907.912000", "112907.916000", "112907.919000", "112907.922000", "112907.925000", "112907.929000", "112907.932000", "112907.935000", "112907.939000", "112907.942000", "112907.945000", "112907.949000", "112907.952000", "112907.955000", "112907.959000", "112907.962000", "112907.965000", "112907.968000", "112907.972000", "112907.975000", "112927.840000", "112927.844000", "112927.847000", "112927.850000", "112927.854000", "112927.857000", "112927.860000", "112927.863000", "112927.867000", "112927.870000", "112927.873000", "112927.876000", "112927.880000", "112927.883000", "112927.886000", "112927.889000", "112927.892000", "112927.896000", "112927.899000", "112927.902000", "112947.840000", "112947.844000", "112947.847000", "112947.858000", "112947.861000", "112947.865000", "112947.868000", "112947.871000", "112947.875000", "112947.878000", "112947.881000", "112947.892000", "112947.895000", "112947.899000", "112947.902000", "112947.905000", "112947.908000", "112947.912000", "112947.915000", "112947.918000", "113007.841000", "113007.845000", "113007.848000", "113007.851000", "113007.855000", "113007.858000", "113007.861000", "113007.864000", "113007.867000", "113007.871000", "113007.874000", "113007.877000", "113007.881000", "113007.884000", "113007.887000", "113007.891000", "113007.894000", "113007.897000", "113007.900000", "113007.904000", "113047.841000", "113047.845000", "113047.848000", "113047.852000", "113047.855000", "113047.858000", "113047.862000", "113047.865000", "113047.868000", "113047.871000", "113047.875000", "113047.878000", "113047.881000", "113047.884000", "113047.895000", "113047.898000", "113047.901000", "113047.904000", "113047.908000", "113047.911000", "113047.914000", "113047.918000", "113047.921000", "113047.924000", "113047.927000", "113047.931000", "113047.934000", "113047.937000", "113047.940000", "113047.944000", "113127.840000", "113127.844000", "113127.847000", "113127.850000", "113127.854000", "113127.857000", "113127.871000", "113127.874000", "113127.877000", "113127.881000", "113127.884000", "113127.887000", "113127.890000", "113127.894000", "113127.897000", "113127.901000", "113127.904000", "113127.908000", "113127.912000", "113127.915000", "113127.919000", "113127.923000", "113127.927000", "113127.930000", "113127.934000", "113127.937000", "113207.840000", "113207.844000", "113207.847000", "113207.850000", "113207.854000", "113207.857000", "113207.860000", "113207.864000", "113207.867000", "113207.870000", "113207.873000", "113207.877000", "113207.880000", "113207.883000", "113207.886000", "113207.890000", "113207.899000", "113207.902000", "113207.905000", "113207.909000", "113207.912000", "113207.915000", "113207.919000", "113207.922000", "113207.925000", "113207.929000", "113207.932000", "113247.841000", "113247.845000", "113247.848000", "113247.851000", "113247.855000", "113247.858000", "113247.861000", "113247.865000", "113247.868000", "113247.871000", "113247.875000", "113247.878000", "113247.881000", "113247.885000", "113247.888000", "113247.891000", "113247.894000", "113247.898000", "113247.901000", "113247.904000", "113247.908000", "113247.911000", "113247.914000", "113247.917000", "113247.921000", "113247.924000", "113247.927000", "113327.840000", "113327.844000", "113327.847000", "113327.850000", "113327.854000", "113327.857000", "113327.860000", "113327.864000", "113327.867000", "113327.870000", "113327.874000", "113327.877000", "113327.880000", "113327.883000", "113327.887000", "113327.890000", "113327.893000", "113327.896000", "113327.900000", "113327.903000", "113327.906000", "113327.910000", "113327.913000", "113327.916000", "113327.919000", "113327.923000", "113327.940000", "113407.840000", "113407.844000", "113407.847000", "113407.850000", "113407.854000", "113407.857000", "113407.860000", "113407.864000", "113407.867000", "113407.870000", "113407.873000", "113407.877000", "113407.880000", "113407.883000", "113407.887000", "113407.890000", "113407.893000", "113407.896000", "113407.900000", "113407.903000", "113407.906000", "113407.910000", "113407.913000", "113407.916000", "113407.920000", "113407.923000", "113407.926000", "113447.841000", "113447.845000", "113447.848000", "113447.852000", "113447.855000", "113447.858000", "113447.861000", "113447.865000", "113447.868000", "113447.871000", "113447.875000", "113447.879000", "113447.882000", "113447.885000", "113447.889000", "113447.892000", "113447.895000", "113447.899000", "113447.902000", "113447.905000", "113447.908000", "113447.912000", "113447.915000", "113447.918000", "113447.922000", "113447.925000", "113447.928000", "113527.841000", "113527.845000", "113527.848000", "113527.852000", "113527.855000", "113527.858000", "113527.862000", "113527.865000", "113527.868000", "113527.872000", "113527.875000", "113527.878000", "113527.881000", "113527.885000", "113527.888000", "113527.891000", "113527.894000", "113527.898000", "113527.901000", "113527.904000", "113527.908000", "113527.911000", "113527.914000", "113527.918000", "113527.921000", "113527.924000", "113527.927000", "113607.840000", "113607.844000", "113607.847000", "113607.850000", "113607.854000", "113607.857000", "113607.860000", "113607.875000", "113607.879000", "113607.882000", "113607.885000", "113607.890000", "113607.894000", "113607.897000", "113607.900000", "113607.904000", "113607.907000", "113607.910000", "113607.923000", "113607.926000", "113607.930000", "113607.933000", "113607.936000", "113607.940000", "113607.943000", "113607.946000", "113647.840000", "113647.844000", "113647.847000", "113647.850000", "113647.854000", "113647.857000", "113647.860000", "113647.864000", "113647.867000", "113647.870000", "113647.873000", "113647.877000", "113647.880000", "113647.883000", "113647.887000", "113647.890000", "113647.893000", "113647.896000", "113647.900000", "113647.903000", "113647.906000", "113647.909000", "113647.913000", "113647.916000", "113647.919000", "113647.923000", "113647.926000", "113727.841000", "113727.845000", "113727.848000", "113727.852000", "113727.855000", "113727.858000", "113727.862000", "113727.865000", "113727.868000", "113727.871000", "113727.875000", "113727.879000", "113727.883000", "113727.886000", "113727.889000", "113727.893000", "113727.896000", "113727.899000", "113727.903000", "113727.906000", "113727.909000", "113727.913000", "113727.916000", "113727.919000", "113727.923000", "113727.926000", "113727.929000", "113807.840000", "113807.844000", "113807.847000", "113807.851000", "113807.854000", "113807.857000", "113807.860000", "113807.864000", "113807.867000", "113807.870000", "113807.873000", "113807.877000", "113807.895000", "113807.899000", "113807.902000", "113807.905000", "113807.908000", "113807.912000", "113807.915000", "113807.918000", "113807.922000", "113807.925000", "113807.928000", "113807.931000", "113807.935000", "113807.938000", "113807.941000", "113847.840000", "113847.844000", "113847.847000", "113847.850000", "113847.854000", "113847.857000", "113847.860000", "113847.864000", "113847.867000", "113847.870000", "113847.873000", "113847.877000", "113847.880000", "113847.883000", "113847.887000", "113847.890000", "113847.893000", "113847.897000", "113847.900000", "113847.903000", "113847.906000", "113847.910000", "113847.913000", "113847.916000", "113847.920000", "113847.923000", "113847.926000", "113927.841000", "113927.845000", "113927.848000", "113927.852000", "113927.855000", "113927.858000", "113927.862000", "113927.865000", "113927.868000", "113927.871000", "113927.875000", "113927.878000", "113927.881000", "113927.885000", "113927.888000", "113927.891000", "113927.894000", "113927.898000", "113927.901000", "113927.904000", "113927.908000", "113927.911000", "113927.914000", "113927.918000", "113927.921000", "113927.924000", "113927.928000", "113958.508000", "113958.512000", "113958.516000", "113958.519000", "113958.523000", "113958.526000", "113958.529000", "113958.533000", "113958.536000", "113958.539000", "113958.543000", "113958.546000", "113958.549000", "113958.553000", "113958.556000", "113958.559000", "113958.563000", "113958.566000", "113958.569000", "113958.573000"],
