{
  "AcquisitionMatrixPE": 104,
  "AcquisitionNumber": 1,
  "AcquisitionTime": "11:27:53.222500",
  "BandwidthPerPixelPhaseEncode": 17.17,
  "BaseResolution": 104,
  "BodyPartExamined": "BRAIN",
  "CoilCombinationMethod": "Sum of Squares",
  "ConsistencyInfo": "N4_VE11C_LATEST_20160120",
  "ConversionSoftware": "dcm2niix",
  "ConversionSoftwareVersion": "v1.0.20220505",
  "DerivedVendorReportedEchoSpacing": 0.000560011,
  "DeviceSerialNumber": "167006",
  "DwellTime": 2.1e-06,
  "EchoTime": 0.037,
  "EchoTime1": 0.037,
  "EchoTime2": 0.001,
  "EchoTrainLength": 104,
  "EffectiveEchoSpacing": 0.000560011,
  "FlipAngle": 52,
  "HeudiconvVersion": "0.5.3.post811+g6206e14",
  "ImageComments": "Unaliased MB4/PE3/LB",
  "ImageOrientationPatientDICOM": [0.999491, 0.00764131, 0.0309783, 0.00994359, 0.84795, -0.529983],
  "ImageOrientationText": "Tra>Cor(-32.0)>Sag(1.7)",
  "ImageType": [
    "ORIGINAL",
    "PRIMARY",
    "P",
    "MB",
    "ND",
    "MOSAIC",
    "PHASE"
],
  "ImagingFrequency": 123.259,
  "InPlanePhaseEncodingDirectionDICOM": "COL",
  "InstitutionAddress": "Chemin Queen-Mary 4565,Montreal,District,CA,H3W 1W5",
  "InstitutionName": "IUGM",
  "InstitutionalDepartmentName": "Department",
  "MRAcquisitionType": "2D",
  "MagneticFieldStrength": 3,
  "Manufacturer": "Siemens",
  "ManufacturersModelName": "Prisma_fit",
  "MatrixCoilMode": "SENSE",
  "Modality": "MR",
  "MultibandAccelerationFactor": 4,
  "PartialFourier": 1,
  "PatientPosition": "HFS",
  "PercentPhaseFOV": 100,
  "PercentSampling": 100,
  "PhaseEncodingDirection": "j",
  "PhaseEncodingSteps": 104,
  "PhaseResolution": 1,
  "PixelBandwidth": 2290,
  "ProcedureStepDescription": "games^mariostars",
  "ProtocolName": "func_task-mariostars_run-02",
  "PulseSequenceDetails": "%CustomerSeq%\\cmrr_mbep2d_bold",
  "ReceiveCoilActiveElements": "HC1-7;NC1,2",
  "ReceiveCoilName": "HeadNeck_64",
  "ReconMatrixPE": 104,
  "RepetitionTime": 1.49,
  "SAR": 0.0617948,
  "ScanOptions": "FS",
  "ScanningSequence": "EP",
  "SequenceName": "epfid2d1_104",
  "SequenceVariant": "SK\\SS",
  "SeriesDescription": "func_task-mariostars_run-02",
  "SeriesNumber": 15,
  "ShimSetting": [619, -7187, -8879, 227, 35, -197, -42, 29],
  "SliceThickness": 2,
  "SliceTiming": [0, 0.785, 0.1, 0.8825, 0.1975, 0.98, 0.295, 1.08, 0.3925, 1.1775, 0.49, 1.275, 0.59, 1.3725, 0.6875, 0, 0.785, 0.1, 0.8825, 0.1975, 0.98, 0.295, 1.08, 0.3925, 1.1775, 0.49, 1.275, 0.59, 1.3725, 0.6875, 0, 0.785, 0.1, 0.8825, 0.1975, 0.98, 0.295, 1.08, 0.3925, 1.1775, 0.49, 1.275, 0.59, 1.3725, 0.6875, 0, 0.785, 0.1, 0.8825, 0.1975, 0.98, 0.295, 1.08, 0.3925, 1.1775, 0.49, 1.275, 0.59, 1.3725, 0.6875],
  "SoftwareVersions": "syngo MR E11",
  "SpacingBetweenSlices": 2,
  "StationName": "MRC35049",
  "TaskName": "mariostars",
  "TotalReadoutTime": 0.0576811,
  "TxRefAmp": 289.525,
  "WipMemBlock": "aa20eaf9-a3b3-4e23-aa76-9725dfaa16d4||Sequence: R017 ve11c/master r/75a17815+; Jun 28 2022 16:32:11 by eja",
  "dcmmeta_affine": [
    [-1.9989817142486572, 0.019887186586856842, 0.06063566729426384, 105.03136444091797],
    [-0.015282617881894112, 1.6959002017974854, -1.0600420236587524, -47.679908752441406],
    [0.06195664405822754, 1.0599656105041504, 1.6948847770690918, -89.60099792480469],
    [0.0, 0.0, 0.0, 1.0]
],
  "dcmmeta_reorient_transform": [
    [0.0, -1.0, 0.0, 103.0],
    [1.0, 0.0, 0.0, 0.0],
    [0.0, 0.0, 1.0, 0.0],
    [0.0, 0.0, 0.0, 1.0]
],
  "dcmmeta_shape": [104, 104, 60, 486],
  "dcmmeta_slice_dim": 2,
  "dcmmeta_version": 0.6,
  "global": {
    "const": {
      "AcquisitionMatrix": [104, 0, 0, 104],
      "AngioFlag": "N",
      "BitsAllocated": 16,
      "BitsStored": 16,
      "BodyPartExamined": "BRAIN",
      "Columns": 832,
      "EchoNumbers": 1,
      "EchoTime": 37.0,
      "EchoTrainLength": 104,
      "FlipAngle": 52.0,
      "HighBit": 15,
      "ImageOrientationPatient": [0.99949084735119, 0.00764130892921, 0.03097832240549, 0.00994359335355, 0.8479500716698, -0.5299828307657],
      "ImagePositionPatient": [-841.94801857587, -749.86833267449, 382.85074418077],
      "ImageType": [
        "ORIGINAL",
        "PRIMARY",
        "P",
        "MB",
        "ND",
        "MOSAIC"
],
      "ImagedNucleus": "1H",
      "ImagingFrequency": 123.258792,
      "InPlanePhaseEncodingDirection": "COL",
      "LargestImagePixelValue": 4095,
      "MRAcquisitionType": "2D",
      "MagneticFieldStrength": 3.0,
      "Manufacturer": "SIEMENS",
      "ManufacturerModelName": "Prisma_fit",
      "Modality": "MR",
      "NumberOfAverages": 1.0,
      "NumberOfPhaseEncodingSteps": 104,
      "PercentPhaseFieldOfView": 100.0,
      "PercentSampling": 100.0,
      "PerformedProcedureStepStartTime": "111226.606000",
      "PhotometricInterpretation": "MONOCHROME2",
      "PixelBandwidth": 2290.0,
      "PixelRepresentation": 0,
      "PixelSpacing": [2.0, 2.0],
      "ProtocolName": "func_task-mariostars_run-02",
      "RepetitionTime": 1490.0,
      "RescaleIntercept": -4096.0,
      "RescaleSlope": 2.0,
      "RescaleType": "US",
      "Rows": 832,
      "SAR": 0.06179477798944,
      "SamplesPerPixel": 1,
      "ScanOptions": "FS",
      "ScanningSequence": "EP",
      "SequenceName": "epfid2d1_104",
      "SequenceVariant": [
        "SK",
        "SS"
],
      "SeriesDescription": "func_task-mariostars_run-02",
      "SeriesNumber": 15,
      "SeriesTime": "112908.020000",
      "SliceLocation": -47.476006540824,
      "SliceThickness": 2.0,
      "SmallestImagePixelValue": 0,
      "SoftwareVersions": "syngo MR E11",
      "SpacingBetweenSlices": 2.0000000541081,
      "SpecificCharacterSet": "ISO_IR 100",
      "StudyID": "1",
      "StudyTime": "111226.515000",
      "TransmitCoilName": "Body",
      "VariableFlipAngleFlag": "N",
      "WindowCenterWidthExplanation": "Algo1",
      "dBdt": 0.0},
    "slices": {}
  },
  "time": {
    "samples": {
      "AcquisitionNumber": [1, 2, 3, 4, 5, 6, 7, 8, 9, 10, 11, 12, 13, 14, 15, 16, 17, 18, 19, 20, 21, 22, 23, 24, 25, 26, 27, 28, 29, 30, 31, 32, 33, 34, 35, 36, 37, 38, 39, 40, 41, 42, 43, 44, 45, 46, 47, 48, 49, 50, 51, 52, 53, 54, 55, 56, 57, 58, 59, 60, 61, 62, 63, 64, 65, 66, 67, 68, 69, 70, 71, 72, 73, 74, 75, 76, 77, 78, 79, 80, 81, 82, 83, 84, 85, 86, 87, 88, 89, 90, 91, 92, 93, 94, 95, 96, 97, 98, 99, 100, 101, 102, 103, 104, 105, 106, 107, 108, 109, 110, 111, 112, 113, 114, 115, 116, 117, 118, 119, 120, 121, 122, 123, 124, 125, 126, 127, 128, 129, 130, 131, 132, 133, 134, 135, 136, 137, 138, 139, 140, 141, 142, 143, 144, 145, 146, 147, 148, 149, 150, 151, 152, 153, 154, 155, 156, 157, 158, 159, 160, 161, 162, 163, 164, 165, 166, 167, 168, 169, 170, 171, 172, 173, 174, 175, 176, 177, 178, 179, 180, 181, 182, 183, 184, 185, 186, 187, 188, 189, 190, 191, 192, 193, 194, 195, 196, 197, 198, 199, 200, 201, 202, 203, 204, 205, 206, 207, 208, 209, 210, 211, 212, 213, 214, 215, 216, 217, 218, 219, 220, 221, 222, 223, 224, 225, 226, 227, 228, 229, 230, 231, 232, 233, 234, 235, 236, 237, 238, 239, 240, 241, 242, 243, 244, 245, 246, 247, 248, 249, 250, 251, 252, 253, 254, 255, 256, 257, 258, 259, 260, 261, 262, 263, 264, 265, 266, 267, 268, 269, 270, 271, 272, 273, 274, 275, 276, 277, 278, 279, 280, 281, 282, 283, 284, 285, 286, 287, 288, 289, 290, 291, 292, 293, 294, 295, 296, 297, 298, 299, 300, 301, 302, 303, 304, 305, 306, 307, 308, 309, 310, 311, 312, 313, 314, 315, 316, 317, 318, 319, 320, 321, 322, 323, 324, 325, 326, 327, 328, 329, 330, 331, 332, 333, 334, 335, 336, 337, 338, 339, 340, 341, 342, 343, 344, 345, 346, 347, 348, 349, 350, 351, 352, 353, 354, 355, 356, 357, 358, 359, 360, 361, 362, 363, 364, 365, 366, 367, 368, 369, 370, 371, 372, 373, 374, 375, 376, 377, 378, 379, 380, 381, 382, 383, 384, 385, 386, 387, 388, 389, 390, 391, 392, 393, 394, 395, 396, 397, 398, 399, 400, 401, 402, 403, 404, 405, 406, 407, 408, 409, 410, 411, 412, 413, 414, 415, 416, 417, 418, 419, 420, 421, 422, 423, 424, 425, 426, 427, 428, 429, 430, 431, 432, 433, 434, 435, 436, 437, 438, 439, 440, 441, 442, 443, 444, 445, 446, 447, 448, 449, 450, 451, 452, 453, 454, 455, 456, 457, 458, 459, 460, 461, 462, 463, 464, 465, 466, 467, 468, 469, 470, 471, 472, 473, 474, 475, 476, 477, 478, 479, 480, 481, 482, 483, 484, 485, 486],
      "AcquisitionTime": ["112753.222500", "112754.712500", "112756.202500", "112757.692500", "112759.182500", "112800.672500", "112802.162500", "112803.652500", "112805.142500", "112806.632500", "112808.122500", "112809.612500", "112811.102500", "112812.592500", "112814.082500", "112815.572500", "112817.062500", "112818.552500", "112820.042500", "112821.532500", "112823.022500", "112824.512500", "112826.002500", "112827.492500", "112828.982500", "112830.472500", "112831.962500", "112833.452500", "112834.942500", "112836.432500", "112837.922500", "112839.412500", "112840.902500", "112842.392500", "112843.882500", "112845.372500", "112846.862500", "112848.352500", "112849.842500", "112851.332500", "112852.822500", "112854.312500", "112855.802500", "112857.292500", "112858.782500", "112900.272500", "112901.762500", "112903.252500", "112904.742500", "112906.232500", "112907.722500", "112909.212500", "112910.702500", "112912.192500", "112913.682500", "112915.172500", "112916.662500", "112918.152500", "112919.642500", "112921.132500", "112922.622500", "112924.112500", "112925.602500", "112927.092500", "112928.582500", "112930.072500", "112931.562500", "112933.052500", "112934.542500", "112936.032500", "112937.522500", "112939.012500", "112940.502500", "112941.992500", "112943.482500", "112944.972500", "112946.462500", "112947.952500", "112949.442500", "112950.932500", "112952.422500", "112953.912500", "112955.402500", "112956.892500", "112958.382500", "112959.872500", "113001.362500", "113002.852500", "113004.342500", "113005.832500", "113007.322500", "113008.812500", "113010.302500", "113011.792500", "113013.282500", "113014.772500", "113016.262500", "113017.752500", "113019.242500", "113020.732500", "113022.222500", "113023.712500", "113025.202500", "113026.692500", "113028.182500", "113029.672500", "113031.162500", "113032.652500", "113034.142500", "113035.632500", "113037.122500", "113038.612500", "113040.102500", "113041.592500", "113043.082500", "113044.572500", "113046.062500", "113047.552500", "113049.042500", "113050.532500", "113052.022500", "113053.512500", "113055.002500", "113056.492500", "113057.982500", "113059.472500", "113100.962500", "113102.452500", "113103.942500", "113105.432500", "113106.922500", "113108.412500", "113109.902500", "113111.392500", "113112.882500", "113114.372500", "113115.862500", "113117.352500", "113118.842500", "113120.332500", "113121.822500", "113123.312500", "113124.802500", "113126.292500", "113127.782500", "113129.272500", "113130.762500", "113132.252500", "113133.742500", "113135.232500", "113136.722500", "113138.212500", "113139.702500", "113141.192500", "113142.682500", "113144.172500", "113145.662500", "113147.152500", "113148.642500", "113150.132500", "113151.622500", "113153.112500", "113154.602500", "113156.092500", "113157.582500", "113159.072500", "113200.562500", "113202.052500", "113203.542500", "113205.032500", "113206.522500", "113208.012500", "113209.502500", "113210.992500", "113212.482500", "113213.972500", "113215.462500", "113216.952500", "113218.442500", "113219.932500", "113221.422500", "113222.912500", "113224.402500", "113225.892500", "113227.382500", "113228.872500", "113230.362500", "113231.852500", "113233.342500", "113234.832500", "113236.322500", "113237.812500", "113239.302500", "113240.792500", "113242.282500", "113243.772500", "113245.262500", "113246.752500", "113248.242500", "113249.732500", "113251.222500", "113252.712500", "113254.202500", "113255.692500", "113257.182500", "113258.672500", "113300.162500", "113301.652500", "113303.142500", "113304.632500", "113306.122500", "113307.612500", "113309.102500", "113310.592500", "113312.082500", "113313.572500", "113315.062500", "113316.552500", "113318.042500", "113319.532500", "113321.022500", "113322.512500", "113324.002500", "113325.492500", "113326.982500", "113328.472500", "113329.962500", "113331.452500", "113332.942500", "113334.432500", "113335.922500", "113337.412500", "113338.902500", "113340.392500", "113341.882500", "113343.372500", "113344.862500", "113346.352500", "113347.842500", "113349.332500", "113350.822500", "113352.312500", "113353.802500", "113355.292500", "113356.782500", "113358.272500", "113359.762500", "113401.252500", "113402.742500", "113404.232500", "113405.722500", "113407.212500", "113408.702500", "113410.192500", "113411.682500", "113413.172500", "113414.662500", "113416.152500", "113417.642500", "113419.132500", "113420.622500", "113422.112500", "113423.602500", "113425.092500", "113426.582500", "113428.072500", "113429.562500", "113431.052500", "113432.542500", "113434.032500", "113435.522500", "113437.012500", "113438.502500", "113439.992500", "113441.482500", "113442.972500", "113444.462500", "113445.952500", "113447.442500", "113448.932500", "113450.422500", "113451.912500", "113453.402500", "113454.892500", "113456.382500", "113457.872500", "113459.362500", "113500.852500", "113502.342500", "113503.832500", "113505.322500", "113506.812500", "113508.302500", "113509.792500", "113511.282500", "113512.772500", "113514.262500", "113515.752500", "113517.242500", "113518.732500", "113520.222500", "113521.712500", "113523.202500", "113524.692500", "113526.182500", "113527.672500", "113529.162500", "113530.652500", "113532.142500", "113533.632500", "113535.122500", "113536.612500", "113538.102500", "113539.592500", "113541.082500", "113542.572500", "113544.062500", "113545.552500", "113547.042500", "113548.532500", "113550.022500", "113551.512500", "113553.002500", "113554.492500", "113555.982500", "113557.472500", "113558.962500", "113600.452500", "113601.942500", "113603.432500", "113604.922500", "113606.412500", "113607.902500", "113609.392500", "113610.882500", "113612.372500", "113613.862500", "113615.352500", "113616.842500", "113618.332500", "113619.822500", "113621.312500", "113622.802500", "113624.292500", "113625.782500", "113627.272500", "113628.762500", "113630.252500", "113631.742500", "113633.232500", "113634.722500", "113636.212500", "113637.702500", "113639.192500", "113640.682500", "113642.172500", "113643.662500", "113645.152500", "113646.642500", "113648.132500", "113649.622500", "113651.112500", "113652.602500", "113654.092500", "113655.582500", "113657.072500", "113658.562500", "113700.052500", "113701.542500", "113703.032500", "113704.522500", "113706.012500", "113707.502500", "113708.992500", "113710.482500", "113711.972500", "113713.462500", "113714.952500", "113716.442500", "113717.932500", "113719.422500", "113720.912500", "113722.402500", "113723.892500", "113725.382500", "113726.872500", "113728.362500", "113729.852500", "113731.342500", "113732.832500", "113734.322500", "113735.812500", "113737.302500", "113738.792500", "113740.282500", "113741.772500", "113743.262500", "113744.752500", "113746.242500", "113747.732500", "113749.222500", "113750.712500", "113752.202500", "113753.692500", "113755.182500", "113756.672500", "113758.162500", "113759.652500", "113801.142500", "113802.632500", "113804.122500", "113805.612500", "113807.102500", "113808.592500", "113810.082500", "113811.572500", "113813.062500", "113814.552500", "113816.042500", "113817.532500", "113819.022500", "113820.512500", "113822.002500", "113823.492500", "113824.982500", "113826.472500", "113827.962500", "113829.452500", "113830.942500", "113832.432500", "113833.922500", "113835.412500", "113836.902500", "113838.392500", "113839.882500", "113841.372500", "113842.862500", "113844.352500", "113845.842500", "113847.332500", "113848.822500", "113850.312500", "113851.802500", "113853.292500", "113854.782500", "113856.272500", "113857.762500", "113859.252500", "113900.742500", "113902.232500", "113903.722500", "113905.212500", "113906.702500", "113908.192500", "113909.682500", "113911.172500", "113912.662500", "113914.152500", "113915.642500", "113917.132500", "113918.622500", "113920.112500", "113921.602500", "113923.092500", "113924.582500", "113926.072500", "113927.562500", "113929.052500", "113930.542500", "113932.032500", "113933.522500", "113935.012500", "113936.502500", "113937.992500", "113939.482500", "113940.972500", "113942.462500", "113943.952500", "113945.442500", "113946.932500", "113948.422500", "113949.912500", "113951.402500", "113952.892500", "113954.382500", "113955.872500"],
      "ContentTime": ["112908.022000", "112908.025000", "112908.031000", "112908.033000", "112908.036000", "112908.039000", "112908.041000", "112908.044000", "112908.046000", "112908.049000", "112908.069000", "112908.071000", "112908.074000", "112908.076000", "112908.079000", "112908.082000", "112908.084000", "112908.087000", "112908.090000", "112908.093000", "112908.096000", "112908.098000", "112908.101000", "112908.104000", "112908.107000", "112908.110000", "112927.939000", "112927.942000", "112927.944000", "112927.947000", "112927.949000", "112927.951000", "112927.954000", "112927.956000", "112927.959000", "112927.961000", "112927.964000", "112927.966000", "112927.969000", "112927.971000", "112927.974000", "112927.976000", "112927.979000", "112927.981000", "112927.984000", "112927.986000", "112927.989000", "112947.961000", "112947.964000", "112947.966000", "112947.969000", "112947.971000", "112947.974000", "112947.976000", "112947.978000", "112947.981000", "112947.983000", "112947.986000", "112947.988000", "112947.991000", "112947.993000", "112947.996000", "112947.998000", "112948.002000", "112948.004000", "112948.007000", "112948.009000", "113007.949000", "113007.952000", "113007.955000", "113007.957000", "113007.960000", "113007.962000", "113007.965000", "113007.967000", "113007.969000", "113007.977000", "113007.979000", "113007.982000", "113007.984000", "113007.987000", "113007.989000", "113007.992000", "113007.994000", "113007.996000", "113008.000000", "113008.003000", "113047.995000", "113047.998000", "113048.002000", "113048.004000", "113048.007000", "113048.009000", "113048.012000", "113048.014000", "113048.016000", "113048.019000", "113048.021000", "113048.024000", "113048.026000", "113048.029000", "113048.031000", "113048.034000", "113048.036000", "113048.039000", "113048.041000", "113048.044000", "113048.046000", "113048.049000", "113048.051000", "113048.054000", "113048.056000", "113048.059000", "113048.061000", "113048.064000", "113048.066000", "113048.068000", "113127.986000", "113127.989000", "113127.991000", "113127.994000", "113127.996000", "113128.000000", "113128.002000", "113128.005000", "113128.007000", "113128.010000", "113128.012000", "113128.015000", "113128.017000", "113128.020000", "113128.022000", "113128.025000", "113128.027000", "113128.030000", "113128.032000", "113128.035000", "113128.037000", "113128.039000", "113128.042000", "113128.044000", "113128.047000", "113128.049000", "113207.982000", "113207.985000", "113207.988000", "113207.990000", "113207.993000", "113207.995000", "113207.997000", "113208.001000", "113208.004000", "113208.007000", "113208.009000", "113208.012000", "113208.014000", "113208.017000", "113208.019000", "113208.022000", "113208.024000", "113208.027000", "113208.029000", "113208.032000", "113208.034000", "113208.037000", "113208.039000", "113208.042000", "113208.044000", "113208.047000", "113208.049000", "113247.974000", "113247.976000", "113247.979000", "113247.981000", "113247.984000", "113247.986000", "113247.989000", "113247.991000", "113247.994000", "113247.996000", "113248.000000", "113248.002000", "113248.005000", "113248.007000", "113248.010000", "113248.012000", "113248.015000", "113248.017000", "113248.020000", "113248.022000", "113248.025000", "113248.027000", "113248.029000", "113248.032000", "113248.034000", "113248.037000", "113248.039000", "113327.993000", "113327.995000", "113327.998000", "113328.001000", "113328.004000", "113328.006000", "113328.009000", "113328.011000", "113328.014000", "113328.016000", "113328.019000", "113328.021000", "113328.024000", "113328.026000", "113328.029000", "113328.031000", "113328.034000", "113328.036000", "113328.039000", "113328.041000", "113328.044000", "113328.046000", "113328.049000", "113328.051000", "113328.054000", "113328.056000", "113328.059000", "113407.995000", "113407.998000", "113408.001000", "113408.004000", "113408.006000", "113408.009000", "113408.011000", "113408.013000", "113408.016000", "113408.018000", "113408.021000", "113408.023000", "113408.026000", "113408.028000", "113408.031000", "113408.033000", "113408.036000", "113408.038000", "113408.041000", "113408.043000", "113408.046000", "113408.048000", "113408.051000", "113408.053000", "113408.056000", "113408.058000", "113408.061000", "113447.981000", "113447.984000", "113447.986000", "113447.989000", "113447.991000", "113447.993000", "113447.996000", "113447.998000", "113448.002000", "113448.004000", "113448.007000", "113448.009000", "113448.012000", "113448.014000", "113448.017000", "113448.019000", "113448.022000", "113448.024000", "113448.027000", "113448.029000", "113448.032000", "113448.034000", "113448.037000", "113448.039000", "113448.042000", "113448.044000", "113448.047000", "113527.977000", "113527.980000", "113527.982000", "113527.985000", "113527.987000", "113527.990000", "113527.992000", "113527.995000", "113527.997000", "113528.001000", "113528.003000", "113528.006000", "113528.008000", "113528.010000", "113528.013000", "113528.015000", "113528.018000", "113528.020000", "113528.023000", "113528.025000", "113528.028000", "113528.030000", "113528.033000", "113528.035000", "113528.038000", "113528.040000", "113528.043000", "113607.985000", "113607.988000", "113607.990000", "113607.993000", "113607.995000", "113607.998000", "113608.001000", "113608.004000", "113608.006000", "113608.009000", "113608.011000", "113608.013000", "113608.016000", "113608.018000", "113608.021000", "113608.023000", "113608.026000", "113608.029000", "113608.031000", "113608.034000", "113608.036000", "113608.039000", "113608.041000", "113608.046000", "113608.050000", "113608.053000", "113647.982000", "113647.984000", "113647.987000", "113647.989000", "113647.992000", "113647.994000", "113647.997000", "113648.000000", "113648.003000", "113648.005000", "113648.008000", "113648.010000", "113648.013000", "113648.015000", "113648.017000", "113648.020000", "113648.022000", "113648.025000", "113648.027000", "113648.030000", "113648.032000", "113648.035000", "113648.037000", "113648.040000", "113648.042000", "113648.045000", "113648.047000", "113727.985000", "113727.988000", "113727.990000", "113727.993000", "113727.995000", "113727.998000", "113728.001000", "113728.004000", "113728.006000", "113728.009000", "113728.011000", "113728.014000", "113728.016000", "113728.019000", "113728.021000", "113728.024000", "113728.026000", "113728.029000", "113728.031000", "113728.034000", "113728.036000", "113728.038000", "113728.041000", "113728.043000", "113728.046000", "113728.048000", "113728.051000", "113807.988000", "113807.991000", "113807.994000", "113807.996000", "113808.000000", "113808.002000", "113808.005000", "113808.007000", "113808.010000", "113808.012000", "113808.015000", "113808.017000", "113808.020000", "113808.022000", "113808.024000", "113808.027000", "113808.029000", "113808.032000", "113808.034000", "113808.037000", "113808.039000", "113808.042000", "113808.044000", "113808.047000", "113808.049000", "113808.052000", "113808.054000", "113847.986000", "113847.988000", "113847.991000", "113847.993000", "113847.996000", "113847.998000", "113848.002000", "113848.004000", "113848.007000", "113848.009000", "113848.012000", "113848.014000", "113848.017000", "113848.019000", "113848.022000", "113848.024000", "113848.027000", "113848.029000", "113848.032000", "113848.034000", "113848.037000", "113848.039000", "113848.042000", "113848.044000", "113848.046000", "113848.049000", "113848.051000", "113928.366000", "113928.368000", "113928.371000", "113928.373000", "113928.376000", "113928.378000", "113928.381000", "113928.383000", "113928.386000", "113928.388000", "113928.391000", "113928.393000", "113928.396000", "113928.398000", "113928.401000", "113928.403000", "113928.406000", "113928.408000", "113928.411000", "113928.413000", "113928.416000", "113928.418000", "113928.421000", "113928.423000", "113928.426000", "113928.428000", "113928.431000", "113958.614000", "113958.617000", "113958.620000", "113958.622000", "113958.625000", "113958.627000", "113958.630000", "113958.632000", "113958.635000", "113958.637000", "113958.640000", "113958.642000", "113958.645000", "113958.647000", "113958.650000", "113958.653000", "113958.655000", "113958.658000", "113958.661000", "113958.663000"],
