{
  "AcquisitionMatrixPE": 104,
  "AcquisitionNumber": 1,
  "AcquisitionTime": "11:15:49.995000",
  "BandwidthPerPixelPhaseEncode": 17.17,
  "BaseResolution": 104,
  "BodyPartExamined": "BRAIN",
  "CoilCombinationMethod": "Sum of Squares",
  "ConsistencyInfo": "N4_VE11C_LATEST_20160120",
  "ConversionSoftware": "dcm2niix",
  "ConversionSoftwareVersion": "v1.0.20220505",
  "DerivedVendorReportedEchoSpacing": 0.000560011,
  "DeviceSerialNumber": "167006",
  "DwellTime": 2.1e-06,
  "EchoTime": 0.037,
  "EchoTrainLength": 104,
  "EffectiveEchoSpacing": 0.000560011,
  "FlipAngle": 52,
  "HeudiconvVersion": "0.5.3.post811+g6206e14",
  "ImageComments": "Unaliased MB4/PE3/LB",
  "ImageOrientationPatientDICOM": [0.999491, 0.00764131, 0.0309783, 0.00994359, 0.84795, -0.529983],
  "ImageOrientationText": "Tra>Cor(-32.0)>Sag(1.7)",
  "ImageType": [
    "ORIGINAL",
    "PRIMARY",
    "M",
    "MB",
    "ND",
    "MOSAIC"
],
  "ImagingFrequency": 123.259,
  "InPlanePhaseEncodingDirectionDICOM": "COL",
  "InstitutionAddress": "Chemin Queen-Mary 4565,Montreal,District,CA,H3W 1W5",
  "InstitutionName": "IUGM",
  "InstitutionalDepartmentName": "Department",
  "MRAcquisitionType": "2D",
  "MagneticFieldStrength": 3,
  "Manufacturer": "Siemens",
  "ManufacturersModelName": "Prisma_fit",
  "MatrixCoilMode": "SENSE",
  "Modality": "MR",
  "MultibandAccelerationFactor": 4,
  "PartialFourier": 1,
  "PatientPosition": "HFS",
  "PercentPhaseFOV": 100,
  "PercentSampling": 100,
  "PhaseEncodingDirection": "j",
  "PhaseEncodingSteps": 104,
  "PhaseResolution": 1,
  "PixelBandwidth": 2290,
  "ProcedureStepDescription": "games^mariostars",
  "ProtocolName": "func_task-mariostars_run-01",
  "PulseSequenceDetails": "%CustomerSeq%\\cmrr_mbep2d_bold",
  "ReceiveCoilActiveElements": "HC1-7;NC1,2",
  "ReceiveCoilName": "HeadNeck_64",
  "ReconMatrixPE": 104,
  "RepetitionTime": 1.49,
  "SAR": 0.0617948,
  "ScanOptions": "FS",
  "ScanningSequence": "EP",
  "SequenceName": "epfid2d1_104",
  "SequenceVariant": "SK\\SS",
  "SeriesDescription": "func_task-mariostars_run-01",
  "SeriesNumber": 11,
  "ShimSetting": [619, -7187, -8879, 227, 35, -197, -42, 29],
  "SliceThickness": 2,
  "SliceTiming": [0, 0.785, 0.0975, 0.8825, 0.195, 0.98, 0.295, 1.0775, 0.3925, 1.175, 0.49, 1.2725, 0.5875, 1.3725, 0.685, 0, 0.785, 0.0975, 0.8825, 0.195, 0.98, 0.295, 1.0775, 0.3925, 1.175, 0.49, 1.2725, 0.5875, 1.3725, 0.685, 0, 0.785, 0.0975, 0.8825, 0.195, 0.98, 0.295, 1.0775, 0.3925, 1.175, 0.49, 1.2725, 0.5875, 1.3725, 0.685, 0, 0.785, 0.0975, 0.8825, 0.195, 0.98, 0.295, 1.0775, 0.3925, 1.175, 0.49, 1.2725, 0.5875, 1.3725, 0.685],
  "SoftwareVersions": "syngo MR E11",
  "SpacingBetweenSlices": 2,
  "StationName": "MRC35049",
  "TaskName": "mariostars",
  "TotalReadoutTime": 0.0576811,
  "TxRefAmp": 289.525,
  "WipMemBlock": "26d344ee-fdb6-4907-a42d-fce8965ab605||Sequence: R017 ve11c/master r/75a17815+; Jun 28 2022 16:32:11 by eja",
  "dcmmeta_affine": [
    [-1.9989817142486572, 0.019887186586856842, 0.06063566729426384, 105.03136444091797],
    [-0.015282617881894112, 1.6959002017974854, -1.0600420236587524, -47.679908752441406],
    [0.06195664405822754, 1.0599656105041504, 1.6948847770690918, -89.60099792480469],
    [0.0, 0.0, 0.0, 1.0]
],
  "dcmmeta_reorient_transform": [
    [0.0, -1.0, 0.0, 103.0],
    [1.0, 0.0, 0.0, 0.0],
    [0.0, 0.0, 1.0, 0.0],
    [0.0, 0.0, 0.0, 1.0]
],
  "dcmmeta_shape": [104, 104, 60, 430],
  "dcmmeta_slice_dim": 2,
  "dcmmeta_version": 0.6,
  "global": {
    "const": {
      "AcquisitionMatrix": [104, 0, 0, 104],
      "AngioFlag": "N",
      "BitsAllocated": 16,
      "BitsStored": 16,
      "BodyPartExamined": "BRAIN",
      "Columns": 832,
      "EchoNumbers": 1,
      "EchoTime": 37.0,
      "EchoTrainLength": 104,
      "FlipAngle": 52.0,
      "HighBit": 15,
      "ImageOrientationPatient": [0.99949084735119, 0.00764130892921, 0.03097832240549, 0.00994359335355, 0.8479500716698, -0.5299828307657],
      "ImagePositionPatient": [-841.94801857587, -749.86833267449, 382.85074418077],
      "ImageType": [
        "ORIGINAL",
        "PRIMARY",
        "M",
        "MB",
        "ND",
        "MOSAIC"
],
      "ImagedNucleus": "1H",
      "ImagingFrequency": 123.258778,
      "InPlanePhaseEncodingDirection": "COL",
      "MRAcquisitionType": "2D",
      "MagneticFieldStrength": 3.0,
      "Manufacturer": "SIEMENS",
      "ManufacturerModelName": "Prisma_fit",
      "Modality": "MR",
      "NumberOfAverages": 1.0,
      "NumberOfPhaseEncodingSteps": 104,
      "PercentPhaseFieldOfView": 100.0,
      "PercentSampling": 100.0,
      "PerformedProcedureStepStartTime": "111226.606000",
      "PhotometricInterpretation": "MONOCHROME2",
      "PixelBandwidth": 2290.0,
      "PixelRepresentation": 0,
      "PixelSpacing": [2.0, 2.0],
      "ProtocolName": "func_task-mariostars_run-01",
      "RepetitionTime": 1490.0,
      "Rows": 832,
      "SAR": 0.06179477798944,
      "SamplesPerPixel": 1,
      "ScanOptions": "FS",
      "ScanningSequence": "EP",
      "SequenceName": "epfid2d1_104",
      "SequenceVariant": [
        "SK",
        "SS"
],
      "SeriesDescription": "func_task-mariostars_run-01",
      "SeriesNumber": 11,
      "SeriesTime": "111714.712000",
      "SliceLocation": -47.476006540824,
      "SliceThickness": 2.0,
      "SmallestImagePixelValue": 0,
      "SoftwareVersions": "syngo MR E11",
      "SpacingBetweenSlices": 2.0000000541081,
      "SpecificCharacterSet": "ISO_IR 100",
      "StudyID": "1",
      "StudyTime": "111226.515000",
      "TransmitCoilName": "Body",
      "VariableFlipAngleFlag": "N",
      "WindowCenterWidthExplanation": "Algo1",
      "dBdt": 0.0},
    "slices": {}
  },
  "time": {
    "samples": {
      "AcquisitionNumber": [1, 2, 3, 4, 5, 6, 7, 8, 9, 10, 11, 12, 13, 14, 15, 16, 17, 18, 19, 20, 21, 22, 23, 24, 25, 26, 27, 28, 29, 30, 31, 32, 33, 34, 35, 36, 37, 38, 39, 40, 41, 42, 43, 44, 45, 46, 47, 48, 49, 50, 51, 52, 53, 54, 55, 56, 57, 58, 59, 60, 61, 62, 63, 64, 65, 66, 67, 68, 69, 70, 71, 72, 73, 74, 75, 76, 77, 78, 79, 80, 81, 82, 83, 84, 85, 86, 87, 88, 89, 90, 91, 92, 93, 94, 95, 96, 97, 98, 99, 100, 101, 102, 103, 104, 105, 106, 107, 108, 109, 110, 111, 112, 113, 114, 115, 116, 117, 118, 119, 120, 121, 122, 123, 124, 125, 126, 127, 128, 129, 130, 131, 132, 133, 134, 135, 136, 137, 138, 139, 140, 141, 142, 143, 144, 145, 146, 147, 148, 149, 150, 151, 152, 153, 154, 155, 156, 157, 158, 159, 160, 161, 162, 163, 164, 165, 166, 167, 168, 169, 170, 171, 172, 173, 174, 175, 176, 177, 178, 179, 180, 181, 182, 183, 184, 185, 186, 187, 188, 189, 190, 191, 192, 193, 194, 195, 196, 197, 198, 199, 200, 201, 202, 203, 204, 205, 206, 207, 208, 209, 210, 211, 212, 213, 214, 215, 216, 217, 218, 219, 220, 221, 222, 223, 224, 225, 226, 227, 228, 229, 230, 231, 232, 233, 234, 235, 236, 237, 238, 239, 240, 241, 242, 243, 244, 245, 246, 247, 248, 249, 250, 251, 252, 253, 254, 255, 256, 257, 258, 259, 260, 261, 262, 263, 264, 265, 266, 267, 268, 269, 270, 271, 272, 273, 274, 275, 276, 277, 278, 279, 280, 281, 282, 283, 284, 285, 286, 287, 288, 289, 290, 291, 292, 293, 294, 295, 296, 297, 298, 299, 300, 301, 302, 303, 304, 305, 306, 307, 308, 309, 310, 311, 312, 313, 314, 315, 316, 317, 318, 319, 320, 321, 322, 323, 324, 325, 326, 327, 328, 329, 330, 331, 332, 333, 334, 335, 336, 337, 338, 339, 340, 341, 342, 343, 344, 345, 346, 347, 348, 349, 350, 351, 352, 353, 354, 355, 356, 357, 358, 359, 360, 361, 362, 363, 364, 365, 366, 367, 368, 369, 370, 371, 372, 373, 374, 375, 376, 377, 378, 379, 380, 381, 382, 383, 384, 385, 386, 387, 388, 389, 390, 391, 392, 393, 394, 395, 396, 397, 398, 399, 400, 401, 402, 403, 404, 405, 406, 407, 408, 409, 410, 411, 412, 413, 414, 415, 416, 417, 418, 419, 420, 421, 422, 423, 424, 425, 426, 427, 428, 429, 430],
      "AcquisitionTime": ["111549.995000", "111551.485000", "111552.975000", "111554.465000", "111555.955000", "111557.445000", "111558.935000", "111600.425000", "111601.915000", "111603.405000", "111604.895000", "111606.385000", "111607.875000", "111609.365000", "111610.855000", "111612.345000", "111613.835000", "111615.325000", "111616.815000", "111618.305000", "111619.795000", "111621.285000", "111622.775000", "111624.265000", "111625.755000", "111627.245000", "111628.735000", "111630.225000", "111631.715000", "111633.205000", "111634.695000", "111636.185000", "111637.675000", "111639.165000", "111640.655000", "111642.145000", "111643.635000", "111645.125000", "111646.615000", "111648.105000", "111649.595000", "111651.085000", "111652.575000", "111654.065000", "111655.555000", "111657.045000", "111658.535000", "111700.025000", "111701.515000", "111703.005000", "111704.495000", "111705.985000", "111707.475000", "111708.965000", "111710.455000", "111711.945000", "111713.435000", "111714.925000", "111716.415000", "111717.905000", "111719.395000", "111720.885000", "111722.375000", "111723.865000", "111725.355000", "111726.845000", "111728.335000", "111729.825000", "111731.315000", "111732.805000", "111734.295000", "111735.785000", "111737.275000", "111738.765000", "111740.255000", "111741.745000", "111743.235000", "111744.725000", "111746.215000", "111747.705000", "111749.195000", "111750.685000", "111752.175000", "111753.665000", "111755.155000", "111756.645000", "111758.135000", "111759.625000", "111801.115000", "111802.605000", "111804.095000", "111805.585000", "111807.075000", "111808.565000", "111810.055000", "111811.545000", "111813.035000", "111814.525000", "111816.015000", "111817.505000", "111818.995000", "111820.485000", "111821.975000", "111823.465000", "111824.955000", "111826.445000", "111827.935000", "111829.425000", "111830.915000", "111832.405000", "111833.895000", "111835.385000", "111836.875000", "111838.365000", "111839.855000", "111841.345000", "111842.835000", "111844.325000", "111845.815000", "111847.305000", "111848.795000", "111850.285000", "111851.775000", "111853.265000", "111854.755000", "111856.245000", "111857.735000", "111859.225000", "111900.715000", "111902.205000", "111903.695000", "111905.185000", "111906.675000", "111908.165000", "111909.655000", "111911.145000", "111912.635000", "111914.125000", "111915.615000", "111917.105000", "111918.595000", "111920.085000", "111921.575000", "111923.065000", "111924.555000", "111926.045000", "111927.535000", "111929.025000", "111930.515000", "111932.005000", "111933.495000", "111934.985000", "111936.475000", "111937.965000", "111939.455000", "111940.945000", "111942.435000", "111943.925000", "111945.415000", "111946.905000", "111948.395000", "111949.885000", "111951.375000", "111952.865000", "111954.355000", "111955.845000", "111957.335000", "111958.825000", "112000.315000", "112001.805000", "112003.295000", "112004.785000", "112006.275000", "112007.765000", "112009.255000", "112010.745000", "112012.235000", "112013.725000", "112015.215000", "112016.705000", "112018.195000", "112019.685000", "112021.175000", "112022.665000", "112024.155000", "112025.645000", "112027.135000", "112028.625000", "112030.115000", "112031.605000", "112033.095000", "112034.585000", "112036.075000", "112037.565000", "112039.055000", "112040.545000", "112042.035000", "112043.525000", "112045.015000", "112046.505000", "112047.995000", "112049.485000", "112050.975000", "112052.465000", "112053.955000", "112055.445000", "112056.935000", "112058.425000", "112059.915000", "112101.405000", "112102.895000", "112104.385000", "112105.875000", "112107.365000", "112108.855000", "112110.345000", "112111.835000", "112113.325000", "112114.815000", "112116.305000", "112117.795000", "112119.285000", "112120.775000", "112122.265000", "112123.755000", "112125.245000", "112126.735000", "112128.225000", "112129.715000", "112131.205000", "112132.695000", "112134.185000", "112135.675000", "112137.165000", "112138.655000", "112140.145000", "112141.635000", "112143.125000", "112144.615000", "112146.105000", "112147.595000", "112149.085000", "112150.575000", "112152.065000", "112153.555000", "112155.045000", "112156.535000", "112158.025000", "112159.515000", "112201.005000", "112202.495000", "112203.985000", "112205.475000", "112206.965000", "112208.455000", "112209.945000", "112211.435000", "112212.925000", "112214.415000", "112215.905000", "112217.395000", "112218.885000", "112220.375000", "112221.865000", "112223.355000", "112224.845000", "112226.335000", "112227.825000", "112229.315000", "112230.805000", "112232.295000", "112233.785000", "112235.275000", "112236.765000", "112238.255000", "112239.745000", "112241.235000", "112242.725000", "112244.215000", "112245.705000", "112247.195000", "112248.685000", "112250.175000", "112251.665000", "112253.155000", "112254.645000", "112256.135000", "112257.625000", "112259.115000", "112300.605000", "112302.095000", "112303.585000", "112305.075000", "112306.565000", "112308.055000", "112309.545000", "112311.035000", "112312.525000", "112314.015000", "112315.505000", "112316.995000", "112318.485000", "112319.975000", "112321.465000", "112322.955000", "112324.445000", "112325.935000", "112327.425000", "112328.915000", "112330.405000", "112331.895000", "112333.385000", "112334.875000", "112336.365000", "112337.855000", "112339.345000", "112340.835000", "112342.325000", "112343.815000", "112345.305000", "112346.795000", "112348.285000", "112349.775000", "112351.265000", "112352.755000", "112354.245000", "112355.735000", "112357.225000", "112358.715000", "112400.205000", "112401.695000", "112403.185000", "112404.675000", "112406.165000", "112407.655000", "112409.145000", "112410.635000", "112412.125000", "112413.615000", "112415.105000", "112416.595000", "112418.085000", "112419.575000", "112421.065000", "112422.555000", "112424.045000", "112425.535000", "112427.025000", "112428.515000", "112430.005000", "112431.495000", "112432.985000", "112434.475000", "112435.965000", "112437.455000", "112438.945000", "112440.435000", "112441.925000", "112443.415000", "112444.905000", "112446.395000", "112447.885000", "112449.375000", "112450.865000", "112452.355000", "112453.845000", "112455.335000", "112456.825000", "112458.315000", "112459.805000", "112501.295000", "112502.785000", "112504.275000", "112505.765000", "112507.255000", "112508.745000", "112510.235000", "112511.725000", "112513.215000", "112514.705000", "112516.195000", "112517.685000", "112519.175000", "112520.665000", "112522.155000", "112523.645000", "112525.135000", "112526.625000", "112528.115000", "112529.605000", "112531.095000", "112532.585000", "112534.075000", "112535.565000", "112537.055000", "112538.545000", "112540.035000", "112541.525000", "112543.015000", "112544.505000", "112545.995000", "112547.485000", "112548.975000", "112550.465000", "112551.955000", "112553.445000", "112554.935000", "112556.425000", "112557.915000", "112559.405000", "112600.895000", "112602.385000", "112603.875000", "112605.365000", "112606.855000", "112608.345000", "112609.835000", "112611.325000", "112612.815000", "112614.305000", "112615.795000", "112617.285000", "112618.775000", "112620.265000", "112621.755000", "112623.245000", "112624.735000", "112626.225000", "112627.715000", "112629.205000"],
      "ContentTime": ["111714.715000", "111714.768000", "111714.771000", "111714.775000", "111714.778000", "111714.781000", "111714.795000", "111714.798000", "111714.802000", "111714.805000", "111714.808000", "111714.811000", "111714.815000", "111714.824000", "111714.828000", "111714.831000", "111714.834000", "111714.837000", "111714.841000", "111714.844000", "111714.847000", "111714.850000", "111714.854000", "111714.857000", "111714.860000", "111714.864000", "111714.867000", "111714.870000", "111714.873000", "111714.877000", "111714.880000", "111714.883000", "111714.886000", "111714.890000", "111714.893000", "111734.684000", "111734.688000", "111734.692000", "111734.695000", "111734.699000", "111734.702000", "111734.706000", "111734.709000", "111734.712000", "111734.715000", "111734.719000", "111734.722000", "111734.725000", "111734.728000", "111734.732000", "111734.735000", "111734.738000", "111734.742000", "111734.745000", "111734.748000", "111754.684000", "111754.688000", "111754.691000", "111754.694000", "111754.698000", "111754.701000", "111754.704000", "111754.707000", "111754.711000", "111754.714000", "111754.717000", "111754.721000", "111754.724000", "111754.727000", "111754.730000", "111754.734000", "111754.737000", "111754.740000", "111754.743000", "111754.747000", "111814.683000", "111814.687000", "111814.690000", "111814.693000", "111814.697000", "111814.700000", "111814.703000", "111814.706000", "111814.710000", "111814.713000", "111814.716000", "111814.720000", "111814.723000", "111814.726000", "111814.729000", "111814.733000", "111814.736000", "111814.740000", "111814.743000", "111814.746000", "111854.683000", "111854.699000", "111854.703000", "111854.706000", "111854.710000", "111854.713000", "111854.716000", "111854.719000", "111854.723000", "111854.726000", "111854.729000", "111854.733000", "111854.736000", "111854.739000", "111854.743000", "111854.746000", "111854.749000", "111854.753000", "111854.756000", "111854.759000", "111854.762000", "111854.766000", "111854.769000", "111854.801000", "111854.804000", "111854.808000", "111854.811000", "111854.814000", "111934.683000", "111934.687000", "111934.690000", "111934.694000", "111934.697000", "111934.700000", "111934.704000", "111934.707000", "111934.710000", "111934.714000", "111934.717000", "111934.720000", "111934.724000", "111934.727000", "111934.730000", "111934.733000", "111934.737000", "111934.740000", "111934.743000", "111934.747000", "111934.750000", "111934.753000", "111934.756000", "111934.760000", "111934.763000", "111934.766000", "111934.808000", "111954.684000", "111954.688000", "111954.691000", "111954.694000", "111954.698000", "111954.701000", "111954.705000", "111954.708000", "111954.711000", "111954.714000", "111954.718000", "111954.721000", "111954.724000", "112034.683000", "112034.687000", "112034.690000", "112034.693000", "112034.697000", "112034.700000", "112034.703000", "112034.707000", "112034.710000", "112034.713000", "112034.716000", "112034.720000", "112034.723000", "112034.726000", "112034.730000", "112034.733000", "112034.736000", "112034.740000", "112034.743000", "112034.746000", "112034.750000", "112034.753000", "112034.756000", "112034.759000", "112034.763000", "112034.766000", "112034.805000", "112114.683000", "112114.687000", "112114.690000", "112114.693000", "112114.697000", "112114.700000", "112114.703000", "112114.707000", "112114.710000", "112114.713000", "112114.716000", "112114.720000", "112114.723000", "112114.726000", "112114.730000", "112114.733000", "112114.736000", "112114.740000", "112114.743000", "112114.746000", "112114.749000", "112114.753000", "112114.756000", "112114.759000", "112114.763000", "112114.766000", "112114.803000", "112154.683000", "112154.687000", "112154.690000", "112154.694000", "112154.697000", "112154.700000", "112154.703000", "112154.707000", "112154.710000", "112154.713000", "112154.717000", "112154.720000", "112154.723000", "112154.727000", "112154.730000", "112154.733000", "112154.737000", "112154.740000", "112154.743000", "112154.746000", "112154.750000", "112154.753000", "112154.756000", "112154.760000", "112154.763000", "112154.766000", "112154.770000", "112234.684000", "112234.688000", "112234.692000", "112234.696000", "112234.699000", "112234.702000", "112234.706000", "112234.715000", "112234.718000", "112234.721000", "112234.725000", "112234.728000", "112234.732000", "112234.735000", "112234.738000", "112234.742000", "112234.745000", "112234.748000", "112234.752000", "112234.755000", "112234.758000", "112234.762000", "112234.765000", "112234.768000", "112234.772000", "112234.775000", "112314.683000", "112314.687000", "112314.690000", "112314.694000", "112314.697000", "112314.700000", "112314.704000", "112314.707000", "112314.710000", "112314.714000", "112314.717000", "112314.721000", "112314.724000", "112314.727000", "112314.730000", "112314.734000", "112314.737000", "112314.751000", "112314.754000", "112314.758000", "112314.761000", "112314.764000", "112314.768000", "112314.771000", "112314.774000", "112314.778000", "112314.781000", "112354.683000", "112354.687000", "112354.690000", "112354.693000", "112354.697000", "112354.700000", "112354.703000", "112354.707000", "112354.710000", "112354.713000", "112354.717000", "112354.720000", "112354.724000", "112354.727000", "112354.730000", "112354.733000", "112354.737000", "112354.740000", "112354.743000", "112354.747000", "112354.750000", "112354.753000", "112354.757000", "112354.760000", "112354.763000", "112354.767000", "112354.770000", "112434.684000", "112434.688000", "112434.691000", "112434.694000", "112434.698000", "112434.701000", "112434.705000", "112434.708000", "112434.719000", "112434.722000", "112434.725000", "112434.729000", "112434.732000", "112434.735000", "112434.739000", "112434.742000", "112434.745000", "112434.749000", "112434.752000", "112434.755000", "112434.758000", "112434.762000", "112434.765000", "112434.768000", "112434.772000", "112434.775000", "112434.778000", "112514.683000", "112514.687000", "112514.691000", "112514.694000", "112514.697000", "112514.701000", "112514.704000", "112514.707000", "112514.711000", "112514.714000", "112514.717000", "112514.721000", "112514.724000", "112514.727000", "112514.731000", "112514.734000", "112514.737000", "112514.741000", "112514.744000", "112514.747000", "112514.751000", "112514.754000", "112514.757000", "112514.761000", "112514.764000", "112514.767000", "112514.772000", "112554.683000", "112554.687000", "112554.690000", "112554.693000", "112554.697000", "112554.700000", "112554.703000", "112554.707000", "112554.710000", "112554.713000", "112554.716000", "112554.720000", "112554.723000", "112554.726000", "112554.730000", "112554.733000", "112554.736000", "112554.740000", "112554.743000", "112554.746000", "112554.749000", "112554.753000", "112554.756000", "112554.759000", "112554.763000", "112554.766000", "112554.791000", "112632.162000", "112632.168000", "112632.171000", "112632.176000", "112632.180000", "112632.184000", "112632.187000", "112632.191000", "112632.194000", "112632.198000", "112632.202000", "112632.205000", "112632.209000", "112632.212000", "112632.215000", "112632.219000", "112632.222000", "112632.225000", "112632.229000", "112632.232000", "112632.235000", "112632.239000", "112632.242000", "112632.245000", "112632.249000"],
      "InstanceCreationTime": ["111714.715000", "111714.768000", "111714.771000", "111714.775000", "111714.778000", "111714.781000", "111714.795000", "111714.798000", "111714.802000", "111714.805000", "111714.808000", "111714.811000", "111714.815000", "111714.824000", "111714.828000", "111714.831000", "111714.834000", "111714.837000", "111714.841000", "111714.844000", "111714.847000", "111714.850000", "111714.854000", "111714.857000", "111714.860000", "111714.864000", "111714.867000", "111714.870000", "111714.873000", "111714.877000", "111714.880000", "111714.883000", "111714.886000", "111714.890000", "111714.893000", "111734.684000", "111734.688000", "111734.692000", "111734.695000", "111734.699000", "111734.702000", "111734.706000", "111734.709000", "111734.712000", "111734.715000", "111734.719000", "111734.722000", "111734.725000", "111734.728000", "111734.732000", "111734.735000", "111734.738000", "111734.742000", "111734.745000", "111734.748000", "111754.684000", "111754.688000", "111754.691000", "111754.694000", "111754.698000", "111754.701000", "111754.704000", "111754.707000", "111754.711000", "111754.714000", "111754.717000", "111754.721000", "111754.724000", "111754.727000", "111754.730000", "111754.734000", "111754.737000", "111754.740000", "111754.743000", "111754.747000", "111814.683000", "111814.687000", "111814.690000", "111814.693000", "111814.697000", "111814.700000", "111814.703000", "111814.706000", "111814.710000", "111814.713000", "111814.716000", "111814.720000", "111814.723000", "111814.726000", "111814.729000", "111814.733000", "111814.736000", "111814.740000", "111814.743000", "111814.746000", "111854.683000", "111854.699000", "111854.703000", "111854.706000", "111854.710000", "111854.713000", "111854.716000", "111854.719000", "111854.723000", "111854.726000", "111854.729000", "111854.733000", "111854.736000", "111854.739000", "111854.743000", "111854.746000", "111854.749000", "111854.753000", "111854.756000", "111854.759000", "111854.762000", "111854.766000", "111854.769000", "111854.801000", "111854.804000", "111854.808000", "111854.811000", "111854.814000", "111934.683000", "111934.687000", "111934.690000", "111934.694000", "111934.697000", "111934.700000", "111934.704000", "111934.707000", "111934.710000", "111934.714000", "111934.717000", "111934.720000", "111934.724000", "111934.727000", "111934.730000", "111934.733000", "111934.737000", "111934.740000", "111934.743000", "111934.747000", "111934.750000", "111934.753000", "111934.756000", "111934.760000", "111934.763000", "111934.766000", "111934.808000", "111954.684000", "111954.688000", "111954.691000", "111954.694000", "111954.698000", "111954.701000", "111954.705000", "111954.708000", "111954.711000", "111954.714000", "111954.718000", "111954.721000", "111954.724000", "112034.683000", "112034.687000", "112034.690000", "112034.693000", "112034.697000", "112034.700000", "112034.703000", "112034.707000", "112034.710000", "112034.713000", "112034.716000", "112034.720000", "112034.723000", "112034.726000", "112034.730000", "112034.733000", "112034.736000", "112034.740000", "112034.743000", "112034.746000", "112034.750000", "112034.753000", "112034.756000", "112034.759000", "112034.763000", "112034.766000", "112034.805000", "112114.683000", "112114.687000", "112114.690000", "112114.693000", "112114.697000", "112114.700000", "112114.703000", "112114.707000", "112114.710000", "112114.713000", "112114.716000", "112114.720000", "112114.723000", "112114.726000", "112114.730000", "112114.733000", "112114.736000", "112114.740000", "112114.743000", "112114.746000", "112114.749000", "112114.753000", "112114.756000", "112114.759000", "112114.763000", "112114.766000", "112114.803000", "112154.683000", "112154.687000", "112154.690000", "112154.694000", "112154.697000", "112154.700000", "112154.703000", "112154.707000", "112154.710000", "112154.713000", "112154.717000", "112154.720000", "112154.723000", "112154.727000", "112154.730000", "112154.733000", "112154.737000", "112154.740000", "112154.743000", "112154.746000", "112154.750000", "112154.753000", "112154.756000", "112154.760000", "112154.763000", "112154.766000", "112154.770000", "112234.684000", "112234.688000", "112234.692000", "112234.696000", "112234.699000", "112234.702000", "112234.706000", "112234.715000", "112234.718000", "112234.721000", "112234.725000", "112234.728000", "112234.732000", "112234.735000", "112234.738000", "112234.742000", "112234.745000", "112234.748000", "112234.752000", "112234.755000", "112234.758000", "112234.762000", "112234.765000", "112234.768000", "112234.772000", "112234.775000", "112314.683000", "112314.687000", "112314.690000", "112314.694000", "112314.697000", "112314.700000", "112314.704000", "112314.707000", "112314.710000", "112314.714000", "112314.717000", "112314.721000", "112314.724000", "112314.727000", "112314.730000", "112314.734000", "112314.737000", "112314.751000", "112314.754000", "112314.758000", "112314.761000", "112314.764000", "112314.768000", "112314.771000", "112314.774000", "112314.778000", "112314.781000", "112354.683000", "112354.687000", "112354.690000", "112354.693000", "112354.697000", "112354.700000", "112354.703000", "112354.707000", "112354.710000", "112354.713000", "112354.717000", "112354.720000", "112354.724000", "112354.727000", "112354.730000", "112354.733000", "112354.737000", "112354.740000", "112354.743000", "112354.747000", "112354.750000", "112354.753000", "112354.757000", "112354.760000", "112354.763000", "112354.767000", "112354.770000", "112434.684000", "112434.688000", "112434.691000", "112434.694000", "112434.698000", "112434.701000", "112434.705000", "112434.708000", "112434.719000", "112434.722000", "112434.725000", "112434.729000", "112434.732000", "112434.735000", "112434.739000", "112434.742000", "112434.745000", "112434.749000", "112434.752000", "112434.755000", "112434.758000", "112434.762000", "112434.765000", "112434.768000", "112434.772000", "112434.775000", "112434.778000", "112514.683000", "112514.687000", "112514.691000", "112514.694000", "112514.697000", "112514.701000", "112514.704000", "112514.707000", "112514.711000", "112514.714000", "112514.717000", "112514.721000", "112514.724000", "112514.727000", "112514.731000", "112514.734000", "112514.737000", "112514.741000", "112514.744000", "112514.747000", "112514.751000", "112514.754000", "112514.757000", "112514.761000", "112514.764000", "112514.767000", "112514.772000", "112554.683000", "112554.687000", "112554.690000", "112554.693000", "112554.697000", "112554.700000", "112554.703000", "112554.707000", "112554.710000", "112554.713000", "112554.716000", "112554.720000", "112554.723000", "112554.726000", "112554.730000", "112554.733000", "112554.736000", "112554.740000", "112554.743000", "112554.746000", "112554.749000", "112554.753000", "112554.756000", "112554.759000", "112554.763000", "112554.766000", "112554.791000", "112632.162000", "112632.168000", "112632.171000", "112632.176000", "112632.180000", "112632.184000", "112632.187000", "112632.191000", "112632.194000", "112632.198000", "112632.202000", "112632.205000", "112632.209000", "112632.212000", "112632.215000", "112632.219000", "112632.222000", "112632.225000", "112632.229000", "112632.232000", "112632.235000", "112632.239000", "112632.242000", "112632.245000", "112632.249000"],
