{
  "AcquisitionMatrixPE": 104,
  "AcquisitionNumber": 1,
  "AcquisitionTime": "14:13:13.975000",
  "BandwidthPerPixelPhaseEncode": 17.17,
  "BaseResolution": 104,
  "BodyPartExamined": "BRAIN",
  "CoilCombinationMethod": "Sum of Squares",
  "ConsistencyInfo": "N4_VE11C_LATEST_20160120",
  "ConversionSoftware": "dcm2niix",
  "ConversionSoftwareVersion": "v1.0.20211006",
  "DerivedVendorReportedEchoSpacing": 0.000560011,
  "DeviceSerialNumber": "167006",
  "DwellTime": 2.1e-06,
  "EchoTime": 0.037,
  "EchoTrainLength": 104,
  "EffectiveEchoSpacing": 0.000560011,
  "FlipAngle": 52,
  "HeudiconvVersion": "0.11.3.post9+gc939bf8",
  "ImageComments": "Unaliased MB4/PE3/LB",
  "ImageOrientationPatientDICOM": [0.999557, 0.00551104, 0.0292501, 0.00209349, 0.967259, -0.253782],
  "ImageOrientationText": "Tra>Cor(-14.7)>Sag(1.7)",
  "ImageType": [
    "ORIGINAL",
    "PRIMARY",
    "M",
    "MB",
    "ND",
    "MOSAIC"
],
  "ImagingFrequency": 123.259,
  "InPlanePhaseEncodingDirectionDICOM": "COL",
  "InstitutionAddress": "Chemin Queen-Mary 4565,Montreal,District,CA,H3W 1W5",
  "InstitutionName": "IUGM",
  "InstitutionalDepartmentName": "Department",
  "MRAcquisitionType": "2D",
  "MagneticFieldStrength": 3,
  "Manufacturer": "Siemens",
  "ManufacturersModelName": "Prisma_fit",
  "MatrixCoilMode": "SENSE",
  "Modality": "MR",
  "MultibandAccelerationFactor": 4,
  "PartialFourier": 1,
  "PatientPosition": "HFS",
  "PercentPhaseFOV": 100,
  "PercentSampling": 100,
  "PhaseEncodingDirection": "j",
  "PhaseEncodingSteps": 104,
  "PhaseResolution": 1,
  "PixelBandwidth": 2290,
  "ProcedureStepDescription": "games^mariostars",
  "ProtocolName": "func_task-mariostars_run-01",
  "PulseSequenceDetails": "%CustomerSeq%\\cmrr_mbep2d_bold",
  "ReceiveCoilActiveElements": "HC1-7;NC1,2",
  "ReceiveCoilName": "HeadNeck_64",
  "ReconMatrixPE": 104,
  "RepetitionTime": 1.49,
  "SAR": 0.0612519,
  "ScanOptions": "FS",
  "ScanningSequence": "EP",
  "SequenceName": "epfid2d1_104",
  "SequenceVariant": "SK\\SS",
  "SeriesDescription": "func_task-mariostars_run-01",
  "SeriesNumber": 17,
  "ShimSetting": [640, -7219, -8746, 687, 84, 12, 37, -8],
  "SliceThickness": 2,
  "SliceTiming": [0, 0.785, 0.0975, 0.8825, 0.195, 0.98, 0.295, 1.0775, 0.3925, 1.175, 0.49, 1.275, 0.5875, 1.3725, 0.685, 0, 0.785, 0.0975, 0.8825, 0.195, 0.98, 0.295, 1.0775, 0.3925, 1.175, 0.49, 1.275, 0.5875, 1.3725, 0.685, 0, 0.785, 0.0975, 0.8825, 0.195, 0.98, 0.295, 1.0775, 0.3925, 1.175, 0.49, 1.275, 0.5875, 1.3725, 0.685, 0, 0.785, 0.0975, 0.8825, 0.195, 0.98, 0.295, 1.0775, 0.3925, 1.175, 0.49, 1.275, 0.5875, 1.3725, 0.685],
  "SoftwareVersions": "syngo MR E11",
  "SpacingBetweenSlices": 2,
  "StationName": "MRC35049",
  "TaskName": "mariostars",
  "TotalReadoutTime": 0.0576811,
  "TxRefAmp": 234.677,
  "WipMemBlock": "2167fec6-add2-4c5f-b36f-500905ee33d0||Sequence: R017 ve11c/master r/75a17815+; Jun 28 2022 16:32:11 by eja",
  "dcmmeta_affine": [
    [-1.999113917350769, 0.004186974372714758, 0.059382114559412, 106.85670471191406],
    [-0.011022084392607212, 1.9345182180404663, -0.507462203502655, -73.84654235839844],
    [0.0585002563893795, 0.5075646638870239, 1.9336379766464233, -52.11438751220703],
    [0.0, 0.0, 0.0, 1.0]
],
  "dcmmeta_reorient_transform": [
    [0.0, -1.0, 0.0, 103.0],
    [1.0, 0.0, 0.0, 0.0],
    [0.0, 0.0, 1.0, 0.0],
    [0.0, 0.0, 0.0, 1.0]
],
  "dcmmeta_shape": [104, 104, 60, 448],
  "dcmmeta_slice_dim": 2,
  "dcmmeta_version": 0.6,
  "global": {
    "const": {
      "AcquisitionMatrix": [104, 0, 0, 104],
      "AngioFlag": "N",
      "BitsAllocated": 16,
      "BitsStored": 16,
      "BodyPartExamined": "BRAIN",
      "Columns": 832,
      "EchoNumbers": 1,
      "EchoTime": 37.0,
      "EchoTrainLength": 104,
      "FlipAngle": 52.0,
      "HighBit": 15,
      "ImageOrientationPatient": [0.99955693105609, 0.00551104227819, 0.02925012804644, 0.00209348717339, 0.96725909208192, -0.2537823202989],
      "ImagePositionPatient": [-836.48947119958, -833.58549161, 163.62420711082],
      "ImageType": [
        "ORIGINAL",
        "PRIMARY",
        "M",
        "MB",
        "ND",
        "MOSAIC"
],
      "ImagedNucleus": "1H",
      "ImagingFrequency": 123.258788,
      "InPlanePhaseEncodingDirection": "COL",
      "MRAcquisitionType": "2D",
      "MagneticFieldStrength": 3.0,
      "Manufacturer": "SIEMENS",
      "ManufacturerModelName": "Prisma_fit",
      "Modality": "MR",
      "NumberOfAverages": 1.0,
      "NumberOfPhaseEncodingSteps": 104,
      "PercentPhaseFieldOfView": 100.0,
      "PercentSampling": 100.0,
      "PerformedProcedureStepStartTime": "135905.311000",
      "PhotometricInterpretation": "MONOCHROME2",
      "PixelBandwidth": 2290.0,
      "PixelRepresentation": 0,
      "PixelSpacing": [2.0, 2.0],
      "ProtocolName": "func_task-mariostars_run-01",
      "RepetitionTime": 1490.0,
      "Rows": 832,
      "SAR": 0.06125185839148,
      "SamplesPerPixel": 1,
      "ScanOptions": "FS",
      "ScanningSequence": "EP",
      "SequenceName": "epfid2d1_104",
      "SequenceVariant": [
        "SK",
        "SS"
],
      "SeriesDescription": "func_task-mariostars_run-01",
      "SeriesNumber": 17,
      "SeriesTime": "141432.014000",
      "SliceLocation": -28.475325797911,
      "SliceThickness": 2.0,
      "SmallestImagePixelValue": 0,
      "SoftwareVersions": "syngo MR E11",
      "SpacingBetweenSlices": 1.9999999827046,
      "SpecificCharacterSet": "ISO_IR 100",
      "StudyID": "1",
      "StudyTime": "135905.235000",
      "TransmitCoilName": "Body",
      "VariableFlipAngleFlag": "N",
      "WindowCenterWidthExplanation": "Algo1",
      "dBdt": 0.0},
    "slices": {}
  },
  "time": {
    "samples": {
      "AcquisitionNumber": [1, 2, 3, 4, 5, 6, 7, 8, 9, 10, 11, 12, 13, 14, 15, 16, 17, 18, 19, 20, 21, 22, 23, 24, 25, 26, 27, 28, 29, 30, 31, 32, 33, 34, 35, 36, 37, 38, 39, 40, 41, 42, 43, 44, 45, 46, 47, 48, 49, 50, 51, 52, 53, 54, 55, 56, 57, 58, 59, 60, 61, 62, 63, 64, 65, 66, 67, 68, 69, 70, 71, 72, 73, 74, 75, 76, 77, 78, 79, 80, 81, 82, 83, 84, 85, 86, 87, 88, 89, 90, 91, 92, 93, 94, 95, 96, 97, 98, 99, 100, 101, 102, 103, 104, 105, 106, 107, 108, 109, 110, 111, 112, 113, 114, 115, 116, 117, 118, 119, 120, 121, 122, 123, 124, 125, 126, 127, 128, 129, 130, 131, 132, 133, 134, 135, 136, 137, 138, 139, 140, 141, 142, 143, 144, 145, 146, 147, 148, 149, 150, 151, 152, 153, 154, 155, 156, 157, 158, 159, 160, 161, 162, 163, 164, 165, 166, 167, 168, 169, 170, 171, 172, 173, 174, 175, 176, 177, 178, 179, 180, 181, 182, 183, 184, 185, 186, 187, 188, 189, 190, 191, 192, 193, 194, 195, 196, 197, 198, 199, 200, 201, 202, 203, 204, 205, 206, 207, 208, 209, 210, 211, 212, 213, 214, 215, 216, 217, 218, 219, 220, 221, 222, 223, 224, 225, 226, 227, 228, 229, 230, 231, 232, 233, 234, 235, 236, 237, 238, 239, 240, 241, 242, 243, 244, 245, 246, 247, 248, 249, 250, 251, 252, 253, 254, 255, 256, 257, 258, 259, 260, 261, 262, 263, 264, 265, 266, 267, 268, 269, 270, 271, 272, 273, 274, 275, 276, 277, 278, 279, 280, 281, 282, 283, 284, 285, 286, 287, 288, 289, 290, 291, 292, 293, 294, 295, 296, 297, 298, 299, 300, 301, 302, 303, 304, 305, 306, 307, 308, 309, 310, 311, 312, 313, 314, 315, 316, 317, 318, 319, 320, 321, 322, 323, 324, 325, 326, 327, 328, 329, 330, 331, 332, 333, 334, 335, 336, 337, 338, 339, 340, 341, 342, 343, 344, 345, 346, 347, 348, 349, 350, 351, 352, 353, 354, 355, 356, 357, 358, 359, 360, 361, 362, 363, 364, 365, 366, 367, 368, 369, 370, 371, 372, 373, 374, 375, 376, 377, 378, 379, 380, 381, 382, 383, 384, 385, 386, 387, 388, 389, 390, 391, 392, 393, 394, 395, 396, 397, 398, 399, 400, 401, 402, 403, 404, 405, 406, 407, 408, 409, 410, 411, 412, 413, 414, 415, 416, 417, 418, 419, 420, 421, 422, 423, 424, 425, 426, 427, 428, 429, 430, 431, 432, 433, 434, 435, 436, 437, 438, 439, 440, 441, 442, 443, 444, 445, 446, 447, 448],
      "AcquisitionTime": ["141313.975000", "141315.465000", "141316.955000", "141318.445000", "141319.935000", "141321.425000", "141322.915000", "141324.405000", "141325.895000", "141327.385000", "141328.875000", "141330.365000", "141331.855000", "141333.345000", "141334.835000", "141336.325000", "141337.815000", "141339.305000", "141340.795000", "141342.285000", "141343.775000", "141345.265000", "141346.755000", "141348.245000", "141349.735000", "141351.225000", "141352.715000", "141354.205000", "141355.695000", "141357.185000", "141358.675000", "141400.165000", "141401.655000", "141403.145000", "141404.635000", "141406.125000", "141407.615000", "141409.105000", "141410.595000", "141412.085000", "141413.575000", "141415.065000", "141416.555000", "141418.045000", "141419.535000", "141421.025000", "141422.515000", "141424.005000", "141425.495000", "141426.985000", "141428.475000", "141429.965000", "141431.455000", "141432.945000", "141434.435000", "141435.925000", "141437.415000", "141438.905000", "141440.395000", "141441.885000", "141443.375000", "141444.865000", "141446.355000", "141447.845000", "141449.335000", "141450.825000", "141452.315000", "141453.805000", "141455.295000", "141456.785000", "141458.275000", "141459.765000", "141501.255000", "141502.745000", "141504.235000", "141505.725000", "141507.215000", "141508.705000", "141510.195000", "141511.685000", "141513.175000", "141514.665000", "141516.155000", "141517.645000", "141519.135000", "141520.625000", "141522.115000", "141523.605000", "141525.095000", "141526.585000", "141528.075000", "141529.565000", "141531.055000", "141532.545000", "141534.035000", "141535.525000", "141537.015000", "141538.505000", "141539.995000", "141541.485000", "141542.975000", "141544.465000", "141545.955000", "141547.445000", "141548.935000", "141550.425000", "141551.915000", "141553.405000", "141554.895000", "141556.385000", "141557.875000", "141559.365000", "141600.855000", "141602.345000", "141603.835000", "141605.325000", "141606.815000", "141608.305000", "141609.795000", "141611.285000", "141612.775000", "141614.265000", "141615.755000", "141617.245000", "141618.735000", "141620.225000", "141621.715000", "141623.205000", "141624.695000", "141626.185000", "141627.675000", "141629.165000", "141630.655000", "141632.145000", "141633.635000", "141635.125000", "141636.615000", "141638.105000", "141639.595000", "141641.085000", "141642.575000", "141644.065000", "141645.555000", "141647.045000", "141648.535000", "141650.025000", "141651.515000", "141653.005000", "141654.495000", "141655.985000", "141657.475000", "141658.965000", "141700.455000", "141701.945000", "141703.435000", "141704.925000", "141706.415000", "141707.905000", "141709.395000", "141710.885000", "141712.375000", "141713.865000", "141715.355000", "141716.845000", "141718.335000", "141719.825000", "141721.315000", "141722.805000", "141724.295000", "141725.785000", "141727.275000", "141728.765000", "141730.255000", "141731.745000", "141733.235000", "141734.725000", "141736.215000", "141737.705000", "141739.195000", "141740.685000", "141742.175000", "141743.665000", "141745.155000", "141746.645000", "141748.135000", "141749.625000", "141751.115000", "141752.605000", "141754.095000", "141755.585000", "141757.075000", "141758.565000", "141800.055000", "141801.545000", "141803.035000", "141804.525000", "141806.015000", "141807.505000", "141808.995000", "141810.485000", "141811.975000", "141813.465000", "141814.955000", "141816.445000", "141817.935000", "141819.425000", "141820.915000", "141822.405000", "141823.895000", "141825.385000", "141826.875000", "141828.365000", "141829.855000", "141831.345000", "141832.835000", "141834.325000", "141835.815000", "141837.305000", "141838.795000", "141840.285000", "141841.775000", "141843.265000", "141844.755000", "141846.245000", "141847.735000", "141849.225000", "141850.715000", "141852.205000", "141853.695000", "141855.185000", "141856.675000", "141858.165000", "141859.655000", "141901.145000", "141902.635000", "141904.125000", "141905.615000", "141907.105000", "141908.595000", "141910.085000", "141911.575000", "141913.065000", "141914.555000", "141916.045000", "141917.535000", "141919.025000", "141920.515000", "141922.005000", "141923.495000", "141924.985000", "141926.475000", "141927.965000", "141929.455000", "141930.945000", "141932.435000", "141933.925000", "141935.415000", "141936.905000", "141938.395000", "141939.885000", "141941.375000", "141942.865000", "141944.355000", "141945.845000", "141947.335000", "141948.825000", "141950.315000", "141951.805000", "141953.295000", "141954.785000", "141956.275000", "141957.765000", "141959.255000", "142000.745000", "142002.235000", "142003.725000", "142005.215000", "142006.705000", "142008.195000", "142009.685000", "142011.175000", "142012.665000", "142014.155000", "142015.645000", "142017.135000", "142018.625000", "142020.115000", "142021.605000", "142023.095000", "142024.585000", "142026.075000", "142027.565000", "142029.055000", "142030.545000", "142032.035000", "142033.525000", "142035.015000", "142036.505000", "142037.995000", "142039.485000", "142040.975000", "142042.465000", "142043.955000", "142045.445000", "142046.935000", "142048.425000", "142049.915000", "142051.405000", "142052.895000", "142054.385000", "142055.875000", "142057.365000", "142058.855000", "142100.345000", "142101.835000", "142103.325000", "142104.815000", "142106.305000", "142107.795000", "142109.285000", "142110.775000", "142112.265000", "142113.755000", "142115.245000", "142116.735000", "142118.225000", "142119.715000", "142121.205000", "142122.695000", "142124.185000", "142125.675000", "142127.165000", "142128.655000", "142130.145000", "142131.635000", "142133.125000", "142134.615000", "142136.105000", "142137.595000", "142139.085000", "142140.575000", "142142.065000", "142143.555000", "142145.045000", "142146.535000", "142148.025000", "142149.515000", "142151.005000", "142152.495000", "142153.985000", "142155.475000", "142156.965000", "142158.455000", "142159.945000", "142201.435000", "142202.925000", "142204.415000", "142205.905000", "142207.395000", "142208.885000", "142210.375000", "142211.865000", "142213.355000", "142214.845000", "142216.335000", "142217.825000", "142219.315000", "142220.805000", "142222.295000", "142223.785000", "142225.275000", "142226.765000", "142228.255000", "142229.745000", "142231.235000", "142232.725000", "142234.215000", "142235.705000", "142237.195000", "142238.685000", "142240.175000", "142241.665000", "142243.155000", "142244.645000", "142246.135000", "142247.625000", "142249.115000", "142250.605000", "142252.095000", "142253.585000", "142255.075000", "142256.565000", "142258.055000", "142259.545000", "142301.035000", "142302.525000", "142304.015000", "142305.505000", "142306.995000", "142308.485000", "142309.975000", "142311.465000", "142312.955000", "142314.445000", "142315.935000", "142317.425000", "142318.915000", "142320.405000", "142321.895000", "142323.385000", "142324.875000", "142326.365000", "142327.855000", "142329.345000", "142330.835000", "142332.325000", "142333.815000", "142335.305000", "142336.795000", "142338.285000", "142339.775000", "142341.265000", "142342.755000", "142344.245000", "142345.735000", "142347.225000", "142348.715000", "142350.205000", "142351.695000", "142353.185000", "142354.675000", "142356.165000", "142357.655000", "142359.145000", "142400.635000", "142402.125000", "142403.615000", "142405.105000", "142406.595000", "142408.085000", "142409.575000", "142411.065000", "142412.555000", "142414.045000", "142415.535000", "142417.025000", "142418.515000", "142420.005000"],
      "ContentTime": ["141432.017000", "141432.020000", "141432.024000", "141432.027000", "141432.030000", "141432.033000", "141432.037000", "141432.040000", "141432.043000", "141432.047000", "141432.050000", "141432.053000", "141432.056000", "141432.060000", "141432.063000", "141432.066000", "141432.070000", "141432.083000", "141432.086000", "141432.089000", "141432.093000", "141432.096000", "141432.099000", "141432.103000", "141432.106000", "141432.109000", "141432.112000", "141432.115000", "141432.119000", "141451.975000", "141451.979000", "141451.982000", "141451.985000", "141451.988000", "141451.992000", "141451.995000", "141451.998000", "141452.002000", "141452.013000", "141452.016000", "141452.019000", "141452.023000", "141452.026000", "141452.029000", "141452.032000", "141452.036000", "141452.039000", "141452.042000", "141452.045000", "141511.975000", "141511.979000", "141511.982000", "141511.993000", "141511.997000", "141512.001000", "141512.004000", "141512.008000", "141512.011000", "141512.014000", "141512.018000", "141512.021000", "141512.027000", "141512.031000", "141512.034000", "141512.037000", "141512.040000", "141512.044000", "141512.047000", "141512.050000", "141531.975000", "141531.979000", "141531.982000", "141531.985000", "141531.989000", "141531.992000", "141531.995000", "141531.998000", "141532.003000", "141532.006000", "141532.009000", "141532.013000", "141532.016000", "141532.019000", "141532.022000", "141532.026000", "141532.029000", "141532.032000", "141532.035000", "141532.039000", "141611.975000", "141611.979000", "141611.982000", "141611.985000", "141611.989000", "141612.000000", "141612.003000", "141612.007000", "141612.027000", "141612.030000", "141612.033000", "141612.037000", "141612.040000", "141612.043000", "141612.047000", "141612.050000", "141612.054000", "141612.057000", "141612.060000", "141612.063000", "141612.067000", "141612.072000", "141612.076000", "141612.079000", "141612.082000", "141612.086000", "141612.089000", "141612.092000", "141612.095000", "141612.099000", "141651.975000", "141651.979000", "141651.982000", "141651.985000", "141651.989000", "141651.992000", "141651.995000", "141651.998000", "141652.003000", "141652.006000", "141652.009000", "141652.013000", "141652.016000", "141652.019000", "141652.022000", "141652.026000", "141652.029000", "141652.032000", "141652.036000", "141652.039000", "141652.042000", "141652.046000", "141652.049000", "141652.052000", "141652.056000", "141652.059000", "141652.062000", "141731.975000", "141731.979000", "141731.982000", "141731.985000", "141731.989000", "141731.997000", "141732.001000", "141732.004000", "141732.007000", "141732.011000", "141732.014000", "141732.017000", "141732.020000", "141732.024000", "141732.027000", "141732.030000", "141732.034000", "141732.037000", "141732.040000", "141732.043000", "141732.047000", "141732.050000", "141732.053000", "141732.056000", "141732.060000", "141732.063000", "141732.066000", "141811.975000", "141811.979000", "141811.982000", "141811.985000", "141811.989000", "141811.992000", "141811.995000", "141812.000000", "141812.003000", "141812.006000", "141812.010000", "141812.013000", "141812.016000", "141812.019000", "141812.023000", "141812.026000", "141812.029000", "141812.033000", "141812.037000", "141812.040000", "141812.043000", "141812.047000", "141812.050000", "141812.053000", "141812.057000", "141812.060000", "141851.975000", "141851.979000", "141851.982000", "141851.986000", "141851.989000", "141851.992000", "141851.995000", "141852.000000", "141852.003000", "141852.006000", "141852.010000", "141852.013000", "141852.016000", "141852.020000", "141852.023000", "141852.026000", "141852.030000", "141852.033000", "141852.036000", "141852.039000", "141852.043000", "141852.046000", "141852.049000", "141852.052000", "141852.056000", "141852.059000", "141852.062000", "141931.975000", "141931.979000", "141931.983000", "141931.986000", "141931.989000", "141931.992000", "141931.996000", "141932.000000", "141932.004000", "141932.007000", "141932.010000", "141932.014000", "141932.017000", "141932.020000", "141932.024000", "141932.027000", "141932.030000", "141932.034000", "141932.037000", "141932.040000", "141932.044000", "141932.047000", "141932.050000", "141932.054000", "141932.057000", "141932.061000", "141932.064000", "142011.975000", "142011.979000", "142011.982000", "142011.985000", "142011.989000", "142011.992000", "142011.995000", "142012.000000", "142012.003000", "142012.006000", "142012.010000", "142012.013000", "142012.016000", "142012.019000", "142012.023000", "142012.026000", "142012.029000", "142012.033000", "142012.036000", "142012.039000", "142012.042000", "142012.046000", "142012.049000", "142012.053000", "142012.056000", "142012.059000", "142012.062000", "142051.975000", "142051.979000", "142051.982000", "142051.985000", "142051.989000", "142051.992000", "142051.996000", "142052.000000", "142052.003000", "142052.006000", "142052.010000", "142052.013000", "142052.016000", "142052.030000", "142052.033000", "142052.036000", "142052.040000", "142052.043000", "142052.046000", "142052.050000", "142052.053000", "142052.056000", "142052.060000", "142052.063000", "142052.066000", "142052.070000", "142052.073000", "142111.975000", "142111.979000", "142111.982000", "142111.985000", "142111.989000", "142111.992000", "142111.995000", "142112.000000", "142112.003000", "142112.006000", "142112.010000", "142112.013000", "142112.016000", "142151.975000", "142151.979000", "142151.982000", "142151.985000", "142151.989000", "142151.992000", "142151.996000", "142151.999000", "142152.002000", "142152.006000", "142152.009000", "142152.012000", "142152.016000", "142152.019000", "142152.022000", "142152.025000", "142152.029000", "142152.032000", "142152.035000", "142152.039000", "142152.042000", "142152.045000", "142152.048000", "142152.052000", "142152.055000", "142152.058000", "142152.061000", "142231.975000", "142231.979000", "142231.982000", "142231.985000", "142231.989000", "142231.992000", "142231.996000", "142232.000000", "142232.003000", "142232.006000", "142232.010000", "142232.013000", "142232.016000", "142232.020000", "142232.023000", "142232.026000", "142232.030000", "142232.033000", "142232.036000", "142232.040000", "142232.043000", "142232.046000", "142232.049000", "142232.053000", "142232.056000", "142232.059000", "142232.064000", "142311.975000", "142311.979000", "142311.991000", "142311.994000", "142311.998000", "142312.002000", "142312.005000", "142312.008000", "142312.012000", "142312.015000", "142312.018000", "142312.022000", "142312.025000", "142312.028000", "142312.031000", "142312.035000", "142312.038000", "142312.041000", "142312.045000", "142312.048000", "142312.051000", "142312.054000", "142312.067000", "142312.071000", "142312.074000", "142312.077000", "142312.080000", "142351.975000", "142351.979000", "142351.982000", "142351.986000", "142351.989000", "142351.992000", "142351.995000", "142352.000000", "142352.003000", "142352.006000", "142352.010000", "142352.013000", "142352.016000", "142352.019000", "142352.023000", "142352.026000", "142352.029000", "142352.033000", "142352.036000", "142352.039000", "142352.042000", "142352.046000", "142352.049000", "142352.052000", "142352.056000", "142352.059000", "142352.062000", "142422.521000", "142422.525000", "142422.528000", "142422.531000", "142422.535000", "142422.538000", "142422.541000", "142422.545000", "142422.548000", "142422.551000", "142422.554000", "142422.558000", "142422.561000", "142422.564000", "142422.568000", "142422.571000", "142422.574000", "142422.578000", "142422.581000", "142422.584000"],
