{
  "AcquisitionMatrixPE": 104,
  "AcquisitionNumber": 1,
  "AcquisitionTime": "14:05:14.417500",
  "BandwidthPerPixelPhaseEncode": 17.17,
  "BaseResolution": 104,
  "BodyPartExamined": "BRAIN",
  "CoilCombinationMethod": "Sum of Squares",
  "ConsistencyInfo": "N4_VE11C_LATEST_20160120",
  "ConversionSoftware": "dcm2niix",
  "ConversionSoftwareVersion": "v1.0.20211006",
  "DerivedVendorReportedEchoSpacing": 0.000560011,
  "DeviceSerialNumber": "167006",
  "DwellTime": 2.1e-06,
  "EchoTime": 0.037,
  "EchoTrainLength": 104,
  "EffectiveEchoSpacing": 0.000560011,
  "FlipAngle": 52,
  "HeudiconvVersion": "0.11.3.post9+gc939bf8",
  "ImageComments": "Unaliased MB4/PE3/LB",
  "ImageOrientationPatientDICOM": [0.999557, 0.00551104, 0.0292501, 0.00209349, 0.967259, -0.253782],
  "ImageOrientationText": "Tra>Cor(-14.7)>Sag(1.7)",
  "ImageType": [
    "ORIGINAL",
    "PRIMARY",
    "M",
    "MB",
    "ND",
    "MOSAIC"
],
  "ImagingFrequency": 123.259,
  "InPlanePhaseEncodingDirectionDICOM": "COL",
  "InstitutionAddress": "Chemin Queen-Mary 4565,Montreal,District,CA,H3W 1W5",
  "InstitutionName": "IUGM",
  "InstitutionalDepartmentName": "Department",
  "MRAcquisitionType": "2D",
  "MagneticFieldStrength": 3,
  "Manufacturer": "Siemens",
  "ManufacturersModelName": "Prisma_fit",
  "MatrixCoilMode": "SENSE",
  "Modality": "MR",
  "MultibandAccelerationFactor": 4,
  "PartialFourier": 1,
  "PatientPosition": "HFS",
  "PercentPhaseFOV": 100,
  "PercentSampling": 100,
  "PhaseEncodingDirection": "j",
  "PhaseEncodingSteps": 104,
  "PhaseResolution": 1,
  "PixelBandwidth": 2290,
  "ProcedureStepDescription": "games^mariostars",
  "ProtocolName": "func_task-mariostars_run-01",
  "PulseSequenceDetails": "%CustomerSeq%\\cmrr_mbep2d_bold",
  "ReceiveCoilActiveElements": "HC1-7;NC1,2",
  "ReceiveCoilName": "HeadNeck_64",
  "ReconMatrixPE": 104,
  "RepetitionTime": 1.49,
  "SAR": 0.0612519,
  "ScanOptions": "FS",
  "ScanningSequence": "EP",
  "SequenceName": "epfid2d1_104",
  "SequenceVariant": "SK\\SS",
  "SeriesDescription": "func_task-mariostars_run-01",
  "SeriesNumber": 14,
  "ShimSetting": [640, -7219, -8746, 687, 84, 12, 37, -8],
  "SliceThickness": 2,
  "SliceTiming": [0, 0.785, 0.0975, 0.8825, 0.1975, 0.98, 0.295, 1.0775, 0.3925, 1.175, 0.49, 1.275, 0.5875, 1.3725, 0.685, 0, 0.785, 0.0975, 0.8825, 0.1975, 0.98, 0.295, 1.0775, 0.3925, 1.175, 0.49, 1.275, 0.5875, 1.3725, 0.685, 0, 0.785, 0.0975, 0.8825, 0.1975, 0.98, 0.295, 1.0775, 0.3925, 1.175, 0.49, 1.275, 0.5875, 1.3725, 0.685, 0, 0.785, 0.0975, 0.8825, 0.1975, 0.98, 0.295, 1.0775, 0.3925, 1.175, 0.49, 1.275, 0.5875, 1.3725, 0.685],
  "SoftwareVersions": "syngo MR E11",
  "SpacingBetweenSlices": 2,
  "StationName": "MRC35049",
  "TaskName": "mariostars",
  "TotalReadoutTime": 0.0576811,
  "TxRefAmp": 234.677,
  "WipMemBlock": "f83b4f6a-5e8f-45bc-8a63-aa5a7ca69b78||Sequence: R017 ve11c/master r/75a17815+; Jun 28 2022 16:32:11 by eja",
  "dcmmeta_affine": [
    [-1.999113917350769, 0.004186974372714758, 0.059382114559412, 106.85670471191406],
    [-0.011022084392607212, 1.9345182180404663, -0.507462203502655, -73.84654235839844],
    [0.0585002563893795, 0.5075646638870239, 1.9336379766464233, -52.11438751220703],
    [0.0, 0.0, 0.0, 1.0]
],
  "dcmmeta_reorient_transform": [
    [0.0, -1.0, 0.0, 103.0],
    [1.0, 0.0, 0.0, 0.0],
    [0.0, 0.0, 1.0, 0.0],
    [0.0, 0.0, 0.0, 1.0]
],
  "dcmmeta_shape": [104, 104, 60, 192],
  "dcmmeta_slice_dim": 2,
  "dcmmeta_version": 0.6,
  "global": {
    "const": {
      "AcquisitionMatrix": [104, 0, 0, 104],
      "AngioFlag": "N",
      "BitsAllocated": 16,
      "BitsStored": 16,
      "BodyPartExamined": "BRAIN",
      "Columns": 832,
      "EchoNumbers": 1,
      "EchoTime": 37.0,
      "EchoTrainLength": 104,
      "FlipAngle": 52.0,
      "HighBit": 15,
      "ImageOrientationPatient": [0.99955693105609, 0.00551104227819, 0.02925012804644, 0.00209348717339, 0.96725909208192, -0.2537823202989],
      "ImagePositionPatient": [-836.48947119958, -833.58549161, 163.62420711082],
      "ImageType": [
        "ORIGINAL",
        "PRIMARY",
        "M",
        "MB",
        "ND",
        "MOSAIC"
],
      "ImagedNucleus": "1H",
      "ImagingFrequency": 123.258785,
      "InPlanePhaseEncodingDirection": "COL",
      "MRAcquisitionType": "2D",
      "MagneticFieldStrength": 3.0,
      "Manufacturer": "SIEMENS",
      "ManufacturerModelName": "Prisma_fit",
      "Modality": "MR",
      "NumberOfAverages": 1.0,
      "NumberOfPhaseEncodingSteps": 104,
      "PercentPhaseFieldOfView": 100.0,
      "PercentSampling": 100.0,
      "PerformedProcedureStepStartTime": "135905.311000",
      "PhotometricInterpretation": "MONOCHROME2",
      "PixelBandwidth": 2290.0,
      "PixelRepresentation": 0,
      "PixelSpacing": [2.0, 2.0],
      "ProtocolName": "func_task-mariostars_run-01",
      "RepetitionTime": 1490.0,
      "Rows": 832,
      "SAR": 0.06125185839148,
      "SamplesPerPixel": 1,
      "ScanOptions": "FS",
      "ScanningSequence": "EP",
      "SequenceName": "epfid2d1_104",
      "SequenceVariant": [
        "SK",
        "SS"
],
      "SeriesDescription": "func_task-mariostars_run-01",
      "SeriesNumber": 14,
      "SeriesTime": "140642.380000",
      "SliceLocation": -28.475325797911,
      "SliceThickness": 2.0,
      "SmallestImagePixelValue": 0,
      "SoftwareVersions": "syngo MR E11",
      "SpacingBetweenSlices": 1.9999999827046,
      "SpecificCharacterSet": "ISO_IR 100",
      "StudyID": "1",
      "StudyTime": "135905.235000",
      "TransmitCoilName": "Body",
      "VariableFlipAngleFlag": "N",
      "WindowCenterWidthExplanation": "Algo1",
      "dBdt": 0.0},
    "slices": {}
  },
  "time": {
    "samples": {
      "AcquisitionNumber": [1, 2, 3, 4, 5, 6, 7, 8, 9, 10, 11, 12, 13, 14, 15, 16, 17, 18, 19, 20, 21, 22, 23, 24, 25, 26, 27, 28, 29, 30, 31, 32, 33, 34, 35, 36, 37, 38, 39, 40, 41, 42, 43, 44, 45, 46, 47, 48, 49, 50, 51, 52, 53, 54, 55, 56, 57, 58, 59, 60, 61, 62, 63, 64, 65, 66, 67, 68, 69, 70, 71, 72, 73, 74, 75, 76, 77, 78, 79, 80, 81, 82, 83, 84, 85, 86, 87, 88, 89, 90, 91, 92, 93, 94, 95, 96, 97, 98, 99, 100, 101, 102, 103, 104, 105, 106, 107, 108, 109, 110, 111, 112, 113, 114, 115, 116, 117, 118, 119, 120, 121, 122, 123, 124, 125, 126, 127, 128, 129, 130, 131, 132, 133, 134, 135, 136, 137, 138, 139, 140, 141, 142, 143, 144, 145, 146, 147, 148, 149, 150, 151, 152, 153, 154, 155, 156, 157, 158, 159, 160, 161, 162, 163, 164, 165, 166, 167, 168, 169, 170, 171, 172, 173, 174, 175, 176, 177, 178, 179, 180, 181, 182, 183, 184, 185, 186, 187, 188, 189, 190, 191, 192],
      "AcquisitionTime": ["140514.417500", "140515.907500", "140517.397500", "140518.887500", "140520.377500", "140521.867500", "140523.357500", "140524.847500", "140526.337500", "140527.827500", "140529.317500", "140530.807500", "140532.297500", "140533.787500", "140535.277500", "140536.767500", "140538.257500", "140539.747500", "140541.237500", "140542.727500", "140544.217500", "140545.707500", "140547.197500", "140548.687500", "140550.177500", "140551.667500", "140553.157500", "140554.647500", "140556.137500", "140557.627500", "140559.117500", "140600.607500", "140602.097500", "140603.587500", "140605.077500", "140606.567500", "140608.057500", "140609.547500", "140611.037500", "140612.527500", "140614.017500", "140615.507500", "140616.997500", "140618.487500", "140619.977500", "140621.467500", "140622.957500", "140624.447500", "140625.937500", "140627.427500", "140628.917500", "140630.407500", "140631.897500", "140633.387500", "140634.877500", "140636.367500", "140637.857500", "140639.347500", "140640.837500", "140642.327500", "140643.817500", "140645.307500", "140646.797500", "140648.287500", "140649.777500", "140651.267500", "140652.757500", "140654.247500", "140655.737500", "140657.227500", "140658.717500", "140700.207500", "140701.697500", "140703.187500", "140704.677500", "140706.167500", "140707.657500", "140709.147500", "140710.637500", "140712.127500", "140713.617500", "140715.107500", "140716.597500", "140718.087500", "140719.577500", "140721.067500", "140722.557500", "140724.047500", "140725.537500", "140727.027500", "140728.517500", "140730.007500", "140731.497500", "140732.987500", "140734.477500", "140735.967500", "140737.457500", "140738.947500", "140740.437500", "140741.927500", "140743.417500", "140744.907500", "140746.397500", "140747.887500", "140749.377500", "140750.867500", "140752.357500", "140753.847500", "140755.337500", "140756.827500", "140758.317500", "140759.807500", "140801.297500", "140802.787500", "140804.277500", "140805.767500", "140807.257500", "140808.747500", "140810.237500", "140811.727500", "140813.217500", "140814.707500", "140816.197500", "140817.687500", "140819.177500", "140820.667500", "140822.157500", "140823.647500", "140825.137500", "140826.627500", "140828.117500", "140829.607500", "140831.097500", "140832.587500", "140834.077500", "140835.567500", "140837.057500", "140838.547500", "140840.037500", "140841.527500", "140843.017500", "140844.507500", "140845.997500", "140847.487500", "140848.977500", "140850.467500", "140851.957500", "140853.447500", "140854.937500", "140856.427500", "140857.917500", "140859.407500", "140900.897500", "140902.387500", "140903.877500", "140905.367500", "140906.857500", "140908.347500", "140909.837500", "140911.327500", "140912.817500", "140914.307500", "140915.797500", "140917.287500", "140918.777500", "140920.267500", "140921.757500", "140923.247500", "140924.737500", "140926.227500", "140927.717500", "140929.207500", "140930.697500", "140932.187500", "140933.677500", "140935.167500", "140936.657500", "140938.147500", "140939.637500", "140941.127500", "140942.617500", "140944.107500", "140945.597500", "140947.087500", "140948.577500", "140950.067500", "140951.557500", "140953.047500", "140954.537500", "140956.027500", "140957.517500", "140959.007500"],
      "ContentTime": ["140642.383000", "140642.387000", "140642.390000", "140642.394000", "140642.397000", "140642.400000", "140642.417000", "140642.420000", "140642.423000", "140642.426000", "140642.430000", "140642.434000", "140642.437000", "140642.440000", "140642.444000", "140642.447000", "140642.450000", "140642.454000", "140642.457000", "140642.460000", "140642.463000", "140642.467000", "140642.470000", "140642.473000", "140642.492000", "140642.495000", "140642.499000", "140642.502000", "140642.505000", "140642.508000", "140642.512000", "140642.515000", "140642.518000", "140642.522000", "140642.525000", "140642.528000", "140642.532000", "140642.535000", "140642.538000", "140702.347000", "140702.351000", "140702.354000", "140702.357000", "140702.361000", "140702.364000", "140702.367000", "140702.370000", "140702.374000", "140702.377000", "140702.380000", "140702.384000", "140702.387000", "140702.390000", "140702.394000", "140702.397000", "140702.400000", "140702.403000", "140702.407000", "140702.410000", "140722.347000", "140722.351000", "140722.354000", "140722.357000", "140722.361000", "140722.364000", "140722.367000", "140722.370000", "140722.374000", "140722.377000", "140722.380000", "140722.384000", "140722.387000", "140722.390000", "140722.393000", "140722.397000", "140722.400000", "140722.403000", "140722.407000", "140722.410000", "140802.347000", "140802.351000", "140802.354000", "140802.357000", "140802.361000", "140802.364000", "140802.367000", "140802.371000", "140802.374000", "140802.377000", "140802.380000", "140802.384000", "140802.387000", "140802.390000", "140802.394000", "140802.397000", "140802.400000", "140802.403000", "140802.407000", "140802.410000", "140802.413000", "140802.417000", "140802.420000", "140802.423000", "140802.426000", "140802.430000", "140802.433000", "140802.436000", "140802.439000", "140802.443000", "140802.446000", "140802.449000", "140802.453000", "140842.347000", "140842.351000", "140842.354000", "140842.357000", "140842.361000", "140842.364000", "140842.367000", "140842.371000", "140842.374000", "140842.377000", "140842.381000", "140842.384000", "140842.387000", "140842.391000", "140842.394000", "140842.398000", "140842.401000", "140842.404000", "140842.407000", "140842.411000", "140842.414000", "140842.417000", "140842.421000", "140842.424000", "140842.427000", "140842.431000", "140922.347000", "140922.351000", "140922.354000", "140922.357000", "140922.361000", "140922.364000", "140922.367000", "140922.371000", "140922.374000", "140922.377000", "140922.380000", "140922.384000", "140922.387000", "140922.390000", "140922.394000", "140922.397000", "140922.400000", "140922.404000", "140922.407000", "140922.410000", "140922.414000", "140922.417000", "140922.420000", "140922.423000", "140922.427000", "140922.430000", "140922.433000", "141001.767000", "141001.770000", "141001.774000", "141001.777000", "141001.780000", "141001.784000", "141001.787000", "141001.790000", "141001.794000", "141001.797000", "141001.800000", "141001.804000", "141001.807000", "141001.810000", "141001.814000", "141001.817000", "141001.820000", "141001.824000", "141001.827000", "141001.830000", "141001.834000", "141001.837000", "141001.840000", "141001.844000", "141001.847000", "141001.851000", "141001.854000"],
      "InstanceCreationTime": ["140642.383000", "140642.387000", "140642.390000", "140642.394000", "140642.397000", "140642.400000", "140642.417000", "140642.420000", "140642.423000", "140642.426000", "140642.430000", "140642.434000", "140642.437000", "140642.440000", "140642.444000", "140642.447000", "140642.450000", "140642.454000", "140642.457000", "140642.460000", "140642.463000", "140642.467000", "140642.470000", "140642.473000", "140642.492000", "140642.495000", "140642.499000", "140642.502000", "140642.505000", "140642.508000", "140642.512000", "140642.515000", "140642.518000", "140642.522000", "140642.525000", "140642.528000", "140642.532000", "140642.535000", "140642.538000", "140702.347000", "140702.351000", "140702.354000", "140702.357000", "140702.361000", "140702.364000", "140702.367000", "140702.370000", "140702.374000", "140702.377000", "140702.380000", "140702.384000", "140702.387000", "140702.390000", "140702.394000", "140702.397000", "140702.400000", "140702.403000", "140702.407000", "140702.410000", "140722.347000", "140722.351000", "140722.354000", "140722.357000", "140722.361000", "140722.364000", "140722.367000", "140722.370000", "140722.374000", "140722.377000", "140722.380000", "140722.384000", "140722.387000", "140722.390000", "140722.393000", "140722.397000", "140722.400000", "140722.403000", "140722.407000", "140722.410000", "140802.347000", "140802.351000", "140802.354000", "140802.357000", "140802.361000", "140802.364000", "140802.367000", "140802.371000", "140802.374000", "140802.377000", "140802.380000", "140802.384000", "140802.387000", "140802.390000", "140802.394000", "140802.397000", "140802.400000", "140802.403000", "140802.407000", "140802.410000", "140802.413000", "140802.417000", "140802.420000", "140802.423000", "140802.426000", "140802.430000", "140802.433000", "140802.436000", "140802.439000", "140802.443000", "140802.446000", "140802.449000", "140802.453000", "140842.347000", "140842.351000", "140842.354000", "140842.357000", "140842.361000", "140842.364000", "140842.367000", "140842.371000", "140842.374000", "140842.377000", "140842.381000", "140842.384000", "140842.387000", "140842.391000", "140842.394000", "140842.398000", "140842.401000", "140842.404000", "140842.407000", "140842.411000", "140842.414000", "140842.417000", "140842.421000", "140842.424000", "140842.427000", "140842.431000", "140922.347000", "140922.351000", "140922.354000", "140922.357000", "140922.361000", "140922.364000", "140922.367000", "140922.371000", "140922.374000", "140922.377000", "140922.380000", "140922.384000", "140922.387000", "140922.390000", "140922.394000", "140922.397000", "140922.400000", "140922.404000", "140922.407000", "140922.410000", "140922.414000", "140922.417000", "140922.420000", "140922.423000", "140922.427000", "140922.430000", "140922.433000", "141001.767000", "141001.770000", "141001.774000", "141001.777000", "141001.780000", "141001.784000", "141001.787000", "141001.790000", "141001.794000", "141001.797000", "141001.800000", "141001.804000", "141001.807000", "141001.810000", "141001.814000", "141001.817000", "141001.820000", "141001.824000", "141001.827000", "141001.830000", "141001.834000", "141001.837000", "141001.840000", "141001.844000", "141001.847000", "141001.851000", "141001.854000"],
      "InstanceNumber": [1, 2, 3, 4, 5, 6, 7, 8, 9, 10, 11, 12, 13, 14, 15, 16, 17, 18, 19, 20, 21, 22, 23, 24, 25, 26, 27, 28, 29, 30, 31, 32, 33, 34, 35, 36, 37, 38, 39, 40, 41, 42, 43, 44, 45, 46, 47, 48, 49, 50, 51, 52, 53, 54, 55, 56, 57, 58, 59, 60, 61, 62, 63, 64, 65, 66, 67, 68, 69, 70, 71, 72, 73, 74, 75, 76, 77, 78, 79, 80, 81, 82, 83, 84, 85, 86, 87, 88, 89, 90, 91, 92, 93, 94, 95, 96, 97, 98, 99, 100, 101, 102, 103, 104, 105, 106, 107, 108, 109, 110, 111, 112, 113, 114, 115, 116, 117, 118, 119, 120, 121, 122, 123, 124, 125, 126, 127, 128, 129, 130, 131, 132, 133, 134, 135, 136, 137, 138, 139, 140, 141, 142, 143, 144, 145, 146, 147, 148, 149, 150, 151, 152, 153, 154, 155, 156, 157, 158, 159, 160, 161, 162, 163, 164, 165, 166, 167, 168, 169, 170, 171, 172, 173, 174, 175, 176, 177, 178, 179, 180, 181, 182, 183, 184, 185, 186, 187, 188, 189, 190, 191, 192],
      "LargestImagePixelValue": [41611, 40829, 40315, 39354, 39747, 39586, 40040, 39063, 38518, 38776, 38524, 39183, 39000, 38649, 38662, 38710, 38845, 38777, 39513, 38857, 39121, 38809, 38614, 38878, 38758, 38663, 38939, 38810, 38663, 38751, 39094, 38750, 38971, 38894, 39570, 39192, 39400, 39558, 39352, 39165, 39059, 38745, 38920, 38709, 39079, 39441, 39221, 38857, 39172, 39473, 39670, 39448, 39400, 38966, 39504, 39439, 39663, 39448, 39691, 39207, 39505, 39456, 39443, 39438, 39755, 39251, 39757, 39218, 38779, 39008, 39338, 39545, 40026, 38934, 39478, 39390, 39684, 39550, 40049, 39537, 39789, 40010, 39629, 39829, 39515, 39140, 39134, 38850, 38832, 38898, 39185, 39608, 39397, 38963, 38973, 39216, 39348, 39557, 39081, 39048, 39040, 39218, 39385, 39647, 39295, 39065, 38920, 39394, 39206, 38949, 38868, 39003, 38873, 39567, 39666, 39290, 39468, 39305, 39396, 39054, 39106, 39286, 39201, 39110, 38980, 39254, 39723, 39225, 39212, 38974, 38806, 38854, 39498, 39296, 38811, 38880, 38785, 38741, 38749, 38953, 38449, 38415, 38405, 38291, 38615, 38350, 38138, 38319, 38472, 39868, 39092, 39280, 39006, 39578, 39411, 39526, 39149, 38843, 38707, 38458, 39197, 38807, 38829, 39067, 39351, 39153, 39205, 39166, 38535, 38928, 39002, 38985, 39424, 39383, 38987, 39344, 38545, 39205, 39165, 39122, 38967, 38587, 38597, 39103, 38632, 38516, 38680, 38073, 39122, 39038, 38749, 38954],
      "WindowCenter": [10096.0, 10067.0, 10040.0, 10008.0, 10002.0, 9991.0, 10020.0, 10022.0, 10046.0, 10037.0, 10037.0, 10044.0, 10053.0, 10048.0, 10031.0, 10021.0, 10019.0, 10019.0, 10026.0, 10023.0, 10012.0, 9993.0, 9977.0, 9989.0, 10000.0, 10016.0, 10026.0, 10019.0, 10007.0, 10031.0, 10028.0, 10032.0, 10021.0, 10012.0, 10000.0, 9999.0, 9998.0, 10019.0, 10051.0, 10063.0, 10041.0, 10040.0, 10045.0, 10033.0, 10022.0, 10011.0, 9992.0, 9970.0, 9983.0, 9974.0, 9986.0, 9990.0, 10017.0, 10027.0, 10036.0, 10033.0, 10024.0, 10024.0, 10032.0, 10020.0, 10017.0, 10018.0, 10025.0, 10026.0, 10033.0, 10015.0, 10031.0, 10022.0, 10017.0, 10008.0, 9979.0, 9982.0, 9998.0, 9997.0, 9987.0, 9978.0, 9984.0, 9975.0, 10017.0, 9995.0, 10017.0, 9989.0, 9982.0, 9995.0, 9997.0, 9991.0, 9991.0, 9991.0, 9988.0, 10009.0, 10002.0, 9963.0, 10065.0, 9983.0, 9994.0, 10001.0, 10000.0, 9997.0, 10010.0, 10019.0, 10019.0, 10008.0, 10000.0, 10024.0, 10025.0, 10028.0, 10018.0, 10022.0, 10035.0, 10027.0, 10029.0, 10034.0, 10028.0, 10014.0, 10015.0, 10005.0, 10014.0, 10032.0, 10043.0, 10036.0, 10026.0, 10016.0, 10021.0, 10024.0, 10016.0, 10016.0, 10011.0, 10030.0, 10034.0, 10025.0, 9993.0, 9990.0, 10002.0, 10019.0, 10005.0, 10002.0, 10000.0, 9990.0, 9980.0, 9979.0, 9986.0, 9999.0, 10008.0, 10000.0, 10006.0, 9968.0, 9969.0, 9980.0, 9959.0, 10037.0, 10031.0, 10010.0, 9985.0, 9987.0, 9989.0, 10005.0, 10009.0, 10010.0, 10001.0, 9995.0, 10024.0, 10020.0, 10004.0, 10009.0, 10007.0, 10015.0, 10022.0, 10027.0, 10027.0, 10031.0, 10018.0, 10007.0, 10012.0, 10010.0, 10013.0, 10017.0, 9994.0, 9987.0, 9997.0, 9965.0, 9972.0, 9957.0, 9948.0, 9951.0, 9926.0, 9950.0, 9968.0, 9974.0, 9996.0, 10012.0, 10008.0, 10035.0],
      "WindowWidth": [21518.0, 21430.0, 21358.0, 21280.0, 21259.0, 21232.0, 21296.0, 21304.0, 21360.0, 21337.0, 21338.0, 21354.0, 21378.0, 21367.0, 21327.0, 21299.0, 21295.0, 21296.0, 21311.0, 21307.0, 21277.0, 21235.0, 21201.0, 21229.0, 21255.0, 21289.0, 21313.0, 21299.0, 21271.0, 21329.0, 21318.0, 21329.0, 21299.0, 21278.0, 21248.0, 21249.0, 21246.0, 21287.0, 21365.0, 21395.0, 21349.0, 21341.0, 21352.0, 21327.0, 21303.0, 21271.0, 21228.0, 21183.0, 21209.0, 21188.0, 21211.0, 21224.0, 21285.0, 21310.0, 21329.0, 21323.0, 21300.0, 21301.0, 21317.0, 21295.0, 21288.0, 21291.0, 21303.0, 21306.0, 21323.0, 21284.0, 21320.0, 21299.0, 21288.0, 21270.0, 21200.0, 21205.0, 21241.0, 21246.0, 21222.0, 21200.0, 21209.0, 21192.0, 21289.0, 21235.0, 21292.0, 21227.0, 21211.0, 21239.0, 21244.0, 21230.0, 21233.0, 21231.0, 21225.0, 21274.0, 21258.0, 21165.0, 21411.0, 21213.0, 21237.0, 21252.0, 21249.0, 21240.0, 21275.0, 21295.0, 21295.0, 21270.0, 21252.0, 21302.0, 21307.0, 21316.0, 21294.0, 21299.0, 21331.0, 21313.0, 21323.0, 21329.0, 21318.0, 21281.0, 21287.0, 21263.0, 21284.0, 21325.0, 21352.0, 21336.0, 21315.0, 21289.0, 21301.0, 21311.0, 21290.0, 21292.0, 21274.0, 21320.0, 21332.0, 21311.0, 21239.0, 21232.0, 21255.0, 21294.0, 21267.0, 21258.0, 21257.0, 21232.0, 21207.0, 21207.0, 21224.0, 21255.0, 21276.0, 21256.0, 21272.0, 21187.0, 21186.0, 21214.0, 21170.0, 21334.0, 21324.0, 21271.0, 21217.0, 21219.0, 21227.0, 21265.0, 21276.0, 21276.0, 21252.0, 21241.0, 21306.0, 21300.0, 21267.0, 21275.0, 21270.0, 21288.0, 21303.0, 21319.0, 21317.0, 21321.0, 21295.0, 21270.0, 21284.0, 21278.0, 21284.0, 21289.0, 21243.0, 21219.0, 21246.0, 21174.0, 21194.0, 21157.0, 21135.0, 21145.0, 21094.0, 21145.0, 21188.0, 21207.0, 21253.0, 21291.0, 21284.0, 21342.0]
    },
    "slices": {}
  }
}