{
  "AcquisitionMatrixPE": 104,
  "AcquisitionNumber": 1,
  "AcquisitionTime": "11:32:7.627500",
  "BandwidthPerPixelPhaseEncode": 17.17,
  "BaseResolution": 104,
  "BodyPartExamined": "BRAIN",
  "CoilCombinationMethod": "Sum of Squares",
  "ConsistencyInfo": "N4_VE11C_LATEST_20160120",
  "ConversionSoftware": "dcm2niix",
  "ConversionSoftwareVersion": "v1.0.20211006",
  "DerivedVendorReportedEchoSpacing": 0.000560011,
  "DeviceSerialNumber": "167006",
  "DwellTime": 2.1e-06,
  "EchoTime": 0.037,
  "EchoTime1": 0.037,
  "EchoTime2": 0.001,
  "EchoTrainLength": 104,
  "EffectiveEchoSpacing": 0.000560011,
  "FlipAngle": 52,
  "HeudiconvVersion": "0.11.3.post9+gc939bf8",
  "ImageComments": "Unaliased MB4/PE3/LB",
  "ImageOrientationPatientDICOM": [0.999639, 0.00809724, 0.0256353, 0.00662989, 0.849859, -0.526969],
  "ImageOrientationText": "Tra>Cor(-31.8)>Sag(1.5)",
  "ImageType": [
    "ORIGINAL",
    "PRIMARY",
    "P",
    "MB",
    "ND",
    "MOSAIC",
    "PHASE"
],
  "ImagingFrequency": 123.259,
  "InPlanePhaseEncodingDirectionDICOM": "COL",
  "InstitutionAddress": "Chemin Queen-Mary 4565,Montreal,District,CA,H3W 1W5",
  "InstitutionName": "IUGM",
  "InstitutionalDepartmentName": "Department",
  "MRAcquisitionType": "2D",
  "MagneticFieldStrength": 3,
  "Manufacturer": "Siemens",
  "ManufacturersModelName": "Prisma_fit",
  "MatrixCoilMode": "SENSE",
  "Modality": "MR",
  "MultibandAccelerationFactor": 4,
  "PartialFourier": 1,
  "PatientPosition": "HFS",
  "PercentPhaseFOV": 100,
  "PercentSampling": 100,
  "PhaseEncodingDirection": "j",
  "PhaseEncodingSteps": 104,
  "PhaseResolution": 1,
  "PixelBandwidth": 2290,
  "ProcedureStepDescription": "games^mariostars",
  "ProtocolName": "func_task-mariostars_run-04",
  "PulseSequenceDetails": "%CustomerSeq%\\cmrr_mbep2d_bold",
  "ReceiveCoilActiveElements": "HC1-7;NC1,2",
  "ReceiveCoilName": "HeadNeck_64",
  "ReconMatrixPE": 104,
  "RepetitionTime": 1.49,
  "SAR": 0.0653482,
  "ScanOptions": "FS",
  "ScanningSequence": "EP",
  "SequenceName": "epfid2d1_104",
  "SequenceVariant": "SK\\SS",
  "SeriesDescription": "func_task-mariostars_run-04",
  "SeriesNumber": 20,
  "ShimSetting": [625, -7185, -8857, 269, 17, -159, -28, 0],
  "SliceThickness": 2,
  "SliceTiming": [0, 0.7825, 0.0975, 0.88, 0.195, 0.98, 0.2925, 1.0775, 0.39, 1.175, 0.49, 1.2725, 0.5875, 1.37, 0.685, 0, 0.7825, 0.0975, 0.88, 0.195, 0.98, 0.2925, 1.0775, 0.39, 1.175, 0.49, 1.2725, 0.5875, 1.37, 0.685, 0, 0.7825, 0.0975, 0.88, 0.195, 0.98, 0.2925, 1.0775, 0.39, 1.175, 0.49, 1.2725, 0.5875, 1.37, 0.685, 0, 0.7825, 0.0975, 0.88, 0.195, 0.98, 0.2925, 1.0775, 0.39, 1.175, 0.49, 1.2725, 0.5875, 1.37, 0.685],
  "SoftwareVersions": "syngo MR E11",
  "SpacingBetweenSlices": 2,
  "StationName": "MRC35049",
  "TaskName": "mariostars",
  "TotalReadoutTime": 0.0576811,
  "TxRefAmp": 306.292,
  "WipMemBlock": "b6bd1edd-3cbf-40c4-a966-19634a1b2f80||Sequence: R016 ve11c/master r/e634e98; Dec 19 2017 11:00:25 by eja",
  "dcmmeta_affine": [
    [-1.999277114868164, 0.013259789906442165, 0.05210680514574051, 106.03789520263672],
    [-0.01619448885321617, 1.69971764087677, -1.0538963079452515, -47.889671325683594],
    [0.05127064883708954, 1.053937315940857, 1.6989959478378296, -92.2049789428711],
    [0.0, 0.0, 0.0, 1.0]
],
  "dcmmeta_reorient_transform": [
    [0.0, -1.0, 0.0, 103.0],
    [1.0, 0.0, 0.0, 0.0],
    [0.0, 0.0, 1.0, 0.0],
    [0.0, 0.0, 0.0, 1.0]
],
  "dcmmeta_shape": [104, 104, 60, 449],
  "dcmmeta_slice_dim": 2,
  "dcmmeta_version": 0.6,
  "global": {
    "const": {
      "AcquisitionMatrix": [104, 0, 0, 104],
      "AngioFlag": "N",
      "BitsAllocated": 16,
      "BitsStored": 16,
      "BodyPartExamined": "BRAIN",
      "Columns": 832,
      "EchoNumbers": 1,
      "EchoTime": 37.0,
      "EchoTrainLength": 104,
      "FlipAngle": 52.0,
      "HighBit": 15,
      "ImageOrientationPatient": [0.99963856706165, 0.00809724436027, 0.02563532478263, 0.00662989489624, 0.8498588419423, -0.5269686833828],
      "ImagePositionPatient": [-839.96709341362, -751.77327926394, 381.32125697372],
      "ImageType": [
        "ORIGINAL",
        "PRIMARY",
        "P",
        "MB",
        "ND",
        "MOSAIC"
],
      "ImagedNucleus": "1H",
      "ImagingFrequency": 123.258523,
      "InPlanePhaseEncodingDirection": "COL",
      "LargestImagePixelValue": 4095,
      "MRAcquisitionType": "2D",
      "MagneticFieldStrength": 3.0,
      "Manufacturer": "SIEMENS",
      "ManufacturerModelName": "Prisma_fit",
      "Modality": "MR",
      "NumberOfAverages": 1.0,
      "NumberOfPhaseEncodingSteps": 104,
      "PercentPhaseFieldOfView": 100.0,
      "PercentSampling": 100.0,
      "PerformedProcedureStepStartTime": "102520.847000",
      "PhotometricInterpretation": "MONOCHROME2",
      "PixelBandwidth": 2290.0,
      "PixelRepresentation": 0,
      "PixelSpacing": [2.0, 2.0],
      "ProtocolName": "func_task-mariostars_run-04",
      "RepetitionTime": 1490.0,
      "RescaleIntercept": -4096.0,
      "RescaleSlope": 2.0,
      "RescaleType": "US",
      "Rows": 832,
      "SAR": 0.06534816640396,
      "SamplesPerPixel": 1,
      "ScanOptions": "FS",
      "ScanningSequence": "EP",
      "SequenceName": "epfid2d1_104",
      "SequenceVariant": [
        "SK",
        "SS"
],
      "SeriesDescription": "func_task-mariostars_run-04",
      "SeriesNumber": 20,
      "SeriesTime": "113333.077000",
      "SliceLocation": -50.329918768524,
      "SliceThickness": 2.0,
      "SmallestImagePixelValue": 0,
      "SoftwareVersions": "syngo MR E11",
      "SpacingBetweenSlices": 2.0000000127801,
      "SpecificCharacterSet": "ISO_IR 100",
      "StudyID": "1",
      "StudyTime": "102520.675000",
      "TransmitCoilName": "Body",
      "VariableFlipAngleFlag": "N",
      "WindowCenterWidthExplanation": "Algo1",
      "dBdt": 0.0},
    "slices": {}
  },
  "time": {
    "samples": {
      "AcquisitionNumber": [1, 2, 3, 4, 5, 6, 7, 8, 9, 10, 11, 12, 13, 14, 15, 16, 17, 18, 19, 20, 21, 22, 23, 24, 25, 26, 27, 28, 29, 30, 31, 32, 33, 34, 35, 36, 37, 38, 39, 40, 41, 42, 43, 44, 45, 46, 47, 48, 49, 50, 51, 52, 53, 54, 55, 56, 57, 58, 59, 60, 61, 62, 63, 64, 65, 66, 67, 68, 69, 70, 71, 72, 73, 74, 75, 76, 77, 78, 79, 80, 81, 82, 83, 84, 85, 86, 87, 88, 89, 90, 91, 92, 93, 94, 95, 96, 97, 98, 99, 100, 101, 102, 103, 104, 105, 106, 107, 108, 109, 110, 111, 112, 113, 114, 115, 116, 117, 118, 119, 120, 121, 122, 123, 124, 125, 126, 127, 128, 129, 130, 131, 132, 133, 134, 135, 136, 137, 138, 139, 140, 141, 142, 143, 144, 145, 146, 147, 148, 149, 150, 151, 152, 153, 154, 155, 156, 157, 158, 159, 160, 161, 162, 163, 164, 165, 166, 167, 168, 169, 170, 171, 172, 173, 174, 175, 176, 177, 178, 179, 180, 181, 182, 183, 184, 185, 186, 187, 188, 189, 190, 191, 192, 193, 194, 195, 196, 197, 198, 199, 200, 201, 202, 203, 204, 205, 206, 207, 208, 209, 210, 211, 212, 213, 214, 215, 216, 217, 218, 219, 220, 221, 222, 223, 224, 225, 226, 227, 228, 229, 230, 231, 232, 233, 234, 235, 236, 237, 238, 239, 240, 241, 242, 243, 244, 245, 246, 247, 248, 249, 250, 251, 252, 253, 254, 255, 256, 257, 258, 259, 260, 261, 262, 263, 264, 265, 266, 267, 268, 269, 270, 271, 272, 273, 274, 275, 276, 277, 278, 279, 280, 281, 282, 283, 284, 285, 286, 287, 288, 289, 290, 291, 292, 293, 294, 295, 296, 297, 298, 299, 300, 301, 302, 303, 304, 305, 306, 307, 308, 309, 310, 311, 312, 313, 314, 315, 316, 317, 318, 319, 320, 321, 322, 323, 324, 325, 326, 327, 328, 329, 330, 331, 332, 333, 334, 335, 336, 337, 338, 339, 340, 341, 342, 343, 344, 345, 346, 347, 348, 349, 350, 351, 352, 353, 354, 355, 356, 357, 358, 359, 360, 361, 362, 363, 364, 365, 366, 367, 368, 369, 370, 371, 372, 373, 374, 375, 376, 377, 378, 379, 380, 381, 382, 383, 384, 385, 386, 387, 388, 389, 390, 391, 392, 393, 394, 395, 396, 397, 398, 399, 400, 401, 402, 403, 404, 405, 406, 407, 408, 409, 410, 411, 412, 413, 414, 415, 416, 417, 418, 419, 420, 421, 422, 423, 424, 425, 426, 427, 428, 429, 430, 431, 432, 433, 434, 435, 436, 437, 438, 439, 440, 441, 442, 443, 444, 445, 446, 447, 448, 449],
      "AcquisitionTime": ["113207.627500", "113209.117500", "113210.607500", "113212.097500", "113213.587500", "113215.077500", "113216.567500", "113218.057500", "113219.547500", "113221.037500", "113222.527500", "113224.017500", "113225.507500", "113226.997500", "113228.487500", "113229.977500", "113231.467500", "113232.957500", "113234.447500", "113235.937500", "113237.427500", "113238.917500", "113240.407500", "113241.897500", "113243.387500", "113244.877500", "113246.367500", "113247.857500", "113249.347500", "113250.837500", "113252.327500", "113253.817500", "113255.307500", "113256.797500", "113258.287500", "113259.777500", "113301.267500", "113302.757500", "113304.247500", "113305.737500", "113307.227500", "113308.717500", "113310.207500", "113311.697500", "113313.187500", "113314.677500", "113316.167500", "113317.657500", "113319.147500", "113320.637500", "113322.127500", "113323.617500", "113325.107500", "113326.597500", "113328.087500", "113329.577500", "113331.067500", "113332.557500", "113334.047500", "113335.537500", "113337.027500", "113338.517500", "113340.007500", "113341.497500", "113342.987500", "113344.477500", "113345.967500", "113347.457500", "113348.947500", "113350.437500", "113351.927500", "113353.417500", "113354.907500", "113356.397500", "113357.887500", "113359.377500", "113400.867500", "113402.357500", "113403.847500", "113405.337500", "113406.827500", "113408.317500", "113409.807500", "113411.297500", "113412.787500", "113414.277500", "113415.767500", "113417.257500", "113418.747500", "113420.237500", "113421.727500", "113423.217500", "113424.707500", "113426.197500", "113427.687500", "113429.177500", "113430.667500", "113432.157500", "113433.647500", "113435.137500", "113436.627500", "113438.117500", "113439.607500", "113441.097500", "113442.587500", "113444.077500", "113445.567500", "113447.057500", "113448.547500", "113450.037500", "113451.527500", "113453.017500", "113454.507500", "113455.997500", "113457.487500", "113458.977500", "113500.467500", "113501.957500", "113503.447500", "113504.937500", "113506.427500", "113507.917500", "113509.407500", "113510.897500", "113512.387500", "113513.877500", "113515.367500", "113516.857500", "113518.347500", "113519.837500", "113521.327500", "113522.817500", "113524.307500", "113525.797500", "113527.287500", "113528.777500", "113530.267500", "113531.757500", "113533.247500", "113534.737500", "113536.227500", "113537.717500", "113539.207500", "113540.697500", "113542.187500", "113543.677500", "113545.167500", "113546.657500", "113548.147500", "113549.637500", "113551.127500", "113552.617500", "113554.107500", "113555.597500", "113557.087500", "113558.577500", "113600.067500", "113601.557500", "113603.047500", "113604.537500", "113606.027500", "113607.517500", "113609.007500", "113610.497500", "113611.987500", "113613.477500", "113614.967500", "113616.457500", "113617.947500", "113619.437500", "113620.927500", "113622.417500", "113623.907500", "113625.397500", "113626.887500", "113628.377500", "113629.867500", "113631.357500", "113632.847500", "113634.337500", "113635.827500", "113637.317500", "113638.807500", "113640.297500", "113641.787500", "113643.277500", "113644.767500", "113646.257500", "113647.747500", "113649.237500", "113650.727500", "113652.217500", "113653.707500", "113655.197500", "113656.687500", "113658.177500", "113659.667500", "113701.157500", "113702.647500", "113704.137500", "113705.627500", "113707.117500", "113708.607500", "113710.097500", "113711.587500", "113713.077500", "113714.567500", "113716.057500", "113717.547500", "113719.037500", "113720.527500", "113722.017500", "113723.507500", "113724.997500", "113726.487500", "113727.977500", "113729.467500", "113730.957500", "113732.447500", "113733.937500", "113735.427500", "113736.917500", "113738.407500", "113739.897500", "113741.387500", "113742.877500", "113744.367500", "113745.857500", "113747.347500", "113748.837500", "113750.327500", "113751.817500", "113753.307500", "113754.797500", "113756.287500", "113757.777500", "113759.267500", "113800.757500", "113802.247500", "113803.737500", "113805.227500", "113806.717500", "113808.207500", "113809.697500", "113811.187500", "113812.677500", "113814.167500", "113815.657500", "113817.147500", "113818.637500", "113820.127500", "113821.617500", "113823.107500", "113824.597500", "113826.087500", "113827.577500", "113829.067500", "113830.557500", "113832.047500", "113833.537500", "113835.027500", "113836.517500", "113838.007500", "113839.497500", "113840.987500", "113842.477500", "113843.967500", "113845.457500", "113846.947500", "113848.437500", "113849.927500", "113851.417500", "113852.907500", "113854.397500", "113855.887500", "113857.377500", "113858.867500", "113900.357500", "113901.847500", "113903.337500", "113904.827500", "113906.317500", "113907.807500", "113909.297500", "113910.787500", "113912.277500", "113913.767500", "113915.257500", "113916.747500", "113918.237500", "113919.727500", "113921.217500", "113922.707500", "113924.197500", "113925.687500", "113927.177500", "113928.667500", "113930.157500", "113931.647500", "113933.137500", "113934.627500", "113936.117500", "113937.607500", "113939.097500", "113940.587500", "113942.077500", "113943.567500", "113945.057500", "113946.547500", "113948.037500", "113949.527500", "113951.017500", "113952.507500", "113953.997500", "113955.487500", "113956.977500", "113958.467500", "113959.957500", "114001.447500", "114002.937500", "114004.427500", "114005.917500", "114007.407500", "114008.897500", "114010.387500", "114011.877500", "114013.367500", "114014.857500", "114016.347500", "114017.837500", "114019.327500", "114020.817500", "114022.307500", "114023.797500", "114025.287500", "114026.777500", "114028.267500", "114029.757500", "114031.247500", "114032.737500", "114034.227500", "114035.717500", "114037.207500", "114038.697500", "114040.187500", "114041.677500", "114043.167500", "114044.657500", "114046.147500", "114047.637500", "114049.127500", "114050.617500", "114052.107500", "114053.597500", "114055.087500", "114056.577500", "114058.067500", "114059.557500", "114101.047500", "114102.537500", "114104.027500", "114105.517500", "114107.007500", "114108.497500", "114109.987500", "114111.477500", "114112.967500", "114114.457500", "114115.947500", "114117.437500", "114118.927500", "114120.417500", "114121.907500", "114123.397500", "114124.887500", "114126.377500", "114127.867500", "114129.357500", "114130.847500", "114132.337500", "114133.827500", "114135.317500", "114136.807500", "114138.297500", "114139.787500", "114141.277500", "114142.767500", "114144.257500", "114145.747500", "114147.237500", "114148.727500", "114150.217500", "114151.707500", "114153.197500", "114154.687500", "114156.177500", "114157.667500", "114159.157500", "114200.647500", "114202.137500", "114203.627500", "114205.117500", "114206.607500", "114208.097500", "114209.587500", "114211.077500", "114212.567500", "114214.057500", "114215.547500", "114217.037500", "114218.527500", "114220.017500", "114221.507500", "114222.997500", "114224.487500", "114225.977500", "114227.467500", "114228.957500", "114230.447500", "114231.937500", "114233.427500", "114234.917500", "114236.407500", "114237.897500", "114239.387500", "114240.877500", "114242.367500", "114243.857500", "114245.347500", "114246.837500", "114248.327500", "114249.817500", "114251.307500", "114252.797500", "114254.287500", "114255.777500", "114257.267500", "114258.757500", "114300.247500", "114301.737500", "114303.227500", "114304.717500", "114306.207500", "114307.697500", "114309.187500", "114310.677500", "114312.167500", "114313.657500", "114315.147500"],
      "ContentTime": ["113333.079000", "113333.082000", "113333.084000", "113333.087000", "113333.089000", "113333.092000", "113333.094000", "113333.097000", "113333.099000", "113333.102000", "113333.104000", "113333.107000", "113333.109000", "113333.112000", "113333.114000", "113333.131000", "113333.134000", "113333.136000", "113333.139000", "113333.141000", "113333.144000", "113333.146000", "113333.149000", "113333.151000", "113333.154000", "113333.156000", "113333.159000", "113333.161000", "113333.164000", "113333.166000", "113333.169000", "113333.171000", "113352.990000", "113352.993000", "113352.995000", "113352.998000", "113353.002000", "113353.004000", "113353.006000", "113353.009000", "113353.011000", "113353.014000", "113353.016000", "113353.019000", "113353.022000", "113353.024000", "113353.027000", "113353.029000", "113353.031000", "113353.034000", "113353.036000", "113353.039000", "113412.989000", "113412.992000", "113412.994000", "113412.997000", "113413.000000", "113413.003000", "113413.005000", "113413.008000", "113413.010000", "113413.013000", "113413.015000", "113413.018000", "113413.020000", "113413.023000", "113413.025000", "113413.028000", "113413.031000", "113413.034000", "113413.037000", "113413.039000", "113433.006000", "113433.008000", "113433.011000", "113433.013000", "113433.016000", "113433.018000", "113433.021000", "113433.023000", "113433.026000", "113433.028000", "113433.031000", "113433.033000", "113433.036000", "113433.039000", "113433.041000", "113433.044000", "113433.046000", "113433.049000", "113433.051000", "113433.054000", "113433.056000", "113513.031000", "113513.034000", "113513.036000", "113513.040000", "113513.042000", "113513.045000", "113513.047000", "113513.050000", "113513.052000", "113513.055000", "113513.057000", "113513.060000", "113513.062000", "113513.065000", "113513.067000", "113513.070000", "113513.072000", "113513.075000", "113513.077000", "113513.080000", "113513.082000", "113513.085000", "113513.087000", "113513.090000", "113513.092000", "113513.095000", "113513.097000", "113513.100000", "113513.102000", "113513.105000", "113513.107000", "113553.005000", "113553.010000", "113553.013000", "113553.016000", "113553.019000", "113553.021000", "113553.024000", "113553.027000", "113553.029000", "113553.032000", "113553.034000", "113553.037000", "113553.039000", "113553.042000", "113553.045000", "113553.047000", "113553.050000", "113553.052000", "113553.055000", "113553.057000", "113553.059000", "113553.062000", "113553.064000", "113553.067000", "113553.070000", "113553.072000", "113612.957000", "113612.960000", "113612.962000", "113612.965000", "113612.968000", "113612.970000", "113612.973000", "113612.975000", "113612.978000", "113612.980000", "113612.983000", "113612.985000", "113612.988000", "113612.990000", "113653.022000", "113653.025000", "113653.028000", "113653.030000", "113653.033000", "113653.035000", "113653.038000", "113653.040000", "113653.043000", "113653.045000", "113653.048000", "113653.050000", "113653.053000", "113653.055000", "113653.058000", "113653.060000", "113653.063000", "113653.066000", "113653.068000", "113653.071000", "113653.073000", "113653.076000", "113653.078000", "113653.081000", "113653.083000", "113653.086000", "113653.088000", "113733.030000", "113733.033000", "113733.035000", "113733.038000", "113733.040000", "113733.043000", "113733.045000", "113733.048000", "113733.050000", "113733.053000", "113733.055000", "113733.058000", "113733.060000", "113733.063000", "113733.065000", "113733.068000", "113733.070000", "113733.073000", "113733.075000", "113733.078000", "113733.080000", "113733.083000", "113733.086000", "113733.088000", "113733.091000", "113733.093000", "113733.096000", "113813.016000", "113813.018000", "113813.021000", "113813.023000", "113813.026000", "113813.029000", "113813.031000", "113813.034000", "113813.036000", "113813.040000", "113813.043000", "113813.045000", "113813.048000", "113813.051000", "113813.054000", "113813.059000", "113813.062000", "113813.078000", "113813.081000", "113813.083000", "113813.086000", "113813.088000", "113813.091000", "113813.094000", "113813.096000", "113813.099000", "113853.035000", "113853.038000", "113853.040000", "113853.043000", "113853.045000", "113853.048000", "113853.050000", "113853.053000", "113853.055000", "113853.058000", "113853.060000", "113853.063000", "113853.065000", "113853.067000", "113853.070000", "113853.073000", "113853.075000", "113853.078000", "113853.080000", "113853.083000", "113853.085000", "113853.088000", "113853.090000", "113853.093000", "113853.095000", "113853.098000", "113853.100000", "113933.020000", "113933.023000", "113933.025000", "113933.028000", "113933.030000", "113933.033000", "113933.035000", "113933.038000", "113933.040000", "113933.043000", "113933.045000", "113933.048000", "113933.050000", "113933.053000", "113933.055000", "113933.058000", "113933.060000", "113933.063000", "113933.066000", "113933.068000", "113933.071000", "113933.073000", "113933.076000", "113933.078000", "113933.081000", "113933.089000", "113933.092000", "114013.023000", "114013.026000", "114013.028000", "114013.031000", "114013.033000", "114013.036000", "114013.038000", "114013.041000", "114013.044000", "114013.046000", "114013.049000", "114013.051000", "114013.054000", "114013.056000", "114013.059000", "114013.061000", "114013.064000", "114013.066000", "114013.069000", "114013.071000", "114013.074000", "114013.077000", "114013.079000", "114013.082000", "114013.084000", "114013.087000", "114013.089000", "114053.020000", "114053.022000", "114053.025000", "114053.027000", "114053.030000", "114053.032000", "114053.035000", "114053.037000", "114053.040000", "114053.042000", "114053.045000", "114053.048000", "114053.051000", "114053.053000", "114053.056000", "114053.058000", "114053.061000", "114053.063000", "114053.066000", "114053.068000", "114053.071000", "114053.073000", "114053.076000", "114053.079000", "114053.081000", "114053.084000", "114053.086000", "114133.039000", "114133.042000", "114133.044000", "114133.047000", "114133.049000", "114133.052000", "114133.054000", "114133.057000", "114133.060000", "114133.062000", "114133.065000", "114133.067000", "114133.070000", "114133.072000", "114133.075000", "114133.077000", "114133.080000", "114133.082000", "114133.085000", "114133.087000", "114133.090000", "114133.092000", "114133.095000", "114133.097000", "114133.100000", "114133.103000", "114133.105000", "114213.030000", "114213.033000", "114213.035000", "114213.038000", "114213.040000", "114213.043000", "114213.046000", "114213.048000", "114213.051000", "114213.053000", "114213.056000", "114213.058000", "114213.061000", "114213.063000", "114213.066000", "114213.068000", "114213.071000", "114213.073000", "114213.076000", "114213.078000", "114213.081000", "114213.083000", "114213.086000", "114213.088000", "114213.091000", "114213.094000", "114253.011000", "114253.014000", "114253.016000", "114253.019000", "114253.021000", "114253.024000", "114253.026000", "114253.029000", "114253.032000", "114253.035000", "114253.037000", "114253.040000", "114253.042000", "114253.045000", "114253.048000", "114253.050000", "114253.053000", "114253.055000", "114253.058000", "114253.060000", "114253.063000", "114253.065000", "114253.068000", "114253.070000", "114253.073000", "114253.075000", "114253.078000", "114317.526000", "114317.529000", "114317.531000", "114317.534000", "114317.536000", "114317.539000", "114317.541000", "114317.544000", "114317.546000", "114317.549000", "114317.552000", "114317.554000", "114317.557000", "114317.559000", "114317.562000", "114317.564000", "114317.567000"],
