{
  "AcquisitionMatrixPE": 104,
  "AcquisitionNumber": 1,
  "AcquisitionTime": "11:19:54.585000",
  "BandwidthPerPixelPhaseEncode": 17.17,
  "BaseResolution": 104,
  "BodyPartExamined": "BRAIN",
  "CoilCombinationMethod": "Sum of Squares",
  "ConsistencyInfo": "N4_VE11C_LATEST_20160120",
  "ConversionSoftware": "dcm2niix",
  "ConversionSoftwareVersion": "v1.0.20211006",
  "DerivedVendorReportedEchoSpacing": 0.000560011,
  "DeviceSerialNumber": "167006",
  "DwellTime": 2.1e-06,
  "EchoTime": 0.037,
  "EchoTrainLength": 104,
  "EffectiveEchoSpacing": 0.000560011,
  "FlipAngle": 52,
  "HeudiconvVersion": "0.11.3.post9+gc939bf8",
  "ImageComments": "Unaliased MB4/PE3/LB",
  "ImageOrientationPatientDICOM": [0.999639, 0.00809724, 0.0256353, 0.00662989, 0.849859, -0.526969],
  "ImageOrientationText": "Tra>Cor(-31.8)>Sag(1.5)",
  "ImageType": [
    "ORIGINAL",
    "PRIMARY",
    "M",
    "MB",
    "ND",
    "MOSAIC"
],
  "ImagingFrequency": 123.259,
  "InPlanePhaseEncodingDirectionDICOM": "COL",
  "InstitutionAddress": "Chemin Queen-Mary 4565,Montreal,District,CA,H3W 1W5",
  "InstitutionName": "IUGM",
  "InstitutionalDepartmentName": "Department",
  "MRAcquisitionType": "2D",
  "MagneticFieldStrength": 3,
  "Manufacturer": "Siemens",
  "ManufacturersModelName": "Prisma_fit",
  "MatrixCoilMode": "SENSE",
  "Modality": "MR",
  "MultibandAccelerationFactor": 4,
  "PartialFourier": 1,
  "PatientPosition": "HFS",
  "PercentPhaseFOV": 100,
  "PercentSampling": 100,
  "PhaseEncodingDirection": "j",
  "PhaseEncodingSteps": 104,
  "PhaseResolution": 1,
  "PixelBandwidth": 2290,
  "ProcedureStepDescription": "games^mariostars",
  "ProtocolName": "func_task-mariostars_run-03",
  "PulseSequenceDetails": "%CustomerSeq%\\cmrr_mbep2d_bold",
  "ReceiveCoilActiveElements": "HC1-7;NC1,2",
  "ReceiveCoilName": "HeadNeck_64",
  "ReconMatrixPE": 104,
  "RepetitionTime": 1.49,
  "SAR": 0.0653482,
  "ScanOptions": "FS",
  "ScanningSequence": "EP",
  "SequenceName": "epfid2d1_104",
  "SequenceVariant": "SK\\SS",
  "SeriesDescription": "func_task-mariostars_run-03",
  "SeriesNumber": 16,
  "ShimSetting": [625, -7185, -8857, 269, 17, -159, -28, 0],
  "SliceThickness": 2,
  "SliceTiming": [0, 0.7825, 0.0975, 0.88, 0.195, 0.98, 0.2925, 1.0775, 0.39, 1.175, 0.49, 1.2725, 0.5875, 1.37, 0.685, 0, 0.7825, 0.0975, 0.88, 0.195, 0.98, 0.2925, 1.0775, 0.39, 1.175, 0.49, 1.2725, 0.5875, 1.37, 0.685, 0, 0.7825, 0.0975, 0.88, 0.195, 0.98, 0.2925, 1.0775, 0.39, 1.175, 0.49, 1.2725, 0.5875, 1.37, 0.685, 0, 0.7825, 0.0975, 0.88, 0.195, 0.98, 0.2925, 1.0775, 0.39, 1.175, 0.49, 1.2725, 0.5875, 1.37, 0.685],
  "SoftwareVersions": "syngo MR E11",
  "SpacingBetweenSlices": 2,
  "StationName": "MRC35049",
  "TaskName": "mariostars",
  "TotalReadoutTime": 0.0576811,
  "TxRefAmp": 306.292,
  "WipMemBlock": "1583c15c-0459-4757-86ba-3f97161d1bcb||Sequence: R016 ve11c/master r/e634e98; Dec 19 2017 11:00:25 by eja",
  "dcmmeta_affine": [
    [-1.999277114868164, 0.013259789906442165, 0.05210680514574051, 106.03789520263672],
    [-0.01619448885321617, 1.69971764087677, -1.0538963079452515, -47.889671325683594],
    [0.05127064883708954, 1.053937315940857, 1.6989959478378296, -92.2049789428711],
    [0.0, 0.0, 0.0, 1.0]
],
  "dcmmeta_reorient_transform": [
    [0.0, -1.0, 0.0, 103.0],
    [1.0, 0.0, 0.0, 0.0],
    [0.0, 0.0, 1.0, 0.0],
    [0.0, 0.0, 0.0, 1.0]
],
  "dcmmeta_shape": [104, 104, 60, 435],
  "dcmmeta_slice_dim": 2,
  "dcmmeta_version": 0.6,
  "global": {
    "const": {
      "AcquisitionMatrix": [104, 0, 0, 104],
      "AngioFlag": "N",
      "BitsAllocated": 16,
      "BitsStored": 16,
      "BodyPartExamined": "BRAIN",
      "Columns": 832,
      "EchoNumbers": 1,
      "EchoTime": 37.0,
      "EchoTrainLength": 104,
      "FlipAngle": 52.0,
      "HighBit": 15,
      "ImageOrientationPatient": [0.99963856706165, 0.00809724436027, 0.02563532478263, 0.00662989489624, 0.8498588419423, -0.5269686833828],
      "ImagePositionPatient": [-839.96709341362, -751.77327926394, 381.32125697372],
      "ImageType": [
        "ORIGINAL",
        "PRIMARY",
        "M",
        "MB",
        "ND",
        "MOSAIC"
],
      "ImagedNucleus": "1H",
      "ImagingFrequency": 123.258517,
      "InPlanePhaseEncodingDirection": "COL",
      "MRAcquisitionType": "2D",
      "MagneticFieldStrength": 3.0,
      "Manufacturer": "SIEMENS",
      "ManufacturerModelName": "Prisma_fit",
      "Modality": "MR",
      "NumberOfAverages": 1.0,
      "NumberOfPhaseEncodingSteps": 104,
      "PercentPhaseFieldOfView": 100.0,
      "PercentSampling": 100.0,
      "PerformedProcedureStepStartTime": "102520.847000",
      "PhotometricInterpretation": "MONOCHROME2",
      "PixelBandwidth": 2290.0,
      "PixelRepresentation": 0,
      "PixelSpacing": [2.0, 2.0],
      "ProtocolName": "func_task-mariostars_run-03",
      "RepetitionTime": 1490.0,
      "Rows": 832,
      "SAR": 0.06534816640396,
      "SamplesPerPixel": 1,
      "ScanOptions": "FS",
      "ScanningSequence": "EP",
      "SequenceName": "epfid2d1_104",
      "SequenceVariant": [
        "SK",
        "SS"
],
      "SeriesDescription": "func_task-mariostars_run-03",
      "SeriesNumber": 16,
      "SeriesTime": "112115.195000",
      "SliceLocation": -50.329918768524,
      "SliceThickness": 2.0,
      "SmallestImagePixelValue": 0,
      "SoftwareVersions": "syngo MR E11",
      "SpacingBetweenSlices": 2.0000000127801,
      "SpecificCharacterSet": "ISO_IR 100",
      "StudyID": "1",
      "StudyTime": "102520.675000",
      "TransmitCoilName": "Body",
      "VariableFlipAngleFlag": "N",
      "WindowCenterWidthExplanation": "Algo1",
      "dBdt": 0.0},
    "slices": {}
  },
  "time": {
    "samples": {
      "AcquisitionNumber": [1, 2, 3, 4, 5, 6, 7, 8, 9, 10, 11, 12, 13, 14, 15, 16, 17, 18, 19, 20, 21, 22, 23, 24, 25, 26, 27, 28, 29, 30, 31, 32, 33, 34, 35, 36, 37, 38, 39, 40, 41, 42, 43, 44, 45, 46, 47, 48, 49, 50, 51, 52, 53, 54, 55, 56, 57, 58, 59, 60, 61, 62, 63, 64, 65, 66, 67, 68, 69, 70, 71, 72, 73, 74, 75, 76, 77, 78, 79, 80, 81, 82, 83, 84, 85, 86, 87, 88, 89, 90, 91, 92, 93, 94, 95, 96, 97, 98, 99, 100, 101, 102, 103, 104, 105, 106, 107, 108, 109, 110, 111, 112, 113, 114, 115, 116, 117, 118, 119, 120, 121, 122, 123, 124, 125, 126, 127, 128, 129, 130, 131, 132, 133, 134, 135, 136, 137, 138, 139, 140, 141, 142, 143, 144, 145, 146, 147, 148, 149, 150, 151, 152, 153, 154, 155, 156, 157, 158, 159, 160, 161, 162, 163, 164, 165, 166, 167, 168, 169, 170, 171, 172, 173, 174, 175, 176, 177, 178, 179, 180, 181, 182, 183, 184, 185, 186, 187, 188, 189, 190, 191, 192, 193, 194, 195, 196, 197, 198, 199, 200, 201, 202, 203, 204, 205, 206, 207, 208, 209, 210, 211, 212, 213, 214, 215, 216, 217, 218, 219, 220, 221, 222, 223, 224, 225, 226, 227, 228, 229, 230, 231, 232, 233, 234, 235, 236, 237, 238, 239, 240, 241, 242, 243, 244, 245, 246, 247, 248, 249, 250, 251, 252, 253, 254, 255, 256, 257, 258, 259, 260, 261, 262, 263, 264, 265, 266, 267, 268, 269, 270, 271, 272, 273, 274, 275, 276, 277, 278, 279, 280, 281, 282, 283, 284, 285, 286, 287, 288, 289, 290, 291, 292, 293, 294, 295, 296, 297, 298, 299, 300, 301, 302, 303, 304, 305, 306, 307, 308, 309, 310, 311, 312, 313, 314, 315, 316, 317, 318, 319, 320, 321, 322, 323, 324, 325, 326, 327, 328, 329, 330, 331, 332, 333, 334, 335, 336, 337, 338, 339, 340, 341, 342, 343, 344, 345, 346, 347, 348, 349, 350, 351, 352, 353, 354, 355, 356, 357, 358, 359, 360, 361, 362, 363, 364, 365, 366, 367, 368, 369, 370, 371, 372, 373, 374, 375, 376, 377, 378, 379, 380, 381, 382, 383, 384, 385, 386, 387, 388, 389, 390, 391, 392, 393, 394, 395, 396, 397, 398, 399, 400, 401, 402, 403, 404, 405, 406, 407, 408, 409, 410, 411, 412, 413, 414, 415, 416, 417, 418, 419, 420, 421, 422, 423, 424, 425, 426, 427, 428, 429, 430, 431, 432, 433, 434, 435],
      "AcquisitionTime": ["111954.585000", "111956.075000", "111957.565000", "111959.055000", "112000.545000", "112002.035000", "112003.525000", "112005.015000", "112006.505000", "112007.995000", "112009.485000", "112010.975000", "112012.465000", "112013.955000", "112015.445000", "112016.935000", "112018.425000", "112019.915000", "112021.405000", "112022.895000", "112024.385000", "112025.875000", "112027.365000", "112028.855000", "112030.345000", "112031.835000", "112033.325000", "112034.815000", "112036.305000", "112037.795000", "112039.285000", "112040.775000", "112042.265000", "112043.755000", "112045.245000", "112046.735000", "112048.225000", "112049.715000", "112051.205000", "112052.695000", "112054.185000", "112055.675000", "112057.165000", "112058.655000", "112100.145000", "112101.635000", "112103.125000", "112104.615000", "112106.105000", "112107.595000", "112109.085000", "112110.575000", "112112.065000", "112113.555000", "112115.045000", "112116.535000", "112118.025000", "112119.515000", "112121.005000", "112122.495000", "112123.985000", "112125.475000", "112126.965000", "112128.455000", "112129.945000", "112131.435000", "112132.925000", "112134.415000", "112135.905000", "112137.395000", "112138.885000", "112140.375000", "112141.865000", "112143.355000", "112144.845000", "112146.335000", "112147.825000", "112149.315000", "112150.805000", "112152.295000", "112153.785000", "112155.275000", "112156.765000", "112158.255000", "112159.745000", "112201.235000", "112202.725000", "112204.215000", "112205.705000", "112207.195000", "112208.685000", "112210.175000", "112211.665000", "112213.155000", "112214.645000", "112216.135000", "112217.625000", "112219.115000", "112220.605000", "112222.095000", "112223.585000", "112225.075000", "112226.565000", "112228.055000", "112229.545000", "112231.035000", "112232.525000", "112234.015000", "112235.505000", "112236.995000", "112238.485000", "112239.975000", "112241.465000", "112242.955000", "112244.445000", "112245.935000", "112247.425000", "112248.915000", "112250.405000", "112251.895000", "112253.385000", "112254.875000", "112256.365000", "112257.855000", "112259.345000", "112300.835000", "112302.325000", "112303.815000", "112305.305000", "112306.795000", "112308.285000", "112309.775000", "112311.265000", "112312.755000", "112314.245000", "112315.735000", "112317.225000", "112318.715000", "112320.205000", "112321.695000", "112323.185000", "112324.675000", "112326.165000", "112327.655000", "112329.145000", "112330.635000", "112332.125000", "112333.615000", "112335.105000", "112336.595000", "112338.085000", "112339.575000", "112341.065000", "112342.555000", "112344.045000", "112345.535000", "112347.025000", "112348.515000", "112350.005000", "112351.495000", "112352.985000", "112354.475000", "112355.965000", "112357.455000", "112358.945000", "112400.435000", "112401.925000", "112403.415000", "112404.905000", "112406.395000", "112407.885000", "112409.375000", "112410.865000", "112412.355000", "112413.845000", "112415.335000", "112416.825000", "112418.315000", "112419.805000", "112421.295000", "112422.785000", "112424.275000", "112425.765000", "112427.255000", "112428.745000", "112430.235000", "112431.725000", "112433.215000", "112434.705000", "112436.195000", "112437.685000", "112439.175000", "112440.665000", "112442.155000", "112443.645000", "112445.135000", "112446.625000", "112448.115000", "112449.605000", "112451.095000", "112452.585000", "112454.075000", "112455.565000", "112457.055000", "112458.545000", "112500.035000", "112501.525000", "112503.015000", "112504.505000", "112505.995000", "112507.485000", "112508.975000", "112510.465000", "112511.955000", "112513.445000", "112514.935000", "112516.425000", "112517.915000", "112519.405000", "112520.895000", "112522.385000", "112523.875000", "112525.365000", "112526.855000", "112528.345000", "112529.835000", "112531.325000", "112532.815000", "112534.305000", "112535.795000", "112537.285000", "112538.775000", "112540.265000", "112541.755000", "112543.245000", "112544.735000", "112546.225000", "112547.715000", "112549.205000", "112550.695000", "112552.185000", "112553.675000", "112555.165000", "112556.655000", "112558.145000", "112559.635000", "112601.125000", "112602.615000", "112604.105000", "112605.595000", "112607.085000", "112608.575000", "112610.065000", "112611.555000", "112613.045000", "112614.535000", "112616.025000", "112617.515000", "112619.005000", "112620.495000", "112621.985000", "112623.475000", "112624.965000", "112626.455000", "112627.945000", "112629.435000", "112630.925000", "112632.415000", "112633.905000", "112635.395000", "112636.885000", "112638.375000", "112639.865000", "112641.355000", "112642.845000", "112644.335000", "112645.825000", "112647.315000", "112648.805000", "112650.295000", "112651.785000", "112653.275000", "112654.765000", "112656.255000", "112657.745000", "112659.235000", "112700.725000", "112702.215000", "112703.705000", "112705.195000", "112706.685000", "112708.175000", "112709.665000", "112711.155000", "112712.645000", "112714.135000", "112715.625000", "112717.115000", "112718.605000", "112720.095000", "112721.585000", "112723.075000", "112724.565000", "112726.055000", "112727.545000", "112729.035000", "112730.525000", "112732.015000", "112733.505000", "112734.995000", "112736.485000", "112737.975000", "112739.465000", "112740.955000", "112742.445000", "112743.935000", "112745.425000", "112746.915000", "112748.405000", "112749.895000", "112751.385000", "112752.875000", "112754.365000", "112755.855000", "112757.345000", "112758.835000", "112800.325000", "112801.815000", "112803.305000", "112804.795000", "112806.285000", "112807.775000", "112809.265000", "112810.755000", "112812.245000", "112813.735000", "112815.225000", "112816.715000", "112818.205000", "112819.695000", "112821.185000", "112822.675000", "112824.165000", "112825.655000", "112827.145000", "112828.635000", "112830.125000", "112831.615000", "112833.105000", "112834.595000", "112836.085000", "112837.575000", "112839.065000", "112840.555000", "112842.045000", "112843.535000", "112845.025000", "112846.515000", "112848.005000", "112849.495000", "112850.985000", "112852.475000", "112853.965000", "112855.455000", "112856.945000", "112858.435000", "112859.925000", "112901.415000", "112902.905000", "112904.395000", "112905.885000", "112907.375000", "112908.865000", "112910.355000", "112911.845000", "112913.335000", "112914.825000", "112916.315000", "112917.805000", "112919.295000", "112920.785000", "112922.275000", "112923.765000", "112925.255000", "112926.745000", "112928.235000", "112929.725000", "112931.215000", "112932.705000", "112934.195000", "112935.685000", "112937.175000", "112938.665000", "112940.155000", "112941.645000", "112943.135000", "112944.625000", "112946.115000", "112947.605000", "112949.095000", "112950.585000", "112952.075000", "112953.565000", "112955.055000", "112956.545000", "112958.035000", "112959.525000", "113001.015000", "113002.505000", "113003.995000", "113005.485000", "113006.975000", "113008.465000", "113009.955000", "113011.445000", "113012.935000", "113014.425000", "113015.915000", "113017.405000", "113018.895000", "113020.385000", "113021.875000", "113023.365000", "113024.855000", "113026.345000", "113027.835000", "113029.325000", "113030.815000", "113032.305000", "113033.795000", "113035.285000", "113036.775000", "113038.265000", "113039.755000", "113041.245000"],
      "ContentTime": ["112115.198000", "112115.202000", "112115.205000", "112115.209000", "112115.212000", "112115.215000", "112115.219000", "112115.222000", "112115.225000", "112115.229000", "112115.232000", "112115.235000", "112115.238000", "112115.242000", "112115.245000", "112115.248000", "112115.252000", "112115.255000", "112115.258000", "112115.267000", "112115.284000", "112115.287000", "112115.290000", "112115.294000", "112115.297000", "112115.300000", "112135.166000", "112135.170000", "112135.173000", "112135.176000", "112135.179000", "112135.183000", "112135.197000", "112135.200000", "112135.204000", "112135.207000", "112135.216000", "112135.219000", "112135.223000", "112135.226000", "112135.229000", "112135.232000", "112135.236000", "112135.239000", "112135.242000", "112135.245000", "112155.166000", "112155.169000", "112155.173000", "112155.176000", "112155.179000", "112155.182000", "112155.186000", "112155.189000", "112155.192000", "112155.196000", "112155.199000", "112155.202000", "112155.222000", "112155.226000", "112155.229000", "112155.232000", "112155.236000", "112155.239000", "112155.242000", "112155.245000", "112215.165000", "112215.169000", "112215.172000", "112215.175000", "112215.179000", "112215.182000", "112215.185000", "112215.188000", "112215.192000", "112215.195000", "112215.198000", "112215.202000", "112215.205000", "112215.208000", "112215.212000", "112215.215000", "112215.218000", "112215.221000", "112215.225000", "112215.228000", "112235.165000", "112235.169000", "112235.172000", "112235.175000", "112235.179000", "112235.182000", "112235.185000", "112235.188000", "112235.192000", "112235.195000", "112235.198000", "112235.202000", "112235.205000", "112235.209000", "112235.212000", "112235.216000", "112235.220000", "112235.223000", "112235.227000", "112235.230000", "112315.165000", "112315.169000", "112315.172000", "112315.175000", "112315.179000", "112315.182000", "112315.185000", "112315.189000", "112315.192000", "112315.218000", "112315.221000", "112315.225000", "112315.228000", "112315.231000", "112315.235000", "112315.238000", "112315.241000", "112315.245000", "112315.248000", "112315.251000", "112315.254000", "112315.258000", "112315.261000", "112315.264000", "112315.268000", "112315.271000", "112315.274000", "112315.278000", "112355.166000", "112355.191000", "112355.195000", "112355.198000", "112355.201000", "112355.205000", "112355.208000", "112355.211000", "112355.214000", "112355.218000", "112355.221000", "112355.224000", "112355.227000", "112355.231000", "112355.234000", "112355.237000", "112355.241000", "112355.244000", "112355.247000", "112355.251000", "112355.254000", "112355.257000", "112355.260000", "112355.264000", "112355.267000", "112355.270000", "112355.273000", "112435.166000", "112435.169000", "112435.173000", "112435.177000", "112435.180000", "112435.184000", "112435.187000", "112435.191000", "112435.194000", "112435.197000", "112435.201000", "112435.204000", "112435.207000", "112435.211000", "112435.214000", "112435.217000", "112435.221000", "112435.224000", "112435.227000", "112435.230000", "112435.234000", "112435.237000", "112435.240000", "112435.244000", "112435.247000", "112435.250000", "112515.165000", "112515.169000", "112515.172000", "112515.176000", "112515.179000", "112515.182000", "112515.185000", "112515.189000", "112515.192000", "112515.196000", "112515.199000", "112515.202000", "112515.205000", "112515.209000", "112515.212000", "112515.215000", "112515.219000", "112515.222000", "112515.225000", "112515.228000", "112515.232000", "112515.235000", "112515.238000", "112515.241000", "112515.245000", "112515.248000", "112515.251000", "112555.166000", "112555.170000", "112555.173000", "112555.177000", "112555.180000", "112555.183000", "112555.187000", "112555.190000", "112555.193000", "112555.197000", "112555.200000", "112555.203000", "112555.206000", "112555.210000", "112555.226000", "112555.230000", "112555.233000", "112555.236000", "112555.240000", "112555.243000", "112555.246000", "112555.250000", "112555.253000", "112555.256000", "112555.259000", "112555.263000", "112555.266000", "112635.165000", "112635.169000", "112635.172000", "112635.176000", "112635.179000", "112635.182000", "112635.186000", "112635.189000", "112635.192000", "112635.195000", "112635.199000", "112635.202000", "112635.205000", "112635.209000", "112635.212000", "112635.215000", "112635.219000", "112635.222000", "112635.225000", "112635.229000", "112635.232000", "112635.235000", "112635.239000", "112635.242000", "112635.245000", "112635.248000", "112635.252000", "112715.165000", "112715.169000", "112715.172000", "112715.175000", "112715.179000", "112715.182000", "112715.185000", "112715.189000", "112715.192000", "112715.195000", "112715.199000", "112715.202000", "112715.208000", "112715.212000", "112715.215000", "112715.218000", "112715.222000", "112715.225000", "112715.228000", "112715.232000", "112715.235000", "112715.238000", "112715.241000", "112715.245000", "112715.248000", "112715.251000", "112715.255000", "112755.165000", "112755.169000", "112755.172000", "112755.176000", "112755.179000", "112755.182000", "112755.186000", "112755.189000", "112755.192000", "112755.196000", "112755.199000", "112755.202000", "112755.206000", "112755.209000", "112755.212000", "112755.215000", "112755.219000", "112755.222000", "112755.225000", "112755.229000", "112755.232000", "112755.235000", "112755.239000", "112755.242000", "112755.245000", "112755.249000", "112755.252000", "112835.166000", "112835.170000", "112835.173000", "112835.177000", "112835.180000", "112835.183000", "112835.187000", "112835.190000", "112835.193000", "112835.196000", "112835.200000", "112835.203000", "112835.206000", "112835.210000", "112835.213000", "112835.216000", "112835.220000", "112835.223000", "112835.226000", "112835.230000", "112835.233000", "112835.236000", "112835.240000", "112835.243000", "112835.246000", "112835.250000", "112835.253000", "112915.165000", "112915.169000", "112915.172000", "112915.176000", "112915.179000", "112915.182000", "112915.186000", "112915.189000", "112915.192000", "112915.196000", "112915.199000", "112915.203000", "112915.206000", "112915.209000", "112915.212000", "112915.216000", "112915.219000", "112915.224000", "112915.227000", "112915.231000", "112915.234000", "112915.237000", "112915.240000", "112915.244000", "112915.247000", "112915.250000", "112955.165000", "112955.169000", "112955.172000", "112955.176000", "112955.179000", "112955.182000", "112955.185000", "112955.189000", "112955.192000", "112955.195000", "112955.199000", "112955.202000", "112955.205000", "112955.209000", "112955.212000", "112955.215000", "112955.218000", "112955.222000", "112955.225000", "112955.228000", "112955.232000", "112955.235000", "112955.238000", "112955.242000", "112955.245000", "112955.248000", "112955.251000", "113035.166000", "113035.170000", "113035.174000", "113035.177000", "113035.180000", "113035.184000", "113035.187000", "113035.190000", "113035.194000", "113035.197000", "113035.200000", "113035.204000", "113035.207000", "113035.210000", "113035.214000", "113035.227000", "113035.231000", "113035.234000", "113035.237000", "113035.240000", "113035.244000", "113035.247000", "113035.250000", "113035.254000", "113035.257000", "113035.260000", "113035.264000", "113044.206000", "113044.209000", "113044.213000", "113044.216000", "113044.219000", "113044.223000"],
