{
  "AcquisitionMatrixPE": 104,
  "AcquisitionNumber": 1,
  "AcquisitionTime": "17:42:28.777500",
  "BandwidthPerPixelPhaseEncode": 17.17,
  "BaseResolution": 104,
  "BodyPartExamined": "BRAIN",
  "CoilCombinationMethod": "Sum of Squares",
  "ConsistencyInfo": "N4_VE11C_LATEST_20160120",
  "ConversionSoftware": "dcm2niix",
  "ConversionSoftwareVersion": "v1.0.20211006",
  "DerivedVendorReportedEchoSpacing": 0.000560011,
  "DeviceSerialNumber": "167006",
  "DwellTime": 2.1e-06,
  "EchoTime": 0.037,
  "EchoTime1": 0.037,
  "EchoTime2": 0.001,
  "EchoTrainLength": 104,
  "EffectiveEchoSpacing": 0.000560011,
  "FlipAngle": 52,
  "HeudiconvVersion": "0.11.3.post9+gc939bf8",
  "ImageComments": "Unaliased MB4/PE3/LB",
  "ImageOrientationPatientDICOM": [0.996493, 0.078979, 0.0276388, -0.064091, 0.932779, -0.354706],
  "ImageOrientationText": "Tra>Cor(-20.6)>Sag(3.1)",
  "ImageType": [
    "ORIGINAL",
    "PRIMARY",
    "P",
    "MB",
    "ND",
    "MOSAIC",
    "PHASE"
],
  "ImagingFrequency": 123.259,
  "InPlanePhaseEncodingDirectionDICOM": "COL",
  "InstitutionAddress": "Chemin Queen-Mary 4565,Montreal,District,CA,H3W 1W5",
  "InstitutionName": "IUGM",
  "InstitutionalDepartmentName": "Department",
  "MRAcquisitionType": "2D",
  "MagneticFieldStrength": 3,
  "Manufacturer": "Siemens",
  "ManufacturersModelName": "Prisma_fit",
  "MatrixCoilMode": "SENSE",
  "Modality": "MR",
  "MultibandAccelerationFactor": 4,
  "PartialFourier": 1,
  "PatientPosition": "HFS",
  "PercentPhaseFOV": 100,
  "PercentSampling": 100,
  "PhaseEncodingDirection": "j",
  "PhaseEncodingSteps": 104,
  "PhaseResolution": 1,
  "PixelBandwidth": 2290,
  "ProcedureStepDescription": "games^mariostars",
  "ProtocolName": "func_task-mariostars_run-02",
  "PulseSequenceDetails": "%CustomerSeq%\\cmrr_mbep2d_bold",
  "ReceiveCoilActiveElements": "HC1-7;NC1,2",
  "ReceiveCoilName": "HeadNeck_64",
  "ReconMatrixPE": 104,
  "RepetitionTime": 1.49,
  "SAR": 0.0480155,
  "ScanOptions": "FS",
  "ScanningSequence": "EP",
  "SequenceName": "epfid2d1_104",
  "SequenceVariant": "SK\\SS",
  "SeriesDescription": "func_task-mariostars_run-02",
  "SeriesNumber": 14,
  "ShimSetting": [628, -7193, -8854, 623, 90, -12, -37, -10],
  "SliceThickness": 2,
  "SliceTiming": [0, 0.785, 0.1, 0.8825, 0.1975, 0.98, 0.295, 1.08, 0.3925, 1.1775, 0.49, 1.275, 0.59, 1.3725, 0.6875, 0, 0.785, 0.1, 0.8825, 0.1975, 0.98, 0.295, 1.08, 0.3925, 1.1775, 0.49, 1.275, 0.59, 1.3725, 0.6875, 0, 0.785, 0.1, 0.8825, 0.1975, 0.98, 0.295, 1.08, 0.3925, 1.1775, 0.49, 1.275, 0.59, 1.3725, 0.6875, 0, 0.785, 0.1, 0.8825, 0.1975, 0.98, 0.295, 1.08, 0.3925, 1.1775, 0.49, 1.275, 0.59, 1.3725, 0.6875],
  "SoftwareVersions": "syngo MR E11",
  "SpacingBetweenSlices": 2,
  "StationName": "MRC35049",
  "TaskName": "mariostars",
  "TotalReadoutTime": 0.0576811,
  "TxRefAmp": 263.954,
  "WipMemBlock": "52c9b4cf-de0b-44ec-973a-6300a3531aeb||Sequence: R016 ve11c/master r/e634e98; Dec 19 2017 11:00:25 by eja",
  "dcmmeta_affine": [
    [-1.9929860830307007, -0.12818199396133423, 0.1075904443860054, 109.67092895507812],
    [-0.15795792639255524, 1.865557312965393, -0.7033812403678894, -52.33819580078125],
    [0.055277660489082336, 0.7094119191169739, 1.8691385984420776, -74.058349609375],
    [0.0, 0.0, 0.0, 1.0]
],
  "dcmmeta_reorient_transform": [
    [0.0, -1.0, 0.0, 103.0],
    [1.0, 0.0, 0.0, 0.0],
    [0.0, 0.0, 1.0, 0.0],
    [0.0, 0.0, 0.0, 1.0]
],
  "dcmmeta_shape": [104, 104, 60, 490],
  "dcmmeta_slice_dim": 2,
  "dcmmeta_version": 0.6,
  "global": {
    "const": {
      "AcquisitionMatrix": [104, 0, 0, 104],
      "AngioFlag": "N",
      "BitsAllocated": 16,
      "BitsStored": 16,
      "BodyPartExamined": "BRAIN",
      "Columns": 832,
      "EchoNumbers": 1,
      "EchoTime": 37.0,
      "EchoTrainLength": 104,
      "FlipAngle": 52.0,
      "HighBit": 15,
      "ImageOrientationPatient": [0.99649305982476, 0.07897896387365, 0.02763883113551, -0.0640909970004, 0.93277865770149, -0.35470596251],
      "ImagePositionPatient": [-775.25688399667, -876.37375655579, 237.11595086824],
      "ImageType": [
        "ORIGINAL",
        "PRIMARY",
        "P",
        "MB",
        "ND",
        "MOSAIC"
],
      "ImagedNucleus": "1H",
      "ImagingFrequency": 123.258852,
      "InPlanePhaseEncodingDirection": "COL",
      "LargestImagePixelValue": 4095,
      "MRAcquisitionType": "2D",
      "MagneticFieldStrength": 3.0,
      "Manufacturer": "SIEMENS",
      "ManufacturerModelName": "Prisma_fit",
      "Modality": "MR",
      "NumberOfAverages": 1.0,
      "NumberOfPhaseEncodingSteps": 104,
      "PercentPhaseFieldOfView": 100.0,
      "PercentSampling": 100.0,
      "PerformedProcedureStepStartTime": "165705.926000",
      "PhotometricInterpretation": "MONOCHROME2",
      "PixelBandwidth": 2290.0,
      "PixelRepresentation": 0,
      "PixelSpacing": [2.0, 2.0],
      "ProtocolName": "func_task-mariostars_run-02",
      "RepetitionTime": 1490.0,
      "RescaleIntercept": -4096.0,
      "RescaleSlope": 2.0,
      "RescaleType": "US",
      "Rows": 832,
      "SAR": 0.04801549362728,
      "SamplesPerPixel": 1,
      "ScanOptions": "FS",
      "ScanningSequence": "EP",
      "SequenceName": "epfid2d1_104",
      "SequenceVariant": [
        "SK",
        "SS"
],
      "SeriesDescription": "func_task-mariostars_run-02",
      "SeriesNumber": 14,
      "SeriesTime": "174355.226000",
      "SliceLocation": -44.906034655711,
      "SliceThickness": 2.0,
      "SmallestImagePixelValue": 0,
      "SoftwareVersions": "syngo MR E11",
      "SpacingBetweenSlices": 2.0000000107472,
      "SpecificCharacterSet": "ISO_IR 100",
      "StudyID": "1",
      "StudyTime": "165705.861000",
      "TransmitCoilName": "Body",
      "VariableFlipAngleFlag": "N",
      "WindowCenterWidthExplanation": "Algo1",
      "dBdt": 0.0},
    "slices": {}
  },
  "time": {
    "samples": {
      "AcquisitionNumber": [1, 2, 3, 4, 5, 6, 7, 8, 9, 10, 11, 12, 13, 14, 15, 16, 17, 18, 19, 20, 21, 22, 23, 24, 25, 26, 27, 28, 29, 30, 31, 32, 33, 34, 35, 36, 37, 38, 39, 40, 41, 42, 43, 44, 45, 46, 47, 48, 49, 50, 51, 52, 53, 54, 55, 56, 57, 58, 59, 60, 61, 62, 63, 64, 65, 66, 67, 68, 69, 70, 71, 72, 73, 74, 75, 76, 77, 78, 79, 80, 81, 82, 83, 84, 85, 86, 87, 88, 89, 90, 91, 92, 93, 94, 95, 96, 97, 98, 99, 100, 101, 102, 103, 104, 105, 106, 107, 108, 109, 110, 111, 112, 113, 114, 115, 116, 117, 118, 119, 120, 121, 122, 123, 124, 125, 126, 127, 128, 129, 130, 131, 132, 133, 134, 135, 136, 137, 138, 139, 140, 141, 142, 143, 144, 145, 146, 147, 148, 149, 150, 151, 152, 153, 154, 155, 156, 157, 158, 159, 160, 161, 162, 163, 164, 165, 166, 167, 168, 169, 170, 171, 172, 173, 174, 175, 176, 177, 178, 179, 180, 181, 182, 183, 184, 185, 186, 187, 188, 189, 190, 191, 192, 193, 194, 195, 196, 197, 198, 199, 200, 201, 202, 203, 204, 205, 206, 207, 208, 209, 210, 211, 212, 213, 214, 215, 216, 217, 218, 219, 220, 221, 222, 223, 224, 225, 226, 227, 228, 229, 230, 231, 232, 233, 234, 235, 236, 237, 238, 239, 240, 241, 242, 243, 244, 245, 246, 247, 248, 249, 250, 251, 252, 253, 254, 255, 256, 257, 258, 259, 260, 261, 262, 263, 264, 265, 266, 267, 268, 269, 270, 271, 272, 273, 274, 275, 276, 277, 278, 279, 280, 281, 282, 283, 284, 285, 286, 287, 288, 289, 290, 291, 292, 293, 294, 295, 296, 297, 298, 299, 300, 301, 302, 303, 304, 305, 306, 307, 308, 309, 310, 311, 312, 313, 314, 315, 316, 317, 318, 319, 320, 321, 322, 323, 324, 325, 326, 327, 328, 329, 330, 331, 332, 333, 334, 335, 336, 337, 338, 339, 340, 341, 342, 343, 344, 345, 346, 347, 348, 349, 350, 351, 352, 353, 354, 355, 356, 357, 358, 359, 360, 361, 362, 363, 364, 365, 366, 367, 368, 369, 370, 371, 372, 373, 374, 375, 376, 377, 378, 379, 380, 381, 382, 383, 384, 385, 386, 387, 388, 389, 390, 391, 392, 393, 394, 395, 396, 397, 398, 399, 400, 401, 402, 403, 404, 405, 406, 407, 408, 409, 410, 411, 412, 413, 414, 415, 416, 417, 418, 419, 420, 421, 422, 423, 424, 425, 426, 427, 428, 429, 430, 431, 432, 433, 434, 435, 436, 437, 438, 439, 440, 441, 442, 443, 444, 445, 446, 447, 448, 449, 450, 451, 452, 453, 454, 455, 456, 457, 458, 459, 460, 461, 462, 463, 464, 465, 466, 467, 468, 469, 470, 471, 472, 473, 474, 475, 476, 477, 478, 479, 480, 481, 482, 483, 484, 485, 486, 487, 488, 489, 490],
      "AcquisitionTime": ["174228.777500", "174230.267500", "174231.757500", "174233.247500", "174234.737500", "174236.227500", "174237.717500", "174239.207500", "174240.697500", "174242.187500", "174243.677500", "174245.167500", "174246.657500", "174248.147500", "174249.637500", "174251.127500", "174252.617500", "174254.107500", "174255.597500", "174257.087500", "174258.577500", "174300.067500", "174301.557500", "174303.047500", "174304.537500", "174306.027500", "174307.517500", "174309.007500", "174310.497500", "174311.987500", "174313.477500", "174314.967500", "174316.457500", "174317.947500", "174319.437500", "174320.927500", "174322.417500", "174323.907500", "174325.397500", "174326.887500", "174328.377500", "174329.867500", "174331.357500", "174332.847500", "174334.337500", "174335.827500", "174337.317500", "174338.807500", "174340.297500", "174341.787500", "174343.277500", "174344.767500", "174346.257500", "174347.747500", "174349.237500", "174350.727500", "174352.217500", "174353.707500", "174355.197500", "174356.687500", "174358.177500", "174359.667500", "174401.157500", "174402.647500", "174404.137500", "174405.627500", "174407.117500", "174408.607500", "174410.097500", "174411.587500", "174413.077500", "174414.567500", "174416.057500", "174417.547500", "174419.037500", "174420.527500", "174422.017500", "174423.507500", "174424.997500", "174426.487500", "174427.977500", "174429.467500", "174430.957500", "174432.447500", "174433.937500", "174435.427500", "174436.917500", "174438.407500", "174439.897500", "174441.387500", "174442.877500", "174444.367500", "174445.857500", "174447.347500", "174448.837500", "174450.327500", "174451.817500", "174453.307500", "174454.797500", "174456.287500", "174457.777500", "174459.267500", "174500.757500", "174502.247500", "174503.737500", "174505.227500", "174506.717500", "174508.207500", "174509.697500", "174511.187500", "174512.677500", "174514.167500", "174515.657500", "174517.147500", "174518.637500", "174520.127500", "174521.617500", "174523.107500", "174524.597500", "174526.087500", "174527.577500", "174529.067500", "174530.557500", "174532.047500", "174533.537500", "174535.027500", "174536.517500", "174538.007500", "174539.497500", "174540.987500", "174542.477500", "174543.967500", "174545.457500", "174546.947500", "174548.437500", "174549.927500", "174551.417500", "174552.907500", "174554.397500", "174555.887500", "174557.377500", "174558.867500", "174600.357500", "174601.847500", "174603.337500", "174604.827500", "174606.317500", "174607.807500", "174609.297500", "174610.787500", "174612.277500", "174613.767500", "174615.257500", "174616.747500", "174618.237500", "174619.727500", "174621.217500", "174622.707500", "174624.197500", "174625.687500", "174627.177500", "174628.667500", "174630.157500", "174631.647500", "174633.137500", "174634.627500", "174636.117500", "174637.607500", "174639.097500", "174640.587500", "174642.077500", "174643.567500", "174645.057500", "174646.547500", "174648.037500", "174649.527500", "174651.017500", "174652.507500", "174653.997500", "174655.487500", "174656.977500", "174658.467500", "174659.957500", "174701.447500", "174702.937500", "174704.427500", "174705.917500", "174707.407500", "174708.897500", "174710.387500", "174711.877500", "174713.367500", "174714.857500", "174716.347500", "174717.837500", "174719.327500", "174720.817500", "174722.307500", "174723.797500", "174725.287500", "174726.777500", "174728.267500", "174729.757500", "174731.247500", "174732.737500", "174734.227500", "174735.717500", "174737.207500", "174738.697500", "174740.187500", "174741.677500", "174743.167500", "174744.657500", "174746.147500", "174747.637500", "174749.127500", "174750.617500", "174752.107500", "174753.597500", "174755.087500", "174756.577500", "174758.067500", "174759.557500", "174801.047500", "174802.537500", "174804.027500", "174805.517500", "174807.007500", "174808.497500", "174809.987500", "174811.477500", "174812.967500", "174814.457500", "174815.947500", "174817.437500", "174818.927500", "174820.417500", "174821.907500", "174823.397500", "174824.887500", "174826.377500", "174827.867500", "174829.357500", "174830.847500", "174832.337500", "174833.827500", "174835.317500", "174836.807500", "174838.297500", "174839.787500", "174841.277500", "174842.767500", "174844.257500", "174845.747500", "174847.237500", "174848.727500", "174850.217500", "174851.707500", "174853.197500", "174854.687500", "174856.177500", "174857.667500", "174859.157500", "174900.647500", "174902.137500", "174903.627500", "174905.117500", "174906.607500", "174908.097500", "174909.587500", "174911.077500", "174912.567500", "174914.057500", "174915.547500", "174917.037500", "174918.527500", "174920.017500", "174921.507500", "174922.997500", "174924.487500", "174925.977500", "174927.467500", "174928.957500", "174930.447500", "174931.937500", "174933.427500", "174934.917500", "174936.407500", "174937.897500", "174939.387500", "174940.877500", "174942.367500", "174943.857500", "174945.347500", "174946.837500", "174948.327500", "174949.817500", "174951.307500", "174952.797500", "174954.287500", "174955.777500", "174957.267500", "174958.757500", "175000.247500", "175001.737500", "175003.227500", "175004.717500", "175006.207500", "175007.697500", "175009.187500", "175010.677500", "175012.167500", "175013.657500", "175015.147500", "175016.637500", "175018.127500", "175019.617500", "175021.107500", "175022.597500", "175024.087500", "175025.577500", "175027.067500", "175028.557500", "175030.047500", "175031.537500", "175033.027500", "175034.517500", "175036.007500", "175037.497500", "175038.987500", "175040.477500", "175041.967500", "175043.457500", "175044.947500", "175046.437500", "175047.927500", "175049.417500", "175050.907500", "175052.397500", "175053.887500", "175055.377500", "175056.867500", "175058.357500", "175059.847500", "175101.337500", "175102.827500", "175104.317500", "175105.807500", "175107.297500", "175108.787500", "175110.277500", "175111.767500", "175113.257500", "175114.747500", "175116.237500", "175117.727500", "175119.217500", "175120.707500", "175122.197500", "175123.687500", "175125.177500", "175126.667500", "175128.157500", "175129.647500", "175131.137500", "175132.627500", "175134.117500", "175135.607500", "175137.097500", "175138.587500", "175140.077500", "175141.567500", "175143.057500", "175144.547500", "175146.037500", "175147.527500", "175149.017500", "175150.507500", "175151.997500", "175153.487500", "175154.977500", "175156.467500", "175157.957500", "175159.447500", "175200.937500", "175202.427500", "175203.917500", "175205.407500", "175206.897500", "175208.387500", "175209.877500", "175211.367500", "175212.857500", "175214.347500", "175215.837500", "175217.327500", "175218.817500", "175220.307500", "175221.797500", "175223.287500", "175224.777500", "175226.267500", "175227.757500", "175229.247500", "175230.737500", "175232.227500", "175233.717500", "175235.207500", "175236.697500", "175238.187500", "175239.677500", "175241.167500", "175242.657500", "175244.147500", "175245.637500", "175247.127500", "175248.617500", "175250.107500", "175251.597500", "175253.087500", "175254.577500", "175256.067500", "175257.557500", "175259.047500", "175300.537500", "175302.027500", "175303.517500", "175305.007500", "175306.497500", "175307.987500", "175309.477500", "175310.967500", "175312.457500", "175313.947500", "175315.437500", "175316.927500", "175318.417500", "175319.907500", "175321.397500", "175322.887500", "175324.377500", "175325.867500", "175327.357500", "175328.847500", "175330.337500", "175331.827500", "175333.317500", "175334.807500", "175336.297500", "175337.787500", "175339.277500", "175340.767500", "175342.257500", "175343.747500", "175345.237500", "175346.727500", "175348.217500", "175349.707500", "175351.197500", "175352.687500", "175354.177500", "175355.667500", "175357.157500", "175358.647500", "175400.137500", "175401.627500", "175403.117500", "175404.607500", "175406.097500", "175407.587500", "175409.077500", "175410.567500", "175412.057500", "175413.547500", "175415.037500", "175416.527500", "175418.017500", "175419.507500", "175420.997500", "175422.487500", "175423.977500", "175425.467500", "175426.957500", "175428.447500", "175429.937500", "175431.427500", "175432.917500", "175434.407500", "175435.897500", "175437.387500"],
      "ContentTime": ["174355.229000", "174355.231000", "174355.234000", "174355.236000", "174355.239000", "174355.242000", "174355.244000", "174355.247000", "174355.249000", "174355.252000", "174355.254000", "174355.257000", "174355.271000", "174355.274000", "174355.276000", "174355.279000", "174355.281000", "174355.284000", "174355.286000", "174355.289000", "174355.292000", "174355.294000", "174355.297000", "174355.299000", "174355.302000", "174355.304000", "174355.307000", "174355.309000", "174355.312000", "174355.314000", "174355.317000", "174415.186000", "174415.189000", "174415.191000", "174415.194000", "174415.196000", "174415.199000", "174415.201000", "174415.204000", "174415.207000", "174415.209000", "174415.212000", "174415.214000", "174415.217000", "174415.219000", "174415.222000", "174415.224000", "174415.227000", "174415.230000", "174415.232000", "174415.235000", "174435.156000", "174435.159000", "174435.168000", "174435.170000", "174435.173000", "174435.175000", "174435.178000", "174435.181000", "174435.183000", "174435.186000", "174435.189000", "174435.191000", "174435.194000", "174435.196000", "174435.199000", "174435.201000", "174435.209000", "174435.212000", "174435.214000", "174435.217000", "174435.219000", "174455.148000", "174455.151000", "174455.154000", "174455.156000", "174455.159000", "174455.161000", "174455.164000", "174455.166000", "174455.169000", "174455.171000", "174455.174000", "174455.176000", "174455.179000", "174455.182000", "174455.184000", "174455.187000", "174455.189000", "174455.192000", "174455.194000", "174455.197000", "174535.197000", "174535.200000", "174535.202000", "174535.205000", "174535.207000", "174535.210000", "174535.212000", "174535.215000", "174535.218000", "174535.220000", "174535.223000", "174535.225000", "174535.228000", "174535.230000", "174535.233000", "174535.241000", "174535.244000", "174535.246000", "174535.249000", "174535.251000", "174535.254000", "174535.256000", "174535.259000", "174535.262000", "174535.264000", "174535.267000", "174535.269000", "174535.272000", "174535.274000", "174535.277000", "174535.280000", "174535.282000", "174615.181000", "174615.184000", "174615.186000", "174615.189000", "174615.191000", "174615.194000", "174615.196000", "174615.199000", "174615.202000", "174615.204000", "174615.207000", "174615.209000", "174615.212000", "174615.214000", "174615.217000", "174615.219000", "174615.222000", "174615.224000", "174615.227000", "174615.229000", "174615.232000", "174615.235000", "174615.237000", "174615.240000", "174615.242000", "174615.245000", "174615.247000", "174655.189000", "174655.202000", "174655.204000", "174655.207000", "174655.209000", "174655.212000", "174655.215000", "174655.217000", "174655.220000", "174655.222000", "174655.225000", "174655.227000", "174655.230000", "174655.232000", "174655.235000", "174655.238000", "174655.240000", "174655.243000", "174655.245000", "174655.248000", "174655.250000", "174655.253000", "174655.255000", "174655.258000", "174655.260000", "174655.263000", "174655.265000", "174735.192000", "174735.194000", "174735.197000", "174735.199000", "174735.202000", "174735.204000", "174735.207000", "174735.210000", "174735.212000", "174735.215000", "174735.217000", "174735.220000", "174735.222000", "174735.225000", "174735.227000", "174735.230000", "174735.232000", "174735.235000", "174735.238000", "174735.240000", "174735.243000", "174735.245000", "174735.248000", "174735.250000", "174735.253000", "174735.255000", "174735.258000", "174815.182000", "174815.185000", "174815.187000", "174815.190000", "174815.193000", "174815.195000", "174815.198000", "174815.200000", "174815.218000", "174815.220000", "174815.223000", "174815.226000", "174815.228000", "174815.231000", "174815.233000", "174815.236000", "174815.238000", "174815.241000", "174815.243000", "174815.246000", "174815.249000", "174815.251000", "174815.254000", "174815.256000", "174815.259000", "174815.261000", "174855.184000", "174855.187000", "174855.190000", "174855.192000", "174855.195000", "174855.197000", "174855.200000", "174855.202000", "174855.205000", "174855.208000", "174855.210000", "174855.218000", "174855.220000", "174855.223000", "174855.225000", "174855.228000", "174855.230000", "174855.233000", "174855.235000", "174855.238000", "174855.240000", "174855.243000", "174855.245000", "174855.248000", "174855.251000", "174855.253000", "174855.256000", "174935.181000", "174935.184000", "174935.186000", "174935.189000", "174935.191000", "174935.194000", "174935.196000", "174935.199000", "174935.201000", "174935.204000", "174935.206000", "174935.209000", "174935.212000", "174935.214000", "174935.217000", "174935.219000", "174935.222000", "174935.224000", "174935.227000", "174935.229000", "174935.232000", "174935.235000", "174935.237000", "174935.240000", "174935.242000", "174935.245000", "174935.247000", "175015.183000", "175015.186000", "175015.188000", "175015.191000", "175015.194000", "175015.196000", "175015.199000", "175015.201000", "175015.204000", "175015.206000", "175015.209000", "175015.211000", "175015.214000", "175015.216000", "175015.219000", "175015.221000", "175015.224000", "175015.226000", "175015.229000", "175015.232000", "175015.234000", "175015.237000", "175015.239000", "175015.242000", "175015.244000", "175015.247000", "175015.249000", "175035.113000", "175035.116000", "175035.118000", "175035.121000", "175035.124000", "175035.126000", "175035.129000", "175035.131000", "175035.134000", "175035.136000", "175035.139000", "175035.141000", "175035.144000", "175115.173000", "175115.176000", "175115.179000", "175115.181000", "175115.184000", "175115.186000", "175115.189000", "175115.192000", "175115.194000", "175115.197000", "175115.199000", "175115.202000", "175115.204000", "175115.207000", "175115.209000", "175115.212000", "175115.214000", "175115.217000", "175115.219000", "175115.222000", "175115.224000", "175115.227000", "175115.230000", "175115.232000", "175115.235000", "175115.237000", "175115.240000", "175155.188000", "175155.191000", "175155.193000", "175155.196000", "175155.198000", "175155.201000", "175155.205000", "175155.207000", "175155.210000", "175155.212000", "175155.215000", "175155.217000", "175155.220000", "175155.222000", "175155.225000", "175155.228000", "175155.240000", "175155.243000", "175155.245000", "175155.248000", "175155.251000", "175155.254000", "175155.256000", "175155.259000", "175155.262000", "175155.264000", "175155.267000", "175235.178000", "175235.181000", "175235.183000", "175235.186000", "175235.189000", "175235.191000", "175235.194000", "175235.196000", "175235.199000", "175235.201000", "175235.204000", "175235.206000", "175235.209000", "175235.211000", "175235.214000", "175235.216000", "175235.219000", "175235.222000", "175235.224000", "175235.227000", "175235.229000", "175235.232000", "175235.234000", "175235.237000", "175235.239000", "175235.242000", "175235.244000", "175315.198000", "175315.201000", "175315.203000", "175315.206000", "175315.208000", "175315.211000", "175315.213000", "175315.216000", "175315.226000", "175315.229000", "175315.231000", "175315.234000", "175315.236000", "175315.239000", "175315.241000", "175315.244000", "175315.247000", "175315.249000", "175315.252000", "175315.254000", "175315.257000", "175315.259000", "175315.262000", "175315.264000", "175315.267000", "175315.269000", "175315.272000", "175355.196000", "175355.199000", "175355.201000", "175355.204000", "175355.206000", "175355.209000", "175355.212000", "175355.214000", "175355.217000", "175355.219000", "175355.227000", "175355.230000", "175355.232000", "175355.235000", "175355.237000", "175355.240000", "175355.243000", "175355.245000", "175355.248000", "175355.250000", "175355.253000", "175355.256000", "175355.258000", "175355.261000", "175355.263000", "175355.266000", "175355.279000", "175435.192000", "175435.195000", "175435.197000", "175435.200000", "175435.203000", "175435.205000", "175435.208000", "175435.210000", "175435.213000", "175435.215000", "175435.218000", "175435.220000", "175435.223000", "175435.226000", "175435.228000", "175435.231000", "175435.233000", "175435.236000", "175435.238000", "175435.241000", "175435.243000", "175435.246000", "175435.248000", "175435.251000", "175435.254000", "175435.256000", "175440.332000", "175440.335000", "175440.337000", "175440.340000"],
