{
  "AcquisitionMatrixPE": 104,
  "AcquisitionNumber": 1,
  "AcquisitionTime": "17:42:28.777500",
  "BandwidthPerPixelPhaseEncode": 17.17,
  "BaseResolution": 104,
  "BodyPartExamined": "BRAIN",
  "CoilCombinationMethod": "Sum of Squares",
  "ConsistencyInfo": "N4_VE11C_LATEST_20160120",
  "ConversionSoftware": "dcm2niix",
  "ConversionSoftwareVersion": "v1.0.20211006",
  "DerivedVendorReportedEchoSpacing": 0.000560011,
  "DeviceSerialNumber": "167006",
  "DwellTime": 2.1e-06,
  "EchoTime": 0.037,
  "EchoTrainLength": 104,
  "EffectiveEchoSpacing": 0.000560011,
  "FlipAngle": 52,
  "HeudiconvVersion": "0.11.3.post9+gc939bf8",
  "ImageComments": "Unaliased MB4/PE3/LB",
  "ImageOrientationPatientDICOM": [0.996493, 0.078979, 0.0276388, -0.064091, 0.932779, -0.354706],
  "ImageOrientationText": "Tra>Cor(-20.6)>Sag(3.1)",
  "ImageType": [
    "ORIGINAL",
    "PRIMARY",
    "M",
    "MB",
    "ND",
    "MOSAIC"
],
  "ImagingFrequency": 123.259,
  "InPlanePhaseEncodingDirectionDICOM": "COL",
  "InstitutionAddress": "Chemin Queen-Mary 4565,Montreal,District,CA,H3W 1W5",
  "InstitutionName": "IUGM",
  "InstitutionalDepartmentName": "Department",
  "MRAcquisitionType": "2D",
  "MagneticFieldStrength": 3,
  "Manufacturer": "Siemens",
  "ManufacturersModelName": "Prisma_fit",
  "MatrixCoilMode": "SENSE",
  "Modality": "MR",
  "MultibandAccelerationFactor": 4,
  "PartialFourier": 1,
  "PatientPosition": "HFS",
  "PercentPhaseFOV": 100,
  "PercentSampling": 100,
  "PhaseEncodingDirection": "j",
  "PhaseEncodingSteps": 104,
  "PhaseResolution": 1,
  "PixelBandwidth": 2290,
  "ProcedureStepDescription": "games^mariostars",
  "ProtocolName": "func_task-mariostars_run-02",
  "PulseSequenceDetails": "%CustomerSeq%\\cmrr_mbep2d_bold",
  "ReceiveCoilActiveElements": "HC1-7;NC1,2",
  "ReceiveCoilName": "HeadNeck_64",
  "ReconMatrixPE": 104,
  "RepetitionTime": 1.49,
  "SAR": 0.0480155,
  "ScanOptions": "FS",
  "ScanningSequence": "EP",
  "SequenceName": "epfid2d1_104",
  "SequenceVariant": "SK\\SS",
  "SeriesDescription": "func_task-mariostars_run-02",
  "SeriesNumber": 13,
  "ShimSetting": [628, -7193, -8854, 623, 90, -12, -37, -10],
  "SliceThickness": 2,
  "SliceTiming": [0, 0.785, 0.1, 0.8825, 0.1975, 0.98, 0.295, 1.08, 0.3925, 1.1775, 0.49, 1.275, 0.59, 1.3725, 0.6875, 0, 0.785, 0.1, 0.8825, 0.1975, 0.98, 0.295, 1.08, 0.3925, 1.1775, 0.49, 1.275, 0.59, 1.3725, 0.6875, 0, 0.785, 0.1, 0.8825, 0.1975, 0.98, 0.295, 1.08, 0.3925, 1.1775, 0.49, 1.275, 0.59, 1.3725, 0.6875, 0, 0.785, 0.1, 0.8825, 0.1975, 0.98, 0.295, 1.08, 0.3925, 1.1775, 0.49, 1.275, 0.59, 1.3725, 0.6875],
  "SoftwareVersions": "syngo MR E11",
  "SpacingBetweenSlices": 2,
  "StationName": "MRC35049",
  "TaskName": "mariostars",
  "TotalReadoutTime": 0.0576811,
  "TxRefAmp": 263.954,
  "WipMemBlock": "52c9b4cf-de0b-44ec-973a-6300a3531aeb||Sequence: R016 ve11c/master r/e634e98; Dec 19 2017 11:00:25 by eja",
  "dcmmeta_affine": [
    [-1.9929860830307007, -0.12818199396133423, 0.1075904443860054, 109.67092895507812],
    [-0.15795792639255524, 1.865557312965393, -0.7033812403678894, -52.33819580078125],
    [0.055277660489082336, 0.7094119191169739, 1.8691385984420776, -74.058349609375],
    [0.0, 0.0, 0.0, 1.0]
],
  "dcmmeta_reorient_transform": [
    [0.0, -1.0, 0.0, 103.0],
    [1.0, 0.0, 0.0, 0.0],
    [0.0, 0.0, 1.0, 0.0],
    [0.0, 0.0, 0.0, 1.0]
],
  "dcmmeta_shape": [104, 104, 60, 490],
  "dcmmeta_slice_dim": 2,
  "dcmmeta_version": 0.6,
  "global": {
    "const": {
      "AcquisitionMatrix": [104, 0, 0, 104],
      "AngioFlag": "N",
      "BitsAllocated": 16,
      "BitsStored": 16,
      "BodyPartExamined": "BRAIN",
      "Columns": 832,
      "EchoNumbers": 1,
      "EchoTime": 37.0,
      "EchoTrainLength": 104,
      "FlipAngle": 52.0,
      "HighBit": 15,
      "ImageOrientationPatient": [0.99649305982476, 0.07897896387365, 0.02763883113551, -0.0640909970004, 0.93277865770149, -0.35470596251],
      "ImagePositionPatient": [-775.25688399667, -876.37375655579, 237.11595086824],
      "ImageType": [
        "ORIGINAL",
        "PRIMARY",
        "M",
        "MB",
        "ND",
        "MOSAIC"
],
      "ImagedNucleus": "1H",
      "ImagingFrequency": 123.258852,
      "InPlanePhaseEncodingDirection": "COL",
      "MRAcquisitionType": "2D",
      "MagneticFieldStrength": 3.0,
      "Manufacturer": "SIEMENS",
      "ManufacturerModelName": "Prisma_fit",
      "Modality": "MR",
      "NumberOfAverages": 1.0,
      "NumberOfPhaseEncodingSteps": 104,
      "PercentPhaseFieldOfView": 100.0,
      "PercentSampling": 100.0,
      "PerformedProcedureStepStartTime": "165705.926000",
      "PhotometricInterpretation": "MONOCHROME2",
      "PixelBandwidth": 2290.0,
      "PixelRepresentation": 0,
      "PixelSpacing": [2.0, 2.0],
      "ProtocolName": "func_task-mariostars_run-02",
      "RepetitionTime": 1490.0,
      "Rows": 832,
      "SAR": 0.04801549362728,
      "SamplesPerPixel": 1,
      "ScanOptions": "FS",
      "ScanningSequence": "EP",
      "SequenceName": "epfid2d1_104",
      "SequenceVariant": [
        "SK",
        "SS"
],
      "SeriesDescription": "func_task-mariostars_run-02",
      "SeriesNumber": 13,
      "SeriesTime": "174355.073000",
      "SliceLocation": -44.906034655711,
      "SliceThickness": 2.0,
      "SmallestImagePixelValue": 0,
      "SoftwareVersions": "syngo MR E11",
      "SpacingBetweenSlices": 2.0000000107472,
      "SpecificCharacterSet": "ISO_IR 100",
      "StudyID": "1",
      "StudyTime": "165705.861000",
      "TransmitCoilName": "Body",
      "VariableFlipAngleFlag": "N",
      "WindowCenterWidthExplanation": "Algo1",
      "dBdt": 0.0},
    "slices": {}
  },
  "time": {
    "samples": {
      "AcquisitionNumber": [1, 2, 3, 4, 5, 6, 7, 8, 9, 10, 11, 12, 13, 14, 15, 16, 17, 18, 19, 20, 21, 22, 23, 24, 25, 26, 27, 28, 29, 30, 31, 32, 33, 34, 35, 36, 37, 38, 39, 40, 41, 42, 43, 44, 45, 46, 47, 48, 49, 50, 51, 52, 53, 54, 55, 56, 57, 58, 59, 60, 61, 62, 63, 64, 65, 66, 67, 68, 69, 70, 71, 72, 73, 74, 75, 76, 77, 78, 79, 80, 81, 82, 83, 84, 85, 86, 87, 88, 89, 90, 91, 92, 93, 94, 95, 96, 97, 98, 99, 100, 101, 102, 103, 104, 105, 106, 107, 108, 109, 110, 111, 112, 113, 114, 115, 116, 117, 118, 119, 120, 121, 122, 123, 124, 125, 126, 127, 128, 129, 130, 131, 132, 133, 134, 135, 136, 137, 138, 139, 140, 141, 142, 143, 144, 145, 146, 147, 148, 149, 150, 151, 152, 153, 154, 155, 156, 157, 158, 159, 160, 161, 162, 163, 164, 165, 166, 167, 168, 169, 170, 171, 172, 173, 174, 175, 176, 177, 178, 179, 180, 181, 182, 183, 184, 185, 186, 187, 188, 189, 190, 191, 192, 193, 194, 195, 196, 197, 198, 199, 200, 201, 202, 203, 204, 205, 206, 207, 208, 209, 210, 211, 212, 213, 214, 215, 216, 217, 218, 219, 220, 221, 222, 223, 224, 225, 226, 227, 228, 229, 230, 231, 232, 233, 234, 235, 236, 237, 238, 239, 240, 241, 242, 243, 244, 245, 246, 247, 248, 249, 250, 251, 252, 253, 254, 255, 256, 257, 258, 259, 260, 261, 262, 263, 264, 265, 266, 267, 268, 269, 270, 271, 272, 273, 274, 275, 276, 277, 278, 279, 280, 281, 282, 283, 284, 285, 286, 287, 288, 289, 290, 291, 292, 293, 294, 295, 296, 297, 298, 299, 300, 301, 302, 303, 304, 305, 306, 307, 308, 309, 310, 311, 312, 313, 314, 315, 316, 317, 318, 319, 320, 321, 322, 323, 324, 325, 326, 327, 328, 329, 330, 331, 332, 333, 334, 335, 336, 337, 338, 339, 340, 341, 342, 343, 344, 345, 346, 347, 348, 349, 350, 351, 352, 353, 354, 355, 356, 357, 358, 359, 360, 361, 362, 363, 364, 365, 366, 367, 368, 369, 370, 371, 372, 373, 374, 375, 376, 377, 378, 379, 380, 381, 382, 383, 384, 385, 386, 387, 388, 389, 390, 391, 392, 393, 394, 395, 396, 397, 398, 399, 400, 401, 402, 403, 404, 405, 406, 407, 408, 409, 410, 411, 412, 413, 414, 415, 416, 417, 418, 419, 420, 421, 422, 423, 424, 425, 426, 427, 428, 429, 430, 431, 432, 433, 434, 435, 436, 437, 438, 439, 440, 441, 442, 443, 444, 445, 446, 447, 448, 449, 450, 451, 452, 453, 454, 455, 456, 457, 458, 459, 460, 461, 462, 463, 464, 465, 466, 467, 468, 469, 470, 471, 472, 473, 474, 475, 476, 477, 478, 479, 480, 481, 482, 483, 484, 485, 486, 487, 488, 489, 490],
      "AcquisitionTime": ["174228.777500", "174230.267500", "174231.757500", "174233.247500", "174234.737500", "174236.227500", "174237.717500", "174239.207500", "174240.697500", "174242.187500", "174243.677500", "174245.167500", "174246.657500", "174248.147500", "174249.637500", "174251.127500", "174252.617500", "174254.107500", "174255.597500", "174257.087500", "174258.577500", "174300.067500", "174301.557500", "174303.047500", "174304.537500", "174306.027500", "174307.517500", "174309.007500", "174310.497500", "174311.987500", "174313.477500", "174314.967500", "174316.457500", "174317.947500", "174319.437500", "174320.927500", "174322.417500", "174323.907500", "174325.397500", "174326.887500", "174328.377500", "174329.867500", "174331.357500", "174332.847500", "174334.337500", "174335.827500", "174337.317500", "174338.807500", "174340.297500", "174341.787500", "174343.277500", "174344.767500", "174346.257500", "174347.747500", "174349.237500", "174350.727500", "174352.217500", "174353.707500", "174355.197500", "174356.687500", "174358.177500", "174359.667500", "174401.157500", "174402.647500", "174404.137500", "174405.627500", "174407.117500", "174408.607500", "174410.097500", "174411.587500", "174413.077500", "174414.567500", "174416.057500", "174417.547500", "174419.037500", "174420.527500", "174422.017500", "174423.507500", "174424.997500", "174426.487500", "174427.977500", "174429.467500", "174430.957500", "174432.447500", "174433.937500", "174435.427500", "174436.917500", "174438.407500", "174439.897500", "174441.387500", "174442.877500", "174444.367500", "174445.857500", "174447.347500", "174448.837500", "174450.327500", "174451.817500", "174453.307500", "174454.797500", "174456.287500", "174457.777500", "174459.267500", "174500.757500", "174502.247500", "174503.737500", "174505.227500", "174506.717500", "174508.207500", "174509.697500", "174511.187500", "174512.677500", "174514.167500", "174515.657500", "174517.147500", "174518.637500", "174520.127500", "174521.617500", "174523.107500", "174524.597500", "174526.087500", "174527.577500", "174529.067500", "174530.557500", "174532.047500", "174533.537500", "174535.027500", "174536.517500", "174538.007500", "174539.497500", "174540.987500", "174542.477500", "174543.967500", "174545.457500", "174546.947500", "174548.437500", "174549.927500", "174551.417500", "174552.907500", "174554.397500", "174555.887500", "174557.377500", "174558.867500", "174600.357500", "174601.847500", "174603.337500", "174604.827500", "174606.317500", "174607.807500", "174609.297500", "174610.787500", "174612.277500", "174613.767500", "174615.257500", "174616.747500", "174618.237500", "174619.727500", "174621.217500", "174622.707500", "174624.197500", "174625.687500", "174627.177500", "174628.667500", "174630.157500", "174631.647500", "174633.137500", "174634.627500", "174636.117500", "174637.607500", "174639.097500", "174640.587500", "174642.077500", "174643.567500", "174645.057500", "174646.547500", "174648.037500", "174649.527500", "174651.017500", "174652.507500", "174653.997500", "174655.487500", "174656.977500", "174658.467500", "174659.957500", "174701.447500", "174702.937500", "174704.427500", "174705.917500", "174707.407500", "174708.897500", "174710.387500", "174711.877500", "174713.367500", "174714.857500", "174716.347500", "174717.837500", "174719.327500", "174720.817500", "174722.307500", "174723.797500", "174725.287500", "174726.777500", "174728.267500", "174729.757500", "174731.247500", "174732.737500", "174734.227500", "174735.717500", "174737.207500", "174738.697500", "174740.187500", "174741.677500", "174743.167500", "174744.657500", "174746.147500", "174747.637500", "174749.127500", "174750.617500", "174752.107500", "174753.597500", "174755.087500", "174756.577500", "174758.067500", "174759.557500", "174801.047500", "174802.537500", "174804.027500", "174805.517500", "174807.007500", "174808.497500", "174809.987500", "174811.477500", "174812.967500", "174814.457500", "174815.947500", "174817.437500", "174818.927500", "174820.417500", "174821.907500", "174823.397500", "174824.887500", "174826.377500", "174827.867500", "174829.357500", "174830.847500", "174832.337500", "174833.827500", "174835.317500", "174836.807500", "174838.297500", "174839.787500", "174841.277500", "174842.767500", "174844.257500", "174845.747500", "174847.237500", "174848.727500", "174850.217500", "174851.707500", "174853.197500", "174854.687500", "174856.177500", "174857.667500", "174859.157500", "174900.647500", "174902.137500", "174903.627500", "174905.117500", "174906.607500", "174908.097500", "174909.587500", "174911.077500", "174912.567500", "174914.057500", "174915.547500", "174917.037500", "174918.527500", "174920.017500", "174921.507500", "174922.997500", "174924.487500", "174925.977500", "174927.467500", "174928.957500", "174930.447500", "174931.937500", "174933.427500", "174934.917500", "174936.407500", "174937.897500", "174939.387500", "174940.877500", "174942.367500", "174943.857500", "174945.347500", "174946.837500", "174948.327500", "174949.817500", "174951.307500", "174952.797500", "174954.287500", "174955.777500", "174957.267500", "174958.757500", "175000.247500", "175001.737500", "175003.227500", "175004.717500", "175006.207500", "175007.697500", "175009.187500", "175010.677500", "175012.167500", "175013.657500", "175015.147500", "175016.637500", "175018.127500", "175019.617500", "175021.107500", "175022.597500", "175024.087500", "175025.577500", "175027.067500", "175028.557500", "175030.047500", "175031.537500", "175033.027500", "175034.517500", "175036.007500", "175037.497500", "175038.987500", "175040.477500", "175041.967500", "175043.457500", "175044.947500", "175046.437500", "175047.927500", "175049.417500", "175050.907500", "175052.397500", "175053.887500", "175055.377500", "175056.867500", "175058.357500", "175059.847500", "175101.337500", "175102.827500", "175104.317500", "175105.807500", "175107.297500", "175108.787500", "175110.277500", "175111.767500", "175113.257500", "175114.747500", "175116.237500", "175117.727500", "175119.217500", "175120.707500", "175122.197500", "175123.687500", "175125.177500", "175126.667500", "175128.157500", "175129.647500", "175131.137500", "175132.627500", "175134.117500", "175135.607500", "175137.097500", "175138.587500", "175140.077500", "175141.567500", "175143.057500", "175144.547500", "175146.037500", "175147.527500", "175149.017500", "175150.507500", "175151.997500", "175153.487500", "175154.977500", "175156.467500", "175157.957500", "175159.447500", "175200.937500", "175202.427500", "175203.917500", "175205.407500", "175206.897500", "175208.387500", "175209.877500", "175211.367500", "175212.857500", "175214.347500", "175215.837500", "175217.327500", "175218.817500", "175220.307500", "175221.797500", "175223.287500", "175224.777500", "175226.267500", "175227.757500", "175229.247500", "175230.737500", "175232.227500", "175233.717500", "175235.207500", "175236.697500", "175238.187500", "175239.677500", "175241.167500", "175242.657500", "175244.147500", "175245.637500", "175247.127500", "175248.617500", "175250.107500", "175251.597500", "175253.087500", "175254.577500", "175256.067500", "175257.557500", "175259.047500", "175300.537500", "175302.027500", "175303.517500", "175305.007500", "175306.497500", "175307.987500", "175309.477500", "175310.967500", "175312.457500", "175313.947500", "175315.437500", "175316.927500", "175318.417500", "175319.907500", "175321.397500", "175322.887500", "175324.377500", "175325.867500", "175327.357500", "175328.847500", "175330.337500", "175331.827500", "175333.317500", "175334.807500", "175336.297500", "175337.787500", "175339.277500", "175340.767500", "175342.257500", "175343.747500", "175345.237500", "175346.727500", "175348.217500", "175349.707500", "175351.197500", "175352.687500", "175354.177500", "175355.667500", "175357.157500", "175358.647500", "175400.137500", "175401.627500", "175403.117500", "175404.607500", "175406.097500", "175407.587500", "175409.077500", "175410.567500", "175412.057500", "175413.547500", "175415.037500", "175416.527500", "175418.017500", "175419.507500", "175420.997500", "175422.487500", "175423.977500", "175425.467500", "175426.957500", "175428.447500", "175429.937500", "175431.427500", "175432.917500", "175434.407500", "175435.897500", "175437.387500"],
      "ContentTime": ["174355.076000", "174355.080000", "174355.084000", "174355.087000", "174355.090000", "174355.094000", "174355.097000", "174355.101000", "174355.104000", "174355.107000", "174355.111000", "174355.114000", "174355.117000", "174355.121000", "174355.124000", "174355.128000", "174355.131000", "174355.134000", "174355.138000", "174355.145000", "174355.149000", "174355.152000", "174355.155000", "174355.159000", "174355.162000", "174355.165000", "174355.169000", "174355.172000", "174355.176000", "174355.179000", "174355.182000", "174415.040000", "174415.044000", "174415.048000", "174415.052000", "174415.057000", "174415.062000", "174415.065000", "174415.069000", "174415.072000", "174415.076000", "174415.079000", "174415.082000", "174415.086000", "174415.111000", "174415.114000", "174415.118000", "174415.121000", "174415.125000", "174415.128000", "174415.131000", "174435.040000", "174435.044000", "174435.047000", "174435.051000", "174435.054000", "174435.058000", "174435.061000", "174435.064000", "174435.068000", "174435.071000", "174435.074000", "174435.078000", "174435.081000", "174435.085000", "174435.097000", "174435.100000", "174435.103000", "174435.107000", "174435.110000", "174435.114000", "174435.117000", "174455.040000", "174455.044000", "174455.047000", "174455.051000", "174455.054000", "174455.057000", "174455.061000", "174455.064000", "174455.068000", "174455.071000", "174455.074000", "174455.078000", "174455.081000", "174455.085000", "174455.088000", "174455.098000", "174455.101000", "174455.105000", "174455.108000", "174455.112000", "174535.040000", "174535.043000", "174535.047000", "174535.050000", "174535.053000", "174535.057000", "174535.060000", "174535.064000", "174535.067000", "174535.070000", "174535.074000", "174535.077000", "174535.081000", "174535.084000", "174535.087000", "174535.091000", "174535.094000", "174535.098000", "174535.101000", "174535.104000", "174535.108000", "174535.111000", "174535.115000", "174535.118000", "174535.121000", "174535.125000", "174535.128000", "174535.132000", "174535.135000", "174535.138000", "174535.142000", "174535.145000", "174615.039000", "174615.043000", "174615.046000", "174615.050000", "174615.054000", "174615.057000", "174615.061000", "174615.064000", "174615.068000", "174615.071000", "174615.074000", "174615.078000", "174615.081000", "174615.085000", "174615.088000", "174615.099000", "174615.103000", "174615.106000", "174615.110000", "174615.113000", "174615.116000", "174615.120000", "174615.123000", "174615.127000", "174615.130000", "174615.133000", "174615.137000", "174655.040000", "174655.044000", "174655.047000", "174655.051000", "174655.054000", "174655.058000", "174655.061000", "174655.064000", "174655.068000", "174655.071000", "174655.075000", "174655.078000", "174655.082000", "174655.085000", "174655.088000", "174655.092000", "174655.095000", "174655.104000", "174655.107000", "174655.111000", "174655.114000", "174655.118000", "174655.121000", "174655.124000", "174655.128000", "174655.131000", "174655.135000", "174735.039000", "174735.043000", "174735.046000", "174735.050000", "174735.053000", "174735.057000", "174735.060000", "174735.063000", "174735.081000", "174735.084000", "174735.088000", "174735.091000", "174735.094000", "174735.098000", "174735.101000", "174735.105000", "174735.108000", "174735.111000", "174735.115000", "174735.118000", "174735.122000", "174735.125000", "174735.128000", "174735.132000", "174735.135000", "174735.139000", "174735.142000", "174815.040000", "174815.044000", "174815.047000", "174815.051000", "174815.054000", "174815.058000", "174815.061000", "174815.065000", "174815.068000", "174815.071000", "174815.075000", "174815.078000", "174815.082000", "174815.085000", "174815.092000", "174815.096000", "174815.099000", "174815.103000", "174815.106000", "174815.110000", "174815.113000", "174815.116000", "174815.120000", "174815.123000", "174815.127000", "174815.130000", "174855.040000", "174855.044000", "174855.048000", "174855.051000", "174855.054000", "174855.058000", "174855.061000", "174855.065000", "174855.068000", "174855.072000", "174855.075000", "174855.078000", "174855.082000", "174855.086000", "174855.089000", "174855.092000", "174855.096000", "174855.099000", "174855.103000", "174855.106000", "174855.110000", "174855.113000", "174855.116000", "174855.120000", "174855.123000", "174855.127000", "174855.130000", "174935.039000", "174935.043000", "174935.047000", "174935.050000", "174935.053000", "174935.057000", "174935.060000", "174935.064000", "174935.067000", "174935.071000", "174935.074000", "174935.078000", "174935.081000", "174935.084000", "174935.088000", "174935.091000", "174935.095000", "174935.098000", "174935.101000", "174935.105000", "174935.108000", "174935.112000", "174935.115000", "174935.118000", "174935.122000", "174935.125000", "174935.129000", "175015.039000", "175015.043000", "175015.047000", "175015.050000", "175015.053000", "175015.057000", "175015.060000", "175015.064000", "175015.067000", "175015.071000", "175015.074000", "175015.078000", "175015.081000", "175015.085000", "175015.088000", "175015.091000", "175015.095000", "175015.098000", "175015.102000", "175015.105000", "175015.108000", "175015.112000", "175015.115000", "175015.119000", "175015.122000", "175015.125000", "175015.129000", "175035.040000", "175035.043000", "175035.046000", "175035.050000", "175035.054000", "175035.057000", "175035.060000", "175035.064000", "175035.068000", "175035.071000", "175035.074000", "175035.078000", "175035.081000", "175115.040000", "175115.044000", "175115.048000", "175115.051000", "175115.054000", "175115.058000", "175115.061000", "175115.065000", "175115.068000", "175115.072000", "175115.075000", "175115.079000", "175115.082000", "175115.085000", "175115.089000", "175115.092000", "175115.096000", "175115.099000", "175115.102000", "175115.106000", "175115.109000", "175115.113000", "175115.116000", "175115.119000", "175115.123000", "175115.126000", "175115.129000", "175155.039000", "175155.043000", "175155.046000", "175155.058000", "175155.062000", "175155.065000", "175155.069000", "175155.072000", "175155.076000", "175155.079000", "175155.082000", "175155.086000", "175155.089000", "175155.093000", "175155.096000", "175155.100000", "175155.103000", "175155.107000", "175155.110000", "175155.114000", "175155.117000", "175155.121000", "175155.124000", "175155.128000", "175155.131000", "175155.135000", "175155.138000", "175235.039000", "175235.043000", "175235.046000", "175235.050000", "175235.053000", "175235.057000", "175235.060000", "175235.063000", "175235.067000", "175235.070000", "175235.074000", "175235.077000", "175235.081000", "175235.084000", "175235.088000", "175235.091000", "175235.094000", "175235.098000", "175235.101000", "175235.105000", "175235.108000", "175235.111000", "175235.115000", "175235.118000", "175235.122000", "175235.125000", "175235.129000", "175315.039000", "175315.043000", "175315.047000", "175315.050000", "175315.054000", "175315.057000", "175315.060000", "175315.064000", "175315.067000", "175315.071000", "175315.074000", "175315.078000", "175315.081000", "175315.085000", "175315.088000", "175315.092000", "175315.095000", "175315.106000", "175315.109000", "175315.113000", "175315.116000", "175315.119000", "175315.123000", "175315.126000", "175315.130000", "175315.133000", "175315.136000", "175355.040000", "175355.044000", "175355.048000", "175355.051000", "175355.054000", "175355.058000", "175355.061000", "175355.065000", "175355.068000", "175355.072000", "175355.075000", "175355.078000", "175355.082000", "175355.085000", "175355.088000", "175355.092000", "175355.095000", "175355.099000", "175355.102000", "175355.106000", "175355.109000", "175355.113000", "175355.116000", "175355.119000", "175355.123000", "175355.126000", "175355.130000", "175435.039000", "175435.043000", "175435.047000", "175435.050000", "175435.053000", "175435.057000", "175435.060000", "175435.064000", "175435.067000", "175435.070000", "175435.074000", "175435.077000", "175435.081000", "175435.084000", "175435.088000", "175435.091000", "175435.094000", "175435.098000", "175435.101000", "175435.105000", "175435.110000", "175435.115000", "175435.118000", "175435.122000", "175435.126000", "175435.130000", "175440.297000", "175440.300000", "175440.304000", "175440.307000"],
