{
  "AcquisitionMatrixPE": 104,
  "AcquisitionNumber": 1,
  "AcquisitionTime": "18:08:17.890000",
  "BandwidthPerPixelPhaseEncode": 17.17,
  "BaseResolution": 104,
  "BodyPartExamined": "BRAIN",
  "CoilCombinationMethod": "Sum of Squares",
  "ConsistencyInfo": "N4_VE11C_LATEST_20160120",
  "ConversionSoftware": "dcm2niix",
  "ConversionSoftwareVersion": "v1.0.20211006",
  "DerivedVendorReportedEchoSpacing": 0.000560011,
  "DeviceSerialNumber": "167006",
  "DwellTime": 2.1e-06,
  "EchoTime": 0.037,
  "EchoTime1": 0.037,
  "EchoTime2": 0.001,
  "EchoTrainLength": 104,
  "EffectiveEchoSpacing": 0.000560011,
  "FlipAngle": 52,
  "HeudiconvVersion": "0.11.3.post9+gc939bf8",
  "ImageComments": "Unaliased MB4/PE3/LB",
  "ImageOrientationPatientDICOM": [0.996493, 0.078979, 0.0276388, -0.064091, 0.932779, -0.354706],
  "ImageOrientationText": "Tra>Cor(-20.6)>Sag(3.1)",
  "ImageType": [
    "ORIGINAL",
    "PRIMARY",
    "P",
    "MB",
    "ND",
    "MOSAIC",
    "PHASE"
],
  "ImagingFrequency": 123.259,
  "InPlanePhaseEncodingDirectionDICOM": "COL",
  "InstitutionAddress": "Chemin Queen-Mary 4565,Montreal,District,CA,H3W 1W5",
  "InstitutionName": "IUGM",
  "InstitutionalDepartmentName": "Department",
  "MRAcquisitionType": "2D",
  "MagneticFieldStrength": 3,
  "Manufacturer": "Siemens",
  "ManufacturersModelName": "Prisma_fit",
  "MatrixCoilMode": "SENSE",
  "Modality": "MR",
  "MultibandAccelerationFactor": 4,
  "PartialFourier": 1,
  "PatientPosition": "HFS",
  "PercentPhaseFOV": 100,
  "PercentSampling": 100,
  "PhaseEncodingDirection": "j",
  "PhaseEncodingSteps": 104,
  "PhaseResolution": 1,
  "PixelBandwidth": 2290,
  "ProcedureStepDescription": "games^mariostars",
  "ProtocolName": "func_task-mariostars_run-04",
  "PulseSequenceDetails": "%CustomerSeq%\\cmrr_mbep2d_bold",
  "ReceiveCoilActiveElements": "HC1-7;NC1,2",
  "ReceiveCoilName": "HeadNeck_64",
  "ReconMatrixPE": 104,
  "RepetitionTime": 1.49,
  "SAR": 0.0480155,
  "ScanOptions": "FS",
  "ScanningSequence": "EP",
  "SequenceName": "epfid2d1_104",
  "SequenceVariant": "SK\\SS",
  "SeriesDescription": "func_task-mariostars_run-04",
  "SeriesNumber": 20,
  "ShimSetting": [628, -7193, -8854, 623, 90, -12, -37, -10],
  "SliceThickness": 2,
  "SliceTiming": [0, 0.785, 0.0975, 0.8825, 0.1975, 0.98, 0.295, 1.0775, 0.3925, 1.1775, 0.49, 1.275, 0.5875, 1.3725, 0.6875, 0, 0.785, 0.0975, 0.8825, 0.1975, 0.98, 0.295, 1.0775, 0.3925, 1.1775, 0.49, 1.275, 0.5875, 1.3725, 0.6875, 0, 0.785, 0.0975, 0.8825, 0.1975, 0.98, 0.295, 1.0775, 0.3925, 1.1775, 0.49, 1.275, 0.5875, 1.3725, 0.6875, 0, 0.785, 0.0975, 0.8825, 0.1975, 0.98, 0.295, 1.0775, 0.3925, 1.1775, 0.49, 1.275, 0.5875, 1.3725, 0.6875],
  "SoftwareVersions": "syngo MR E11",
  "SpacingBetweenSlices": 2,
  "StationName": "MRC35049",
  "TaskName": "mariostars",
  "TotalReadoutTime": 0.0576811,
  "TxRefAmp": 263.954,
  "WipMemBlock": "5c25544e-0b93-442f-b5d5-d7e89ac65aa5||Sequence: R016 ve11c/master r/e634e98; Dec 19 2017 11:00:25 by eja",
  "dcmmeta_affine": [
    [-1.9929860830307007, -0.12818199396133423, 0.1075904443860054, 109.67092895507812],
    [-0.15795792639255524, 1.865557312965393, -0.7033812403678894, -52.33819580078125],
    [0.055277660489082336, 0.7094119191169739, 1.8691385984420776, -74.058349609375],
    [0.0, 0.0, 0.0, 1.0]
],
  "dcmmeta_reorient_transform": [
    [0.0, -1.0, 0.0, 103.0],
    [1.0, 0.0, 0.0, 0.0],
    [0.0, 0.0, 1.0, 0.0],
    [0.0, 0.0, 0.0, 1.0]
],
  "dcmmeta_shape": [104, 104, 60, 448],
  "dcmmeta_slice_dim": 2,
  "dcmmeta_version": 0.6,
  "global": {
    "const": {
      "AcquisitionMatrix": [104, 0, 0, 104],
      "AngioFlag": "N",
      "BitsAllocated": 16,
      "BitsStored": 16,
      "BodyPartExamined": "BRAIN",
      "Columns": 832,
      "EchoNumbers": 1,
      "EchoTime": 37.0,
      "EchoTrainLength": 104,
      "FlipAngle": 52.0,
      "HighBit": 15,
      "ImageOrientationPatient": [0.99649305982476, 0.07897896387365, 0.02763883113551, -0.0640909970004, 0.93277865770149, -0.35470596251],
      "ImagePositionPatient": [-775.25688399667, -876.37375655579, 237.11595086824],
      "ImageType": [
        "ORIGINAL",
        "PRIMARY",
        "P",
        "MB",
        "ND",
        "MOSAIC"
],
      "ImagedNucleus": "1H",
      "ImagingFrequency": 123.258863,
      "InPlanePhaseEncodingDirection": "COL",
      "LargestImagePixelValue": 4095,
      "MRAcquisitionType": "2D",
      "MagneticFieldStrength": 3.0,
      "Manufacturer": "SIEMENS",
      "ManufacturerModelName": "Prisma_fit",
      "Modality": "MR",
      "NumberOfAverages": 1.0,
      "NumberOfPhaseEncodingSteps": 104,
      "PercentPhaseFieldOfView": 100.0,
      "PercentSampling": 100.0,
      "PerformedProcedureStepStartTime": "165705.926000",
      "PhotometricInterpretation": "MONOCHROME2",
      "PixelBandwidth": 2290.0,
      "PixelRepresentation": 0,
      "PixelSpacing": [2.0, 2.0],
      "ProtocolName": "func_task-mariostars_run-04",
      "RepetitionTime": 1490.0,
      "RescaleIntercept": -4096.0,
      "RescaleSlope": 2.0,
      "RescaleType": "US",
      "Rows": 832,
      "SAR": 0.04801549362728,
      "SamplesPerPixel": 1,
      "ScanOptions": "FS",
      "ScanningSequence": "EP",
      "SequenceName": "epfid2d1_104",
      "SequenceVariant": [
        "SK",
        "SS"
],
      "SeriesDescription": "func_task-mariostars_run-04",
      "SeriesNumber": 20,
      "SeriesTime": "180947.660000",
      "SliceLocation": -44.906034655711,
      "SliceThickness": 2.0,
      "SmallestImagePixelValue": 0,
      "SoftwareVersions": "syngo MR E11",
      "SpacingBetweenSlices": 2.0000000107472,
      "SpecificCharacterSet": "ISO_IR 100",
      "StudyID": "1",
      "StudyTime": "165705.861000",
      "TransmitCoilName": "Body",
      "VariableFlipAngleFlag": "N",
      "WindowCenterWidthExplanation": "Algo1",
      "dBdt": 0.0},
    "slices": {}
  },
  "time": {
    "samples": {
      "AcquisitionNumber": [1, 2, 3, 4, 5, 6, 7, 8, 9, 10, 11, 12, 13, 14, 15, 16, 17, 18, 19, 20, 21, 22, 23, 24, 25, 26, 27, 28, 29, 30, 31, 32, 33, 34, 35, 36, 37, 38, 39, 40, 41, 42, 43, 44, 45, 46, 47, 48, 49, 50, 51, 52, 53, 54, 55, 56, 57, 58, 59, 60, 61, 62, 63, 64, 65, 66, 67, 68, 69, 70, 71, 72, 73, 74, 75, 76, 77, 78, 79, 80, 81, 82, 83, 84, 85, 86, 87, 88, 89, 90, 91, 92, 93, 94, 95, 96, 97, 98, 99, 100, 101, 102, 103, 104, 105, 106, 107, 108, 109, 110, 111, 112, 113, 114, 115, 116, 117, 118, 119, 120, 121, 122, 123, 124, 125, 126, 127, 128, 129, 130, 131, 132, 133, 134, 135, 136, 137, 138, 139, 140, 141, 142, 143, 144, 145, 146, 147, 148, 149, 150, 151, 152, 153, 154, 155, 156, 157, 158, 159, 160, 161, 162, 163, 164, 165, 166, 167, 168, 169, 170, 171, 172, 173, 174, 175, 176, 177, 178, 179, 180, 181, 182, 183, 184, 185, 186, 187, 188, 189, 190, 191, 192, 193, 194, 195, 196, 197, 198, 199, 200, 201, 202, 203, 204, 205, 206, 207, 208, 209, 210, 211, 212, 213, 214, 215, 216, 217, 218, 219, 220, 221, 222, 223, 224, 225, 226, 227, 228, 229, 230, 231, 232, 233, 234, 235, 236, 237, 238, 239, 240, 241, 242, 243, 244, 245, 246, 247, 248, 249, 250, 251, 252, 253, 254, 255, 256, 257, 258, 259, 260, 261, 262, 263, 264, 265, 266, 267, 268, 269, 270, 271, 272, 273, 274, 275, 276, 277, 278, 279, 280, 281, 282, 283, 284, 285, 286, 287, 288, 289, 290, 291, 292, 293, 294, 295, 296, 297, 298, 299, 300, 301, 302, 303, 304, 305, 306, 307, 308, 309, 310, 311, 312, 313, 314, 315, 316, 317, 318, 319, 320, 321, 322, 323, 324, 325, 326, 327, 328, 329, 330, 331, 332, 333, 334, 335, 336, 337, 338, 339, 340, 341, 342, 343, 344, 345, 346, 347, 348, 349, 350, 351, 352, 353, 354, 355, 356, 357, 358, 359, 360, 361, 362, 363, 364, 365, 366, 367, 368, 369, 370, 371, 372, 373, 374, 375, 376, 377, 378, 379, 380, 381, 382, 383, 384, 385, 386, 387, 388, 389, 390, 391, 392, 393, 394, 395, 396, 397, 398, 399, 400, 401, 402, 403, 404, 405, 406, 407, 408, 409, 410, 411, 412, 413, 414, 415, 416, 417, 418, 419, 420, 421, 422, 423, 424, 425, 426, 427, 428, 429, 430, 431, 432, 433, 434, 435, 436, 437, 438, 439, 440, 441, 442, 443, 444, 445, 446, 447, 448],
      "AcquisitionTime": ["180817.890000", "180819.380000", "180820.870000", "180822.360000", "180823.850000", "180825.340000", "180826.830000", "180828.320000", "180829.810000", "180831.300000", "180832.790000", "180834.280000", "180835.770000", "180837.260000", "180838.750000", "180840.240000", "180841.730000", "180843.220000", "180844.710000", "180846.200000", "180847.690000", "180849.180000", "180850.670000", "180852.160000", "180853.650000", "180855.140000", "180856.630000", "180858.120000", "180859.610000", "180901.100000", "180902.590000", "180904.080000", "180905.570000", "180907.060000", "180908.550000", "180910.040000", "180911.530000", "180913.020000", "180914.510000", "180916.000000", "180917.490000", "180918.980000", "180920.470000", "180921.960000", "180923.450000", "180924.940000", "180926.430000", "180927.920000", "180929.410000", "180930.900000", "180932.390000", "180933.880000", "180935.370000", "180936.860000", "180938.350000", "180939.840000", "180941.330000", "180942.820000", "180944.310000", "180945.800000", "180947.290000", "180948.780000", "180950.270000", "180951.760000", "180953.250000", "180954.740000", "180956.230000", "180957.720000", "180959.210000", "181000.700000", "181002.190000", "181003.680000", "181005.170000", "181006.660000", "181008.150000", "181009.640000", "181011.130000", "181012.620000", "181014.110000", "181015.600000", "181017.090000", "181018.580000", "181020.070000", "181021.560000", "181023.050000", "181024.540000", "181026.030000", "181027.520000", "181029.010000", "181030.500000", "181031.990000", "181033.480000", "181034.970000", "181036.460000", "181037.950000", "181039.440000", "181040.930000", "181042.420000", "181043.910000", "181045.400000", "181046.890000", "181048.380000", "181049.870000", "181051.360000", "181052.850000", "181054.340000", "181055.830000", "181057.320000", "181058.810000", "181100.300000", "181101.790000", "181103.280000", "181104.770000", "181106.260000", "181107.750000", "181109.240000", "181110.730000", "181112.220000", "181113.710000", "181115.200000", "181116.690000", "181118.180000", "181119.670000", "181121.160000", "181122.650000", "181124.140000", "181125.630000", "181127.120000", "181128.610000", "181130.100000", "181131.590000", "181133.080000", "181134.570000", "181136.060000", "181137.550000", "181139.040000", "181140.530000", "181142.020000", "181143.510000", "181145.000000", "181146.490000", "181147.980000", "181149.470000", "181150.960000", "181152.450000", "181153.940000", "181155.430000", "181156.920000", "181158.410000", "181159.900000", "181201.390000", "181202.880000", "181204.370000", "181205.860000", "181207.350000", "181208.840000", "181210.330000", "181211.820000", "181213.310000", "181214.800000", "181216.290000", "181217.780000", "181219.270000", "181220.760000", "181222.250000", "181223.740000", "181225.230000", "181226.720000", "181228.210000", "181229.700000", "181231.190000", "181232.680000", "181234.170000", "181235.660000", "181237.150000", "181238.640000", "181240.130000", "181241.620000", "181243.110000", "181244.600000", "181246.090000", "181247.580000", "181249.070000", "181250.560000", "181252.050000", "181253.540000", "181255.030000", "181256.520000", "181258.010000", "181259.500000", "181300.990000", "181302.480000", "181303.970000", "181305.460000", "181306.950000", "181308.440000", "181309.930000", "181311.420000", "181312.910000", "181314.400000", "181315.890000", "181317.380000", "181318.870000", "181320.360000", "181321.850000", "181323.340000", "181324.830000", "181326.320000", "181327.810000", "181329.300000", "181330.790000", "181332.280000", "181333.770000", "181335.260000", "181336.750000", "181338.240000", "181339.730000", "181341.220000", "181342.710000", "181344.200000", "181345.690000", "181347.180000", "181348.670000", "181350.160000", "181351.650000", "181353.140000", "181354.630000", "181356.120000", "181357.610000", "181359.100000", "181400.590000", "181402.080000", "181403.570000", "181405.060000", "181406.550000", "181408.040000", "181409.530000", "181411.020000", "181412.510000", "181414.000000", "181415.490000", "181416.980000", "181418.470000", "181419.960000", "181421.450000", "181422.940000", "181424.430000", "181425.920000", "181427.410000", "181428.900000", "181430.390000", "181431.880000", "181433.370000", "181434.860000", "181436.350000", "181437.840000", "181439.330000", "181440.820000", "181442.310000", "181443.800000", "181445.290000", "181446.780000", "181448.270000", "181449.760000", "181451.250000", "181452.740000", "181454.230000", "181455.720000", "181457.210000", "181458.700000", "181500.190000", "181501.680000", "181503.170000", "181504.660000", "181506.150000", "181507.640000", "181509.130000", "181510.620000", "181512.110000", "181513.600000", "181515.090000", "181516.580000", "181518.070000", "181519.560000", "181521.050000", "181522.540000", "181524.030000", "181525.520000", "181527.010000", "181528.500000", "181529.990000", "181531.480000", "181532.970000", "181534.460000", "181535.950000", "181537.440000", "181538.930000", "181540.420000", "181541.910000", "181543.400000", "181544.890000", "181546.380000", "181547.870000", "181549.360000", "181550.850000", "181552.340000", "181553.830000", "181555.320000", "181556.810000", "181558.300000", "181559.790000", "181601.280000", "181602.770000", "181604.260000", "181605.750000", "181607.240000", "181608.730000", "181610.220000", "181611.710000", "181613.200000", "181614.690000", "181616.180000", "181617.670000", "181619.160000", "181620.650000", "181622.140000", "181623.630000", "181625.120000", "181626.610000", "181628.100000", "181629.590000", "181631.080000", "181632.570000", "181634.060000", "181635.550000", "181637.040000", "181638.530000", "181640.020000", "181641.510000", "181643.000000", "181644.490000", "181645.980000", "181647.470000", "181648.960000", "181650.450000", "181651.940000", "181653.430000", "181654.920000", "181656.410000", "181657.900000", "181659.390000", "181700.880000", "181702.370000", "181703.860000", "181705.350000", "181706.840000", "181708.330000", "181709.820000", "181711.310000", "181712.800000", "181714.290000", "181715.780000", "181717.270000", "181718.760000", "181720.250000", "181721.740000", "181723.230000", "181724.720000", "181726.210000", "181727.700000", "181729.190000", "181730.680000", "181732.170000", "181733.660000", "181735.150000", "181736.640000", "181738.130000", "181739.620000", "181741.110000", "181742.600000", "181744.090000", "181745.580000", "181747.070000", "181748.560000", "181750.050000", "181751.540000", "181753.030000", "181754.520000", "181756.010000", "181757.500000", "181758.990000", "181800.480000", "181801.970000", "181803.460000", "181804.950000", "181806.440000", "181807.930000", "181809.420000", "181810.910000", "181812.400000", "181813.890000", "181815.380000", "181816.870000", "181818.360000", "181819.850000", "181821.340000", "181822.830000", "181824.320000", "181825.810000", "181827.300000", "181828.790000", "181830.280000", "181831.770000", "181833.260000", "181834.750000", "181836.240000", "181837.730000", "181839.220000", "181840.710000", "181842.200000", "181843.690000", "181845.180000", "181846.670000", "181848.160000", "181849.650000", "181851.140000", "181852.630000", "181854.120000", "181855.610000", "181857.100000", "181858.590000", "181900.080000", "181901.570000", "181903.060000", "181904.550000", "181906.040000", "181907.530000", "181909.020000", "181910.510000", "181912.000000", "181913.490000", "181914.980000", "181916.470000", "181917.960000", "181919.450000", "181920.940000", "181922.430000", "181923.920000"],
      "ContentTime": ["180947.662000", "180947.665000", "180947.668000", "180947.670000", "180947.673000", "180947.675000", "180947.678000", "180947.680000", "180947.683000", "180947.698000", "180947.701000", "180947.703000", "180947.706000", "180947.708000", "180947.711000", "180947.713000", "180947.716000", "180947.718000", "180947.721000", "180947.723000", "180947.726000", "180947.728000", "180947.731000", "180947.733000", "180947.736000", "180947.739000", "180947.741000", "180947.744000", "180947.746000", "180947.749000", "180947.751000", "180947.754000", "180947.756000", "181007.572000", "181007.575000", "181007.578000", "181007.580000", "181007.583000", "181007.586000", "181007.588000", "181007.591000", "181007.593000", "181007.596000", "181007.598000", "181007.601000", "181007.603000", "181007.606000", "181007.609000", "181007.611000", "181007.614000", "181007.616000", "181007.619000", "181007.621000", "181027.567000", "181027.569000", "181027.572000", "181027.575000", "181027.578000", "181027.580000", "181027.583000", "181027.585000", "181027.588000", "181027.590000", "181027.593000", "181027.596000", "181027.598000", "181027.601000", "181027.604000", "181027.607000", "181027.612000", "181027.615000", "181027.618000", "181027.620000", "181047.645000", "181047.648000", "181047.657000", "181047.659000", "181047.662000", "181047.665000", "181047.667000", "181047.670000", "181047.672000", "181047.675000", "181047.678000", "181047.680000", "181047.683000", "181047.685000", "181047.688000", "181047.691000", "181047.693000", "181047.696000", "181047.698000", "181047.701000", "181107.570000", "181107.573000", "181107.575000", "181107.578000", "181107.581000", "181107.583000", "181107.586000", "181107.588000", "181107.591000", "181107.593000", "181107.596000", "181107.598000", "181107.601000", "181107.604000", "181107.606000", "181107.609000", "181107.611000", "181107.614000", "181107.617000", "181107.619000", "181147.600000", "181147.603000", "181147.606000", "181147.608000", "181147.611000", "181147.613000", "181147.616000", "181147.618000", "181147.621000", "181147.624000", "181147.626000", "181147.629000", "181147.631000", "181147.634000", "181147.637000", "181147.639000", "181147.642000", "181147.644000", "181147.647000", "181147.649000", "181147.652000", "181147.654000", "181147.657000", "181147.660000", "181147.662000", "181147.665000", "181147.667000", "181227.602000", "181227.605000", "181227.607000", "181227.610000", "181227.613000", "181227.615000", "181227.618000", "181227.620000", "181227.623000", "181227.625000", "181227.628000", "181227.630000", "181227.633000", "181227.635000", "181227.638000", "181227.640000", "181227.643000", "181227.646000", "181227.648000", "181227.651000", "181227.657000", "181227.660000", "181227.663000", "181227.665000", "181227.668000", "181227.670000", "181227.673000", "181307.599000", "181307.602000", "181307.605000", "181307.607000", "181307.610000", "181307.612000", "181307.615000", "181307.617000", "181307.620000", "181307.622000", "181307.625000", "181307.627000", "181307.630000", "181307.632000", "181307.635000", "181307.638000", "181307.640000", "181307.643000", "181307.645000", "181307.648000", "181307.650000", "181307.653000", "181307.655000", "181307.658000", "181307.660000", "181307.663000", "181307.665000", "181347.607000", "181347.610000", "181347.612000", "181347.615000", "181347.618000", "181347.620000", "181347.623000", "181347.625000", "181347.628000", "181347.630000", "181347.633000", "181347.635000", "181347.638000", "181347.641000", "181347.643000", "181347.646000", "181347.649000", "181347.651000", "181347.654000", "181347.656000", "181347.659000", "181347.661000", "181347.664000", "181347.666000", "181347.669000", "181347.672000", "181347.674000", "181427.597000", "181427.600000", "181427.602000", "181427.605000", "181427.608000", "181427.610000", "181427.622000", "181427.625000", "181427.627000", "181427.630000", "181427.633000", "181427.635000", "181427.638000", "181427.640000", "181427.643000", "181427.646000", "181427.648000", "181427.651000", "181427.653000", "181427.656000", "181427.658000", "181427.661000", "181427.663000", "181427.666000", "181427.668000", "181427.671000", "181508.017000", "181508.019000", "181508.022000", "181508.025000", "181508.027000", "181508.030000", "181508.032000", "181508.035000", "181508.037000", "181508.040000", "181508.042000", "181508.045000", "181508.048000", "181508.050000", "181508.053000", "181508.055000", "181508.058000", "181508.060000", "181508.063000", "181508.065000", "181508.068000", "181508.071000", "181508.073000", "181508.076000", "181508.078000", "181508.081000", "181508.083000", "181547.597000", "181547.599000", "181547.602000", "181547.605000", "181547.607000", "181547.610000", "181547.612000", "181547.615000", "181547.617000", "181547.620000", "181547.622000", "181547.625000", "181547.627000", "181547.630000", "181547.639000", "181547.642000", "181547.644000", "181547.647000", "181547.650000", "181547.652000", "181547.655000", "181547.657000", "181547.660000", "181547.662000", "181547.665000", "181547.667000", "181547.670000", "181627.605000", "181627.607000", "181627.610000", "181627.613000", "181627.615000", "181627.618000", "181627.620000", "181627.623000", "181627.625000", "181627.628000", "181627.630000", "181627.633000", "181627.636000", "181627.638000", "181627.641000", "181627.643000", "181627.646000", "181627.648000", "181627.651000", "181627.653000", "181627.656000", "181627.658000", "181627.661000", "181627.663000", "181627.666000", "181627.669000", "181627.671000", "181707.595000", "181707.598000", "181707.601000", "181707.603000", "181707.606000", "181707.608000", "181707.611000", "181707.613000", "181707.616000", "181707.619000", "181707.621000", "181707.624000", "181707.626000", "181707.629000", "181707.631000", "181707.634000", "181707.636000", "181707.639000", "181707.641000", "181707.644000", "181707.646000", "181707.649000", "181707.652000", "181707.654000", "181707.657000", "181707.659000", "181707.662000", "181747.598000", "181747.601000", "181747.604000", "181747.606000", "181747.609000", "181747.612000", "181747.614000", "181747.617000", "181747.620000", "181747.622000", "181747.625000", "181747.627000", "181747.630000", "181747.632000", "181747.635000", "181747.637000", "181747.640000", "181747.643000", "181747.645000", "181747.648000", "181747.650000", "181747.653000", "181747.656000", "181747.658000", "181747.661000", "181747.663000", "181747.666000", "181827.601000", "181827.604000", "181827.606000", "181827.614000", "181827.616000", "181827.619000", "181827.622000", "181827.624000", "181827.627000", "181827.629000", "181827.632000", "181827.634000", "181827.637000", "181827.639000", "181827.642000", "181827.644000", "181827.647000", "181827.649000", "181827.652000", "181827.655000", "181827.657000", "181827.660000", "181827.662000", "181827.665000", "181827.667000", "181827.670000", "181907.586000", "181907.589000", "181907.592000", "181907.594000", "181907.597000", "181907.599000", "181907.602000", "181907.605000", "181907.607000", "181907.611000", "181907.614000", "181907.617000", "181907.626000", "181907.628000", "181907.631000", "181907.634000", "181907.636000", "181907.639000", "181907.641000", "181907.644000", "181907.646000", "181907.649000", "181907.652000", "181907.654000", "181907.657000", "181907.659000", "181907.662000", "181926.511000", "181926.514000", "181926.517000", "181926.519000", "181926.522000", "181926.525000", "181926.527000", "181926.530000", "181926.532000", "181926.535000", "181926.537000", "181926.540000", "181926.542000"],
