{
  "AcquisitionMatrixPE": 104,
  "AcquisitionNumber": 1,
  "AcquisitionTime": "15:30:56.482500",
  "BandwidthPerPixelPhaseEncode": 17.17,
  "BaseResolution": 104,
  "BodyPartExamined": "BRAIN",
  "CoilCombinationMethod": "Sum of Squares",
  "ConsistencyInfo": "N4_VE11C_LATEST_20160120",
  "ConversionSoftware": "dcm2niix",
  "ConversionSoftwareVersion": "v1.0.20211006",
  "DerivedVendorReportedEchoSpacing": 0.000560011,
  "DeviceSerialNumber": "167006",
  "DwellTime": 2.1e-06,
  "EchoTime": 0.037,
  "EchoTrainLength": 104,
  "EffectiveEchoSpacing": 0.000560011,
  "FlipAngle": 52,
  "HeudiconvVersion": "0.11.3.post9+gc939bf8",
  "ImageComments": "Unaliased MB4/PE3/LB",
  "ImageOrientationPatientDICOM": [0.999946, -0.0102375, -0.00185441, 0.00907549, 0.945441, -0.325668],
  "ImageOrientationText": "Tra>Cor(-19.0)>Sag(-0.3)",
  "ImageType": [
    "ORIGINAL",
    "PRIMARY",
    "M",
    "MB",
    "ND",
    "MOSAIC"
],
  "ImagingFrequency": 123.259,
  "InPlanePhaseEncodingDirectionDICOM": "COL",
  "InstitutionAddress": "Chemin Queen-Mary 4565,Montreal,District,CA,H3W 1W5",
  "InstitutionName": "IUGM",
  "InstitutionalDepartmentName": "Department",
  "MRAcquisitionType": "2D",
  "MagneticFieldStrength": 3,
  "Manufacturer": "Siemens",
  "ManufacturersModelName": "Prisma_fit",
  "MatrixCoilMode": "SENSE",
  "Modality": "MR",
  "MultibandAccelerationFactor": 4,
  "PartialFourier": 1,
  "PatientPosition": "HFS",
  "PercentPhaseFOV": 100,
  "PercentSampling": 100,
  "PhaseEncodingDirection": "j",
  "PhaseEncodingSteps": 104,
  "PhaseResolution": 1,
  "PixelBandwidth": 2290,
  "ProcedureStepDescription": "games^mariostars",
  "ProtocolName": "func_task-mariostars_run-01",
  "PulseSequenceDetails": "%CustomerSeq%\\cmrr_mbep2d_bold",
  "ReceiveCoilActiveElements": "HC1-7;NC1,2",
  "ReceiveCoilName": "HeadNeck_64",
  "ReconMatrixPE": 104,
  "RepetitionTime": 1.49,
  "SAR": 0.0320991,
  "ScanOptions": "FS",
  "ScanningSequence": "EP",
  "SequenceName": "epfid2d1_104",
  "SequenceVariant": "SK\\SS",
  "SeriesDescription": "func_task-mariostars_run-01",
  "SeriesNumber": 10,
  "ShimSetting": [625, -7278, -8821, 542, 39, -264, -32, 4],
  "SliceThickness": 2,
  "SliceTiming": [0, 0.785, 0.0975, 0.8825, 0.1975, 0.98, 0.295, 1.0775, 0.3925, 1.175, 0.49, 1.275, 0.5875, 1.3725, 0.6875, 0, 0.785, 0.0975, 0.8825, 0.1975, 0.98, 0.295, 1.0775, 0.3925, 1.175, 0.49, 1.275, 0.5875, 1.3725, 0.6875, 0, 0.785, 0.0975, 0.8825, 0.1975, 0.98, 0.295, 1.0775, 0.3925, 1.175, 0.49, 1.275, 0.5875, 1.3725, 0.6875, 0, 0.785, 0.0975, 0.8825, 0.1975, 0.98, 0.295, 1.0775, 0.3925, 1.175, 0.49, 1.275, 0.5875, 1.3725, 0.6875],
  "SoftwareVersions": "syngo MR E11",
  "SpacingBetweenSlices": 2,
  "StationName": "MRC35049",
  "TaskName": "mariostars",
  "TotalReadoutTime": 0.0576811,
  "TxRefAmp": 222.43,
  "WipMemBlock": "7eda3b12-d4dd-4a3e-8879-5afb015acff5||Sequence: R016 ve11c/master r/e634e98; Dec 19 2017 11:00:25 by eja",
  "dcmmeta_affine": [
    [-1.999891757965088, 0.01815098151564598, -0.010174496099352837, 105.53238677978516],
    [0.020474938675761223, 1.8908814191818237, -0.6512665152549744, -66.47063446044922],
    [-0.0037088198587298393, 0.6513354182243347, 1.8909649848937988, -61.51162338256836],
    [0.0, 0.0, 0.0, 1.0]
],
  "dcmmeta_reorient_transform": [
    [0.0, -1.0, 0.0, 103.0],
    [1.0, 0.0, 0.0, 0.0],
    [0.0, 0.0, 1.0, 0.0],
    [0.0, 0.0, 0.0, 1.0]
],
  "dcmmeta_shape": [104, 104, 60, 432],
  "dcmmeta_slice_dim": 2,
  "dcmmeta_version": 0.6,
  "global": {
    "const": {
      "AcquisitionMatrix": [104, 0, 0, 104],
      "AngioFlag": "N",
      "BitsAllocated": 16,
      "BitsStored": 16,
      "BodyPartExamined": "BRAIN",
      "Columns": 832,
      "EchoNumbers": 1,
      "EchoTime": 37.0,
      "EchoTrainLength": 104,
      "FlipAngle": 52.0,
      "HighBit": 15,
      "ImageOrientationPatient": [0.99994587622417, -0.01023746972, -0.0018544098829, 0.00907549070757, 0.94544073603107, -0.3256676989225],
      "ImagePositionPatient": [-841.96948974105, -809.11813597292, 244.01201871732],
      "ImageType": [
        "ORIGINAL",
        "PRIMARY",
        "M",
        "MB",
        "ND",
        "MOSAIC"
],
      "ImagedNucleus": "1H",
      "ImagingFrequency": 123.258785,
      "InPlanePhaseEncodingDirection": "COL",
      "MRAcquisitionType": "2D",
      "MagneticFieldStrength": 3.0,
      "Manufacturer": "SIEMENS",
      "ManufacturerModelName": "Prisma_fit",
      "Modality": "MR",
      "NumberOfAverages": 1.0,
      "NumberOfPhaseEncodingSteps": 104,
      "PercentPhaseFieldOfView": 100.0,
      "PercentSampling": 100.0,
      "PerformedProcedureStepStartTime": "150653.036000",
      "PhotometricInterpretation": "MONOCHROME2",
      "PixelBandwidth": 2290.0,
      "PixelRepresentation": 0,
      "PixelSpacing": [2.0, 2.0],
      "ProtocolName": "func_task-mariostars_run-01",
      "RepetitionTime": 1490.0,
      "Rows": 832,
      "SAR": 0.03209906654408,
      "SamplesPerPixel": 1,
      "ScanOptions": "FS",
      "ScanningSequence": "EP",
      "SequenceName": "epfid2d1_104",
      "SequenceVariant": [
        "SK",
        "SS"
],
      "SeriesDescription": "func_task-mariostars_run-01",
      "SeriesNumber": 10,
      "SeriesTime": "153154.993000",
      "SliceLocation": -37.049982512554,
      "SliceThickness": 2.0,
      "SmallestImagePixelValue": 0,
      "SoftwareVersions": "syngo MR E11",
      "SpacingBetweenSlices": 2.000000032319,
      "SpecificCharacterSet": "ISO_IR 100",
      "StudyID": "1",
      "StudyTime": "150652.967000",
      "TransmitCoilName": "Body",
      "VariableFlipAngleFlag": "N",
      "WindowCenterWidthExplanation": "Algo1",
      "dBdt": 0.0},
    "slices": {}
  },
  "time": {
    "samples": {
      "AcquisitionNumber": [1, 2, 3, 4, 5, 6, 7, 8, 9, 10, 11, 12, 13, 14, 15, 16, 17, 18, 19, 20, 21, 22, 23, 24, 25, 26, 27, 28, 29, 30, 31, 32, 33, 34, 35, 36, 37, 38, 39, 40, 41, 42, 43, 44, 45, 46, 47, 48, 49, 50, 51, 52, 53, 54, 55, 56, 57, 58, 59, 60, 61, 62, 63, 64, 65, 66, 67, 68, 69, 70, 71, 72, 73, 74, 75, 76, 77, 78, 79, 80, 81, 82, 83, 84, 85, 86, 87, 88, 89, 90, 91, 92, 93, 94, 95, 96, 97, 98, 99, 100, 101, 102, 103, 104, 105, 106, 107, 108, 109, 110, 111, 112, 113, 114, 115, 116, 117, 118, 119, 120, 121, 122, 123, 124, 125, 126, 127, 128, 129, 130, 131, 132, 133, 134, 135, 136, 137, 138, 139, 140, 141, 142, 143, 144, 145, 146, 147, 148, 149, 150, 151, 152, 153, 154, 155, 156, 157, 158, 159, 160, 161, 162, 163, 164, 165, 166, 167, 168, 169, 170, 171, 172, 173, 174, 175, 176, 177, 178, 179, 180, 181, 182, 183, 184, 185, 186, 187, 188, 189, 190, 191, 192, 193, 194, 195, 196, 197, 198, 199, 200, 201, 202, 203, 204, 205, 206, 207, 208, 209, 210, 211, 212, 213, 214, 215, 216, 217, 218, 219, 220, 221, 222, 223, 224, 225, 226, 227, 228, 229, 230, 231, 232, 233, 234, 235, 236, 237, 238, 239, 240, 241, 242, 243, 244, 245, 246, 247, 248, 249, 250, 251, 252, 253, 254, 255, 256, 257, 258, 259, 260, 261, 262, 263, 264, 265, 266, 267, 268, 269, 270, 271, 272, 273, 274, 275, 276, 277, 278, 279, 280, 281, 282, 283, 284, 285, 286, 287, 288, 289, 290, 291, 292, 293, 294, 295, 296, 297, 298, 299, 300, 301, 302, 303, 304, 305, 306, 307, 308, 309, 310, 311, 312, 313, 314, 315, 316, 317, 318, 319, 320, 321, 322, 323, 324, 325, 326, 327, 328, 329, 330, 331, 332, 333, 334, 335, 336, 337, 338, 339, 340, 341, 342, 343, 344, 345, 346, 347, 348, 349, 350, 351, 352, 353, 354, 355, 356, 357, 358, 359, 360, 361, 362, 363, 364, 365, 366, 367, 368, 369, 370, 371, 372, 373, 374, 375, 376, 377, 378, 379, 380, 381, 382, 383, 384, 385, 386, 387, 388, 389, 390, 391, 392, 393, 394, 395, 396, 397, 398, 399, 400, 401, 402, 403, 404, 405, 406, 407, 408, 409, 410, 411, 412, 413, 414, 415, 416, 417, 418, 419, 420, 421, 422, 423, 424, 425, 426, 427, 428, 429, 430, 431, 432],
      "AcquisitionTime": ["153056.482500", "153057.972500", "153059.462500", "153100.952500", "153102.442500", "153103.932500", "153105.422500", "153106.912500", "153108.402500", "153109.892500", "153111.382500", "153112.872500", "153114.362500", "153115.852500", "153117.342500", "153118.832500", "153120.322500", "153121.812500", "153123.302500", "153124.792500", "153126.282500", "153127.772500", "153129.262500", "153130.752500", "153132.242500", "153133.732500", "153135.222500", "153136.712500", "153138.202500", "153139.692500", "153141.182500", "153142.672500", "153144.162500", "153145.652500", "153147.142500", "153148.632500", "153150.122500", "153151.612500", "153153.102500", "153154.592500", "153156.082500", "153157.572500", "153159.062500", "153200.552500", "153202.042500", "153203.532500", "153205.022500", "153206.512500", "153208.002500", "153209.492500", "153210.982500", "153212.472500", "153213.962500", "153215.452500", "153216.942500", "153218.432500", "153219.922500", "153221.412500", "153222.902500", "153224.392500", "153225.882500", "153227.372500", "153228.862500", "153230.352500", "153231.842500", "153233.332500", "153234.822500", "153236.312500", "153237.802500", "153239.292500", "153240.782500", "153242.272500", "153243.762500", "153245.252500", "153246.742500", "153248.232500", "153249.722500", "153251.212500", "153252.702500", "153254.192500", "153255.682500", "153257.172500", "153258.662500", "153300.152500", "153301.642500", "153303.132500", "153304.622500", "153306.112500", "153307.602500", "153309.092500", "153310.582500", "153312.072500", "153313.562500", "153315.052500", "153316.542500", "153318.032500", "153319.522500", "153321.012500", "153322.502500", "153323.992500", "153325.482500", "153326.972500", "153328.462500", "153329.952500", "153331.442500", "153332.932500", "153334.422500", "153335.912500", "153337.402500", "153338.892500", "153340.382500", "153341.872500", "153343.362500", "153344.852500", "153346.342500", "153347.832500", "153349.322500", "153350.812500", "153352.302500", "153353.792500", "153355.282500", "153356.772500", "153358.262500", "153359.752500", "153401.242500", "153402.732500", "153404.222500", "153405.712500", "153407.202500", "153408.692500", "153410.182500", "153411.672500", "153413.162500", "153414.652500", "153416.142500", "153417.632500", "153419.122500", "153420.612500", "153422.102500", "153423.592500", "153425.082500", "153426.572500", "153428.062500", "153429.552500", "153431.042500", "153432.532500", "153434.022500", "153435.512500", "153437.002500", "153438.492500", "153439.982500", "153441.472500", "153442.962500", "153444.452500", "153445.942500", "153447.432500", "153448.922500", "153450.412500", "153451.902500", "153453.392500", "153454.882500", "153456.372500", "153457.862500", "153459.352500", "153500.842500", "153502.332500", "153503.822500", "153505.312500", "153506.802500", "153508.292500", "153509.782500", "153511.272500", "153512.762500", "153514.252500", "153515.742500", "153517.232500", "153518.722500", "153520.212500", "153521.702500", "153523.192500", "153524.682500", "153526.172500", "153527.662500", "153529.152500", "153530.642500", "153532.132500", "153533.622500", "153535.112500", "153536.602500", "153538.092500", "153539.582500", "153541.072500", "153542.562500", "153544.052500", "153545.542500", "153547.032500", "153548.522500", "153550.012500", "153551.502500", "153552.992500", "153554.482500", "153555.972500", "153557.462500", "153558.952500", "153600.442500", "153601.932500", "153603.422500", "153604.912500", "153606.402500", "153607.892500", "153609.382500", "153610.872500", "153612.362500", "153613.852500", "153615.342500", "153616.832500", "153618.322500", "153619.812500", "153621.302500", "153622.792500", "153624.282500", "153625.772500", "153627.262500", "153628.752500", "153630.242500", "153631.732500", "153633.222500", "153634.712500", "153636.202500", "153637.692500", "153639.182500", "153640.672500", "153642.162500", "153643.652500", "153645.142500", "153646.632500", "153648.122500", "153649.612500", "153651.102500", "153652.592500", "153654.082500", "153655.572500", "153657.062500", "153658.552500", "153700.042500", "153701.532500", "153703.022500", "153704.512500", "153706.002500", "153707.492500", "153708.982500", "153710.472500", "153711.962500", "153713.452500", "153714.942500", "153716.432500", "153717.922500", "153719.412500", "153720.902500", "153722.392500", "153723.882500", "153725.372500", "153726.862500", "153728.352500", "153729.842500", "153731.332500", "153732.822500", "153734.312500", "153735.802500", "153737.292500", "153738.782500", "153740.272500", "153741.762500", "153743.252500", "153744.742500", "153746.232500", "153747.722500", "153749.212500", "153750.702500", "153752.192500", "153753.682500", "153755.172500", "153756.662500", "153758.152500", "153759.642500", "153801.132500", "153802.622500", "153804.112500", "153805.602500", "153807.092500", "153808.582500", "153810.072500", "153811.562500", "153813.052500", "153814.542500", "153816.032500", "153817.522500", "153819.012500", "153820.502500", "153821.992500", "153823.482500", "153824.972500", "153826.462500", "153827.952500", "153829.442500", "153830.932500", "153832.422500", "153833.912500", "153835.402500", "153836.892500", "153838.382500", "153839.872500", "153841.362500", "153842.852500", "153844.342500", "153845.832500", "153847.322500", "153848.812500", "153850.302500", "153851.792500", "153853.282500", "153854.772500", "153856.262500", "153857.752500", "153859.242500", "153900.732500", "153902.222500", "153903.712500", "153905.202500", "153906.692500", "153908.182500", "153909.672500", "153911.162500", "153912.652500", "153914.142500", "153915.632500", "153917.122500", "153918.612500", "153920.102500", "153921.592500", "153923.082500", "153924.572500", "153926.062500", "153927.552500", "153929.042500", "153930.532500", "153932.022500", "153933.512500", "153935.002500", "153936.492500", "153937.982500", "153939.472500", "153940.962500", "153942.452500", "153943.942500", "153945.432500", "153946.922500", "153948.412500", "153949.902500", "153951.392500", "153952.882500", "153954.372500", "153955.862500", "153957.352500", "153958.842500", "154000.332500", "154001.822500", "154003.312500", "154004.802500", "154006.292500", "154007.782500", "154009.272500", "154010.762500", "154012.252500", "154013.742500", "154015.232500", "154016.722500", "154018.212500", "154019.702500", "154021.192500", "154022.682500", "154024.172500", "154025.662500", "154027.152500", "154028.642500", "154030.132500", "154031.622500", "154033.112500", "154034.602500", "154036.092500", "154037.582500", "154039.072500", "154040.562500", "154042.052500", "154043.542500", "154045.032500", "154046.522500", "154048.012500", "154049.502500", "154050.992500", "154052.482500", "154053.972500", "154055.462500", "154056.952500", "154058.442500", "154059.932500", "154101.422500", "154102.912500", "154104.402500", "154105.892500", "154107.382500", "154108.872500", "154110.362500", "154111.852500", "154113.342500", "154114.832500", "154116.322500", "154117.812500", "154119.302500", "154120.792500", "154122.282500", "154123.772500", "154125.262500", "154126.752500", "154128.242500", "154129.732500", "154131.222500", "154132.712500", "154134.202500", "154135.692500", "154137.182500", "154138.672500"],
      "ContentTime": ["153154.996000", "153155.002000", "153155.016000", "153214.960000", "153214.964000", "153214.974000", "153214.983000", "153214.986000", "153214.990000", "153214.993000", "153214.996000", "153215.001000", "153215.009000", "153215.012000", "153215.016000", "153215.019000", "153215.022000", "153215.025000", "153215.029000", "153215.032000", "153215.035000", "153215.039000", "153215.042000", "153254.960000", "153254.964000", "153254.967000", "153254.970000", "153254.974000", "153254.977000", "153254.981000", "153254.984000", "153254.988000", "153254.991000", "153254.994000", "153254.998000", "153255.002000", "153255.005000", "153255.008000", "153255.012000", "153255.015000", "153255.018000", "153255.022000", "153255.025000", "153255.028000", "153255.031000", "153255.035000", "153255.038000", "153255.041000", "153255.045000", "153255.048000", "153255.051000", "153255.054000", "153255.058000", "153255.061000", "153255.064000", "153255.068000", "153255.071000", "153255.074000", "153255.078000", "153255.081000", "153255.084000", "153255.087000", "153314.961000", "153314.966000", "153314.970000", "153314.974000", "153314.987000", "153314.991000", "153314.995000", "153315.000000", "153315.004000", "153315.008000", "153315.012000", "153315.017000", "153315.021000", "153315.025000", "153315.028000", "153315.032000", "153315.035000", "153315.039000", "153315.043000", "153315.047000", "153315.050000", "153334.961000", "153334.965000", "153334.968000", "153334.972000", "153334.975000", "153334.978000", "153334.982000", "153334.985000", "153334.988000", "153334.992000", "153334.995000", "153334.998000", "153335.003000", "153335.006000", "153335.009000", "153335.012000", "153335.016000", "153335.019000", "153335.022000", "153335.025000", "153414.960000", "153414.964000", "153414.967000", "153414.971000", "153414.974000", "153414.977000", "153414.980000", "153414.984000", "153414.987000", "153414.990000", "153414.994000", "153414.997000", "153415.001000", "153415.004000", "153415.007000", "153415.010000", "153415.014000", "153415.017000", "153415.020000", "153415.024000", "153415.027000", "153415.030000", "153415.034000", "153415.037000", "153415.040000", "153415.044000", "153415.047000", "153415.050000", "153415.053000", "153454.960000", "153454.964000", "153454.967000", "153454.971000", "153454.974000", "153454.977000", "153454.980000", "153454.984000", "153454.987000", "153454.990000", "153454.994000", "153454.997000", "153455.001000", "153455.005000", "153455.008000", "153455.011000", "153455.015000", "153455.018000", "153455.021000", "153455.025000", "153455.028000", "153455.031000", "153455.035000", "153455.038000", "153455.041000", "153455.045000", "153455.048000", "153534.979000", "153534.983000", "153534.986000", "153534.990000", "153534.993000", "153534.997000", "153535.001000", "153535.004000", "153535.008000", "153535.011000", "153535.015000", "153535.018000", "153535.021000", "153535.025000", "153535.028000", "153535.031000", "153535.035000", "153535.038000", "153535.041000", "153535.045000", "153535.048000", "153535.051000", "153535.054000", "153535.058000", "153535.061000", "153535.064000", "153535.067000", "153614.960000", "153614.964000", "153614.968000", "153614.971000", "153614.974000", "153614.977000", "153614.981000", "153614.984000", "153614.987000", "153614.991000", "153614.994000", "153614.997000", "153615.002000", "153615.005000", "153615.018000", "153615.021000", "153615.025000", "153615.028000", "153615.031000", "153615.035000", "153615.038000", "153615.041000", "153615.045000", "153615.048000", "153615.051000", "153615.054000", "153615.058000", "153654.960000", "153654.964000", "153654.967000", "153654.971000", "153654.974000", "153654.977000", "153654.980000", "153654.984000", "153654.987000", "153654.990000", "153654.994000", "153654.997000", "153655.001000", "153655.005000", "153655.008000", "153655.011000", "153655.015000", "153655.018000", "153655.021000", "153655.025000", "153655.028000", "153655.031000", "153655.034000", "153655.038000", "153655.041000", "153655.044000", "153655.048000", "153734.960000", "153734.964000", "153734.967000", "153734.971000", "153734.974000", "153734.989000", "153734.993000", "153734.998000", "153735.001000", "153735.005000", "153735.008000", "153735.011000", "153735.014000", "153735.018000", "153735.032000", "153735.036000", "153735.039000", "153735.042000", "153735.046000", "153735.049000", "153735.052000", "153735.056000", "153735.059000", "153735.062000", "153735.066000", "153735.069000", "153735.072000", "153814.962000", "153814.966000", "153814.970000", "153814.974000", "153814.977000", "153814.981000", "153814.985000", "153814.989000", "153814.992000", "153814.995000", "153815.000000", "153815.003000", "153815.007000", "153815.010000", "153815.013000", "153815.017000", "153815.020000", "153815.024000", "153815.027000", "153815.030000", "153815.034000", "153815.037000", "153815.040000", "153815.044000", "153815.047000", "153815.050000", "153854.960000", "153854.964000", "153854.967000", "153854.971000", "153854.974000", "153854.977000", "153854.981000", "153854.984000", "153854.987000", "153854.991000", "153854.994000", "153854.997000", "153855.002000", "153855.005000", "153855.009000", "153855.012000", "153855.015000", "153855.019000", "153855.022000", "153855.025000", "153855.029000", "153855.032000", "153855.035000", "153855.039000", "153855.042000", "153855.045000", "153855.048000", "153934.960000", "153934.964000", "153934.967000", "153934.971000", "153934.974000", "153934.977000", "153934.981000", "153934.991000", "153934.994000", "153934.998000", "153935.002000", "153935.005000", "153935.009000", "153935.012000", "153935.015000", "153935.019000", "153935.022000", "153935.025000", "153935.029000", "153935.032000", "153935.035000", "153935.039000", "153935.042000", "153935.046000", "153935.049000", "153935.052000", "153935.056000", "154014.961000", "154014.965000", "154014.968000", "154014.972000", "154014.975000", "154014.978000", "154014.982000", "154014.985000", "154014.988000", "154014.992000", "154014.995000", "154014.998000", "154015.003000", "154015.006000", "154015.010000", "154015.013000", "154015.016000", "154015.020000", "154015.023000", "154015.026000", "154015.030000", "154015.033000", "154015.036000", "154015.040000", "154015.043000", "154015.046000", "154015.049000", "154054.960000", "154054.964000", "154054.967000", "154054.971000", "154054.974000", "154054.977000", "154054.981000", "154054.984000", "154054.988000", "154054.991000", "154054.996000", "154055.000000", "154055.003000", "154055.007000", "154055.011000", "154055.014000", "154055.017000", "154055.021000", "154055.024000", "154055.027000", "154055.031000", "154055.034000", "154055.037000", "154055.041000", "154055.044000", "154055.047000", "154055.051000", "154134.960000", "154134.964000", "154134.967000", "154134.971000", "154134.974000", "154134.977000", "154134.980000", "154134.984000", "154134.987000", "154134.991000", "154134.994000", "154135.003000", "154135.006000", "154135.010000", "154135.013000", "154135.017000", "154135.020000", "154135.023000", "154135.026000", "154135.030000", "154135.033000", "154135.048000", "154135.051000", "154135.055000", "154135.058000", "154135.061000", "154135.064000", "154141.399000", "154141.403000", "154141.406000", "154141.409000"],
      "InstanceCreationTime": ["153154.996000", "153155.002000", "153155.016000", "153214.960000", "153214.964000", "153214.974000", "153214.983000", "153214.986000", "153214.990000", "153214.993000", "153214.996000", "153215.001000", "153215.009000", "153215.012000", "153215.016000", "153215.019000", "153215.022000", "153215.025000", "153215.029000", "153215.032000", "153215.035000", "153215.039000", "153215.042000", "153254.960000", "153254.964000", "153254.967000", "153254.970000", "153254.974000", "153254.977000", "153254.981000", "153254.984000", "153254.988000", "153254.991000", "153254.994000", "153254.998000", "153255.002000", "153255.005000", "153255.008000", "153255.012000", "153255.015000", "153255.018000", "153255.022000", "153255.025000", "153255.028000", "153255.031000", "153255.035000", "153255.038000", "153255.041000", "153255.045000", "153255.048000", "153255.051000", "153255.054000", "153255.058000", "153255.061000", "153255.064000", "153255.068000", "153255.071000", "153255.074000", "153255.078000", "153255.081000", "153255.084000", "153255.087000", "153314.961000", "153314.966000", "153314.970000", "153314.974000", "153314.987000", "153314.991000", "153314.995000", "153315.000000", "153315.004000", "153315.008000", "153315.012000", "153315.017000", "153315.021000", "153315.025000", "153315.028000", "153315.032000", "153315.035000", "153315.039000", "153315.043000", "153315.047000", "153315.050000", "153334.961000", "153334.965000", "153334.968000", "153334.972000", "153334.975000", "153334.978000", "153334.982000", "153334.985000", "153334.988000", "153334.992000", "153334.995000", "153334.998000", "153335.003000", "153335.006000", "153335.009000", "153335.012000", "153335.016000", "153335.019000", "153335.022000", "153335.025000", "153414.960000", "153414.964000", "153414.967000", "153414.971000", "153414.974000", "153414.977000", "153414.980000", "153414.984000", "153414.987000", "153414.990000", "153414.994000", "153414.997000", "153415.001000", "153415.004000", "153415.007000", "153415.010000", "153415.014000", "153415.017000", "153415.020000", "153415.024000", "153415.027000", "153415.030000", "153415.034000", "153415.037000", "153415.040000", "153415.044000", "153415.047000", "153415.050000", "153415.053000", "153454.960000", "153454.964000", "153454.967000", "153454.971000", "153454.974000", "153454.977000", "153454.980000", "153454.984000", "153454.987000", "153454.990000", "153454.994000", "153454.997000", "153455.001000", "153455.005000", "153455.008000", "153455.011000", "153455.015000", "153455.018000", "153455.021000", "153455.025000", "153455.028000", "153455.031000", "153455.035000", "153455.038000", "153455.041000", "153455.045000", "153455.048000", "153534.979000", "153534.983000", "153534.986000", "153534.990000", "153534.993000", "153534.997000", "153535.001000", "153535.004000", "153535.008000", "153535.011000", "153535.015000", "153535.018000", "153535.021000", "153535.025000", "153535.028000", "153535.031000", "153535.035000", "153535.038000", "153535.041000", "153535.045000", "153535.048000", "153535.051000", "153535.054000", "153535.058000", "153535.061000", "153535.064000", "153535.067000", "153614.960000", "153614.964000", "153614.968000", "153614.971000", "153614.974000", "153614.977000", "153614.981000", "153614.984000", "153614.987000", "153614.991000", "153614.994000", "153614.997000", "153615.002000", "153615.005000", "153615.018000", "153615.021000", "153615.025000", "153615.028000", "153615.031000", "153615.035000", "153615.038000", "153615.041000", "153615.045000", "153615.048000", "153615.051000", "153615.054000", "153615.058000", "153654.960000", "153654.964000", "153654.967000", "153654.971000", "153654.974000", "153654.977000", "153654.980000", "153654.984000", "153654.987000", "153654.990000", "153654.994000", "153654.997000", "153655.001000", "153655.005000", "153655.008000", "153655.011000", "153655.015000", "153655.018000", "153655.021000", "153655.025000", "153655.028000", "153655.031000", "153655.034000", "153655.038000", "153655.041000", "153655.044000", "153655.048000", "153734.960000", "153734.964000", "153734.967000", "153734.971000", "153734.974000", "153734.989000", "153734.993000", "153734.998000", "153735.001000", "153735.005000", "153735.008000", "153735.011000", "153735.014000", "153735.018000", "153735.032000", "153735.036000", "153735.039000", "153735.042000", "153735.046000", "153735.049000", "153735.052000", "153735.056000", "153735.059000", "153735.062000", "153735.066000", "153735.069000", "153735.072000", "153814.962000", "153814.966000", "153814.970000", "153814.974000", "153814.977000", "153814.981000", "153814.985000", "153814.989000", "153814.992000", "153814.995000", "153815.000000", "153815.003000", "153815.007000", "153815.010000", "153815.013000", "153815.017000", "153815.020000", "153815.024000", "153815.027000", "153815.030000", "153815.034000", "153815.037000", "153815.040000", "153815.044000", "153815.047000", "153815.050000", "153854.960000", "153854.964000", "153854.967000", "153854.971000", "153854.974000", "153854.977000", "153854.981000", "153854.984000", "153854.987000", "153854.991000", "153854.994000", "153854.997000", "153855.002000", "153855.005000", "153855.009000", "153855.012000", "153855.015000", "153855.019000", "153855.022000", "153855.025000", "153855.029000", "153855.032000", "153855.035000", "153855.039000", "153855.042000", "153855.045000", "153855.048000", "153934.960000", "153934.964000", "153934.967000", "153934.971000", "153934.974000", "153934.977000", "153934.981000", "153934.991000", "153934.994000", "153934.998000", "153935.002000", "153935.005000", "153935.009000", "153935.012000", "153935.015000", "153935.019000", "153935.022000", "153935.025000", "153935.029000", "153935.032000", "153935.035000", "153935.039000", "153935.042000", "153935.046000", "153935.049000", "153935.052000", "153935.056000", "154014.961000", "154014.965000", "154014.968000", "154014.972000", "154014.975000", "154014.978000", "154014.982000", "154014.985000", "154014.988000", "154014.992000", "154014.995000", "154014.998000", "154015.003000", "154015.006000", "154015.010000", "154015.013000", "154015.016000", "154015.020000", "154015.023000", "154015.026000", "154015.030000", "154015.033000", "154015.036000", "154015.040000", "154015.043000", "154015.046000", "154015.049000", "154054.960000", "154054.964000", "154054.967000", "154054.971000", "154054.974000", "154054.977000", "154054.981000", "154054.984000", "154054.988000", "154054.991000", "154054.996000", "154055.000000", "154055.003000", "154055.007000", "154055.011000", "154055.014000", "154055.017000", "154055.021000", "154055.024000", "154055.027000", "154055.031000", "154055.034000", "154055.037000", "154055.041000", "154055.044000", "154055.047000", "154055.051000", "154134.960000", "154134.964000", "154134.967000", "154134.971000", "154134.974000", "154134.977000", "154134.980000", "154134.984000", "154134.987000", "154134.991000", "154134.994000", "154135.003000", "154135.006000", "154135.010000", "154135.013000", "154135.017000", "154135.020000", "154135.023000", "154135.026000", "154135.030000", "154135.033000", "154135.048000", "154135.051000", "154135.055000", "154135.058000", "154135.061000", "154135.064000", "154141.399000", "154141.403000", "154141.406000", "154141.409000"],
