{
  "AcquisitionMatrixPE": 104,
  "AcquisitionNumber": 1,
  "AcquisitionTime": "15:30:56.482500",
  "BandwidthPerPixelPhaseEncode": 17.17,
  "BaseResolution": 104,
  "BodyPartExamined": "BRAIN",
  "CoilCombinationMethod": "Sum of Squares",
  "ConsistencyInfo": "N4_VE11C_LATEST_20160120",
  "ConversionSoftware": "dcm2niix",
  "ConversionSoftwareVersion": "v1.0.20211006",
  "DerivedVendorReportedEchoSpacing": 0.000560011,
  "DeviceSerialNumber": "167006",
  "DwellTime": 2.1e-06,
  "EchoTime": 0.037,
  "EchoTime1": 0.037,
  "EchoTime2": 0.001,
  "EchoTrainLength": 104,
  "EffectiveEchoSpacing": 0.000560011,
  "FlipAngle": 52,
  "HeudiconvVersion": "0.11.3.post9+gc939bf8",
  "ImageComments": "Unaliased MB4/PE3/LB",
  "ImageOrientationPatientDICOM": [0.999946, -0.0102375, -0.00185441, 0.00907549, 0.945441, -0.325668],
  "ImageOrientationText": "Tra>Cor(-19.0)>Sag(-0.3)",
  "ImageType": [
    "ORIGINAL",
    "PRIMARY",
    "P",
    "MB",
    "ND",
    "MOSAIC",
    "PHASE"
],
  "ImagingFrequency": 123.259,
  "InPlanePhaseEncodingDirectionDICOM": "COL",
  "InstitutionAddress": "Chemin Queen-Mary 4565,Montreal,District,CA,H3W 1W5",
  "InstitutionName": "IUGM",
  "InstitutionalDepartmentName": "Department",
  "MRAcquisitionType": "2D",
  "MagneticFieldStrength": 3,
  "Manufacturer": "Siemens",
  "ManufacturersModelName": "Prisma_fit",
  "MatrixCoilMode": "SENSE",
  "Modality": "MR",
  "MultibandAccelerationFactor": 4,
  "PartialFourier": 1,
  "PatientPosition": "HFS",
  "PercentPhaseFOV": 100,
  "PercentSampling": 100,
  "PhaseEncodingDirection": "j",
  "PhaseEncodingSteps": 104,
  "PhaseResolution": 1,
  "PixelBandwidth": 2290,
  "ProcedureStepDescription": "games^mariostars",
  "ProtocolName": "func_task-mariostars_run-01",
  "PulseSequenceDetails": "%CustomerSeq%\\cmrr_mbep2d_bold",
  "ReceiveCoilActiveElements": "HC1-7;NC1,2",
  "ReceiveCoilName": "HeadNeck_64",
  "ReconMatrixPE": 104,
  "RepetitionTime": 1.49,
  "SAR": 0.0320991,
  "ScanOptions": "FS",
  "ScanningSequence": "EP",
  "SequenceName": "epfid2d1_104",
  "SequenceVariant": "SK\\SS",
  "SeriesDescription": "func_task-mariostars_run-01",
  "SeriesNumber": 11,
  "ShimSetting": [625, -7278, -8821, 542, 39, -264, -32, 4],
  "SliceThickness": 2,
  "SliceTiming": [0, 0.785, 0.0975, 0.8825, 0.1975, 0.98, 0.295, 1.0775, 0.3925, 1.175, 0.49, 1.275, 0.5875, 1.3725, 0.6875, 0, 0.785, 0.0975, 0.8825, 0.1975, 0.98, 0.295, 1.0775, 0.3925, 1.175, 0.49, 1.275, 0.5875, 1.3725, 0.6875, 0, 0.785, 0.0975, 0.8825, 0.1975, 0.98, 0.295, 1.0775, 0.3925, 1.175, 0.49, 1.275, 0.5875, 1.3725, 0.6875, 0, 0.785, 0.0975, 0.8825, 0.1975, 0.98, 0.295, 1.0775, 0.3925, 1.175, 0.49, 1.275, 0.5875, 1.3725, 0.6875],
  "SoftwareVersions": "syngo MR E11",
  "SpacingBetweenSlices": 2,
  "StationName": "MRC35049",
  "TaskName": "mariostars",
  "TotalReadoutTime": 0.0576811,
  "TxRefAmp": 222.43,
  "WipMemBlock": "7eda3b12-d4dd-4a3e-8879-5afb015acff5||Sequence: R016 ve11c/master r/e634e98; Dec 19 2017 11:00:25 by eja",
  "dcmmeta_affine": [
    [-1.999891757965088, 0.01815098151564598, -0.010174496099352837, 105.53238677978516],
    [0.020474938675761223, 1.8908814191818237, -0.6512665152549744, -66.47063446044922],
    [-0.0037088198587298393, 0.6513354182243347, 1.8909649848937988, -61.51162338256836],
    [0.0, 0.0, 0.0, 1.0]
],
  "dcmmeta_reorient_transform": [
    [0.0, -1.0, 0.0, 103.0],
    [1.0, 0.0, 0.0, 0.0],
    [0.0, 0.0, 1.0, 0.0],
    [0.0, 0.0, 0.0, 1.0]
],
  "dcmmeta_shape": [104, 104, 60, 432],
  "dcmmeta_slice_dim": 2,
  "dcmmeta_version": 0.6,
  "global": {
    "const": {
      "AcquisitionMatrix": [104, 0, 0, 104],
      "AngioFlag": "N",
      "BitsAllocated": 16,
      "BitsStored": 16,
      "BodyPartExamined": "BRAIN",
      "Columns": 832,
      "EchoNumbers": 1,
      "EchoTime": 37.0,
      "EchoTrainLength": 104,
      "FlipAngle": 52.0,
      "HighBit": 15,
      "ImageOrientationPatient": [0.99994587622417, -0.01023746972, -0.0018544098829, 0.00907549070757, 0.94544073603107, -0.3256676989225],
      "ImagePositionPatient": [-841.96948974105, -809.11813597292, 244.01201871732],
      "ImageType": [
        "ORIGINAL",
        "PRIMARY",
        "P",
        "MB",
        "ND",
        "MOSAIC"
],
      "ImagedNucleus": "1H",
      "ImagingFrequency": 123.258785,
      "InPlanePhaseEncodingDirection": "COL",
      "LargestImagePixelValue": 4095,
      "MRAcquisitionType": "2D",
      "MagneticFieldStrength": 3.0,
      "Manufacturer": "SIEMENS",
      "ManufacturerModelName": "Prisma_fit",
      "Modality": "MR",
      "NumberOfAverages": 1.0,
      "NumberOfPhaseEncodingSteps": 104,
      "PercentPhaseFieldOfView": 100.0,
      "PercentSampling": 100.0,
      "PerformedProcedureStepStartTime": "150653.036000",
      "PhotometricInterpretation": "MONOCHROME2",
      "PixelBandwidth": 2290.0,
      "PixelRepresentation": 0,
      "PixelSpacing": [2.0, 2.0],
      "ProtocolName": "func_task-mariostars_run-01",
      "RepetitionTime": 1490.0,
      "RescaleIntercept": -4096.0,
      "RescaleSlope": 2.0,
      "RescaleType": "US",
      "Rows": 832,
      "SAR": 0.03209906654408,
      "SamplesPerPixel": 1,
      "ScanOptions": "FS",
      "ScanningSequence": "EP",
      "SequenceName": "epfid2d1_104",
      "SequenceVariant": [
        "SK",
        "SS"
],
      "SeriesDescription": "func_task-mariostars_run-01",
      "SeriesNumber": 11,
      "SeriesTime": "153155.078000",
      "SliceLocation": -37.049982512554,
      "SliceThickness": 2.0,
      "SmallestImagePixelValue": 0,
      "SoftwareVersions": "syngo MR E11",
      "SpacingBetweenSlices": 2.000000032319,
      "SpecificCharacterSet": "ISO_IR 100",
      "StudyID": "1",
      "StudyTime": "150652.967000",
      "TransmitCoilName": "Body",
      "VariableFlipAngleFlag": "N",
      "WindowCenterWidthExplanation": "Algo1",
      "dBdt": 0.0},
    "slices": {}
  },
  "time": {
    "samples": {
      "AcquisitionNumber": [1, 2, 3, 4, 5, 6, 7, 8, 9, 10, 11, 12, 13, 14, 15, 16, 17, 18, 19, 20, 21, 22, 23, 24, 25, 26, 27, 28, 29, 30, 31, 32, 33, 34, 35, 36, 37, 38, 39, 40, 41, 42, 43, 44, 45, 46, 47, 48, 49, 50, 51, 52, 53, 54, 55, 56, 57, 58, 59, 60, 61, 62, 63, 64, 65, 66, 67, 68, 69, 70, 71, 72, 73, 74, 75, 76, 77, 78, 79, 80, 81, 82, 83, 84, 85, 86, 87, 88, 89, 90, 91, 92, 93, 94, 95, 96, 97, 98, 99, 100, 101, 102, 103, 104, 105, 106, 107, 108, 109, 110, 111, 112, 113, 114, 115, 116, 117, 118, 119, 120, 121, 122, 123, 124, 125, 126, 127, 128, 129, 130, 131, 132, 133, 134, 135, 136, 137, 138, 139, 140, 141, 142, 143, 144, 145, 146, 147, 148, 149, 150, 151, 152, 153, 154, 155, 156, 157, 158, 159, 160, 161, 162, 163, 164, 165, 166, 167, 168, 169, 170, 171, 172, 173, 174, 175, 176, 177, 178, 179, 180, 181, 182, 183, 184, 185, 186, 187, 188, 189, 190, 191, 192, 193, 194, 195, 196, 197, 198, 199, 200, 201, 202, 203, 204, 205, 206, 207, 208, 209, 210, 211, 212, 213, 214, 215, 216, 217, 218, 219, 220, 221, 222, 223, 224, 225, 226, 227, 228, 229, 230, 231, 232, 233, 234, 235, 236, 237, 238, 239, 240, 241, 242, 243, 244, 245, 246, 247, 248, 249, 250, 251, 252, 253, 254, 255, 256, 257, 258, 259, 260, 261, 262, 263, 264, 265, 266, 267, 268, 269, 270, 271, 272, 273, 274, 275, 276, 277, 278, 279, 280, 281, 282, 283, 284, 285, 286, 287, 288, 289, 290, 291, 292, 293, 294, 295, 296, 297, 298, 299, 300, 301, 302, 303, 304, 305, 306, 307, 308, 309, 310, 311, 312, 313, 314, 315, 316, 317, 318, 319, 320, 321, 322, 323, 324, 325, 326, 327, 328, 329, 330, 331, 332, 333, 334, 335, 336, 337, 338, 339, 340, 341, 342, 343, 344, 345, 346, 347, 348, 349, 350, 351, 352, 353, 354, 355, 356, 357, 358, 359, 360, 361, 362, 363, 364, 365, 366, 367, 368, 369, 370, 371, 372, 373, 374, 375, 376, 377, 378, 379, 380, 381, 382, 383, 384, 385, 386, 387, 388, 389, 390, 391, 392, 393, 394, 395, 396, 397, 398, 399, 400, 401, 402, 403, 404, 405, 406, 407, 408, 409, 410, 411, 412, 413, 414, 415, 416, 417, 418, 419, 420, 421, 422, 423, 424, 425, 426, 427, 428, 429, 430, 431, 432],
      "AcquisitionTime": ["153056.482500", "153057.972500", "153059.462500", "153100.952500", "153102.442500", "153103.932500", "153105.422500", "153106.912500", "153108.402500", "153109.892500", "153111.382500", "153112.872500", "153114.362500", "153115.852500", "153117.342500", "153118.832500", "153120.322500", "153121.812500", "153123.302500", "153124.792500", "153126.282500", "153127.772500", "153129.262500", "153130.752500", "153132.242500", "153133.732500", "153135.222500", "153136.712500", "153138.202500", "153139.692500", "153141.182500", "153142.672500", "153144.162500", "153145.652500", "153147.142500", "153148.632500", "153150.122500", "153151.612500", "153153.102500", "153154.592500", "153156.082500", "153157.572500", "153159.062500", "153200.552500", "153202.042500", "153203.532500", "153205.022500", "153206.512500", "153208.002500", "153209.492500", "153210.982500", "153212.472500", "153213.962500", "153215.452500", "153216.942500", "153218.432500", "153219.922500", "153221.412500", "153222.902500", "153224.392500", "153225.882500", "153227.372500", "153228.862500", "153230.352500", "153231.842500", "153233.332500", "153234.822500", "153236.312500", "153237.802500", "153239.292500", "153240.782500", "153242.272500", "153243.762500", "153245.252500", "153246.742500", "153248.232500", "153249.722500", "153251.212500", "153252.702500", "153254.192500", "153255.682500", "153257.172500", "153258.662500", "153300.152500", "153301.642500", "153303.132500", "153304.622500", "153306.112500", "153307.602500", "153309.092500", "153310.582500", "153312.072500", "153313.562500", "153315.052500", "153316.542500", "153318.032500", "153319.522500", "153321.012500", "153322.502500", "153323.992500", "153325.482500", "153326.972500", "153328.462500", "153329.952500", "153331.442500", "153332.932500", "153334.422500", "153335.912500", "153337.402500", "153338.892500", "153340.382500", "153341.872500", "153343.362500", "153344.852500", "153346.342500", "153347.832500", "153349.322500", "153350.812500", "153352.302500", "153353.792500", "153355.282500", "153356.772500", "153358.262500", "153359.752500", "153401.242500", "153402.732500", "153404.222500", "153405.712500", "153407.202500", "153408.692500", "153410.182500", "153411.672500", "153413.162500", "153414.652500", "153416.142500", "153417.632500", "153419.122500", "153420.612500", "153422.102500", "153423.592500", "153425.082500", "153426.572500", "153428.062500", "153429.552500", "153431.042500", "153432.532500", "153434.022500", "153435.512500", "153437.002500", "153438.492500", "153439.982500", "153441.472500", "153442.962500", "153444.452500", "153445.942500", "153447.432500", "153448.922500", "153450.412500", "153451.902500", "153453.392500", "153454.882500", "153456.372500", "153457.862500", "153459.352500", "153500.842500", "153502.332500", "153503.822500", "153505.312500", "153506.802500", "153508.292500", "153509.782500", "153511.272500", "153512.762500", "153514.252500", "153515.742500", "153517.232500", "153518.722500", "153520.212500", "153521.702500", "153523.192500", "153524.682500", "153526.172500", "153527.662500", "153529.152500", "153530.642500", "153532.132500", "153533.622500", "153535.112500", "153536.602500", "153538.092500", "153539.582500", "153541.072500", "153542.562500", "153544.052500", "153545.542500", "153547.032500", "153548.522500", "153550.012500", "153551.502500", "153552.992500", "153554.482500", "153555.972500", "153557.462500", "153558.952500", "153600.442500", "153601.932500", "153603.422500", "153604.912500", "153606.402500", "153607.892500", "153609.382500", "153610.872500", "153612.362500", "153613.852500", "153615.342500", "153616.832500", "153618.322500", "153619.812500", "153621.302500", "153622.792500", "153624.282500", "153625.772500", "153627.262500", "153628.752500", "153630.242500", "153631.732500", "153633.222500", "153634.712500", "153636.202500", "153637.692500", "153639.182500", "153640.672500", "153642.162500", "153643.652500", "153645.142500", "153646.632500", "153648.122500", "153649.612500", "153651.102500", "153652.592500", "153654.082500", "153655.572500", "153657.062500", "153658.552500", "153700.042500", "153701.532500", "153703.022500", "153704.512500", "153706.002500", "153707.492500", "153708.982500", "153710.472500", "153711.962500", "153713.452500", "153714.942500", "153716.432500", "153717.922500", "153719.412500", "153720.902500", "153722.392500", "153723.882500", "153725.372500", "153726.862500", "153728.352500", "153729.842500", "153731.332500", "153732.822500", "153734.312500", "153735.802500", "153737.292500", "153738.782500", "153740.272500", "153741.762500", "153743.252500", "153744.742500", "153746.232500", "153747.722500", "153749.212500", "153750.702500", "153752.192500", "153753.682500", "153755.172500", "153756.662500", "153758.152500", "153759.642500", "153801.132500", "153802.622500", "153804.112500", "153805.602500", "153807.092500", "153808.582500", "153810.072500", "153811.562500", "153813.052500", "153814.542500", "153816.032500", "153817.522500", "153819.012500", "153820.502500", "153821.992500", "153823.482500", "153824.972500", "153826.462500", "153827.952500", "153829.442500", "153830.932500", "153832.422500", "153833.912500", "153835.402500", "153836.892500", "153838.382500", "153839.872500", "153841.362500", "153842.852500", "153844.342500", "153845.832500", "153847.322500", "153848.812500", "153850.302500", "153851.792500", "153853.282500", "153854.772500", "153856.262500", "153857.752500", "153859.242500", "153900.732500", "153902.222500", "153903.712500", "153905.202500", "153906.692500", "153908.182500", "153909.672500", "153911.162500", "153912.652500", "153914.142500", "153915.632500", "153917.122500", "153918.612500", "153920.102500", "153921.592500", "153923.082500", "153924.572500", "153926.062500", "153927.552500", "153929.042500", "153930.532500", "153932.022500", "153933.512500", "153935.002500", "153936.492500", "153937.982500", "153939.472500", "153940.962500", "153942.452500", "153943.942500", "153945.432500", "153946.922500", "153948.412500", "153949.902500", "153951.392500", "153952.882500", "153954.372500", "153955.862500", "153957.352500", "153958.842500", "154000.332500", "154001.822500", "154003.312500", "154004.802500", "154006.292500", "154007.782500", "154009.272500", "154010.762500", "154012.252500", "154013.742500", "154015.232500", "154016.722500", "154018.212500", "154019.702500", "154021.192500", "154022.682500", "154024.172500", "154025.662500", "154027.152500", "154028.642500", "154030.132500", "154031.622500", "154033.112500", "154034.602500", "154036.092500", "154037.582500", "154039.072500", "154040.562500", "154042.052500", "154043.542500", "154045.032500", "154046.522500", "154048.012500", "154049.502500", "154050.992500", "154052.482500", "154053.972500", "154055.462500", "154056.952500", "154058.442500", "154059.932500", "154101.422500", "154102.912500", "154104.402500", "154105.892500", "154107.382500", "154108.872500", "154110.362500", "154111.852500", "154113.342500", "154114.832500", "154116.322500", "154117.812500", "154119.302500", "154120.792500", "154122.282500", "154123.772500", "154125.262500", "154126.752500", "154128.242500", "154129.732500", "154131.222500", "154132.712500", "154134.202500", "154135.692500", "154137.182500", "154138.672500"],
      "ContentTime": ["153155.080000", "153155.083000", "153155.085000", "153215.089000", "153215.098000", "153215.100000", "153215.103000", "153215.105000", "153215.108000", "153215.110000", "153215.113000", "153215.115000", "153215.118000", "153215.120000", "153215.123000", "153215.125000", "153215.128000", "153215.130000", "153215.133000", "153215.135000", "153215.138000", "153215.140000", "153215.143000", "153255.162000", "153255.165000", "153255.168000", "153255.186000", "153255.189000", "153255.192000", "153255.194000", "153255.197000", "153255.199000", "153255.202000", "153255.204000", "153255.207000", "153255.209000", "153255.212000", "153255.214000", "153255.217000", "153255.219000", "153255.222000", "153255.224000", "153255.227000", "153255.229000", "153255.232000", "153255.234000", "153255.237000", "153255.239000", "153255.242000", "153255.244000", "153255.247000", "153255.249000", "153255.252000", "153255.254000", "153255.257000", "153255.260000", "153255.263000", "153255.265000", "153255.267000", "153255.270000", "153255.273000", "153255.275000", "153315.106000", "153315.109000", "153315.112000", "153315.114000", "153315.117000", "153315.119000", "153315.122000", "153315.125000", "153315.127000", "153315.130000", "153315.132000", "153315.135000", "153315.149000", "153315.152000", "153315.154000", "153315.156000", "153315.235000", "153315.238000", "153315.240000", "153315.243000", "153335.069000", "153335.072000", "153335.075000", "153335.077000", "153335.080000", "153335.082000", "153335.085000", "153335.087000", "153335.090000", "153335.092000", "153335.094000", "153335.097000", "153335.100000", "153335.102000", "153335.105000", "153335.107000", "153335.110000", "153335.112000", "153335.115000", "153335.117000", "153335.120000", "153415.118000", "153415.121000", "153415.123000", "153415.126000", "153415.128000", "153415.131000", "153415.133000", "153415.136000", "153415.138000", "153415.141000", "153415.143000", "153415.146000", "153415.148000", "153415.151000", "153415.153000", "153415.156000", "153415.158000", "153415.161000", "153415.163000", "153415.166000", "153415.168000", "153415.171000", "153415.174000", "153415.176000", "153415.178000", "153415.181000", "153415.184000", "153415.186000", "153415.189000", "153455.092000", "153455.095000", "153455.097000", "153455.100000", "153455.102000", "153455.105000", "153455.107000", "153455.110000", "153455.112000", "153455.115000", "153455.117000", "153455.120000", "153455.122000", "153455.125000", "153455.127000", "153455.130000", "153455.132000", "153455.135000", "153455.137000", "153455.140000", "153455.142000", "153455.145000", "153455.147000", "153455.150000", "153455.153000", "153455.155000", "153455.198000", "153535.123000", "153535.126000", "153535.128000", "153535.131000", "153535.134000", "153535.136000", "153535.139000", "153535.141000", "153535.144000", "153535.146000", "153535.149000", "153535.151000", "153535.154000", "153535.156000", "153535.170000", "153535.173000", "153535.176000", "153535.178000", "153535.181000", "153535.183000", "153535.186000", "153535.188000", "153535.191000", "153535.193000", "153535.196000", "153535.198000", "153535.201000", "153615.114000", "153615.117000", "153615.119000", "153615.122000", "153615.124000", "153615.127000", "153615.129000", "153615.132000", "153615.134000", "153615.137000", "153615.139000", "153615.142000", "153615.144000", "153615.147000", "153615.149000", "153615.152000", "153615.154000", "153615.157000", "153615.160000", "153615.162000", "153615.165000", "153615.167000", "153615.170000", "153615.173000", "153615.175000", "153615.197000", "153615.200000", "153655.105000", "153655.108000", "153655.110000", "153655.112000", "153655.115000", "153655.118000", "153655.120000", "153655.123000", "153655.125000", "153655.128000", "153655.130000", "153655.133000", "153655.135000", "153655.138000", "153655.140000", "153655.143000", "153655.145000", "153655.148000", "153655.150000", "153655.153000", "153655.233000", "153655.236000", "153655.238000", "153655.241000", "153655.243000", "153655.246000", "153655.248000", "153735.627000", "153735.630000", "153735.633000", "153735.635000", "153735.638000", "153735.640000", "153735.643000", "153735.645000", "153735.648000", "153735.650000", "153735.653000", "153735.656000", "153735.658000", "153735.661000", "153735.664000", "153735.666000", "153735.669000", "153735.671000", "153735.674000", "153735.676000", "153735.679000", "153735.681000", "153735.684000", "153735.686000", "153735.689000", "153735.691000", "153735.694000", "153815.093000", "153815.096000", "153815.099000", "153815.101000", "153815.104000", "153815.107000", "153815.109000", "153815.112000", "153815.114000", "153815.117000", "153815.119000", "153815.122000", "153815.124000", "153815.127000", "153815.129000", "153815.132000", "153815.134000", "153815.137000", "153815.140000", "153815.142000", "153815.145000", "153815.147000", "153815.150000", "153815.152000", "153815.155000", "153815.158000", "153855.096000", "153855.099000", "153855.101000", "153855.104000", "153855.107000", "153855.109000", "153855.112000", "153855.114000", "153855.117000", "153855.120000", "153855.122000", "153855.125000", "153855.127000", "153855.130000", "153855.132000", "153855.135000", "153855.137000", "153855.140000", "153855.142000", "153855.145000", "153855.147000", "153855.150000", "153855.152000", "153855.155000", "153855.158000", "153855.199000", "153855.202000", "153935.093000", "153935.096000", "153935.099000", "153935.101000", "153935.104000", "153935.106000", "153935.109000", "153935.111000", "153935.114000", "153935.116000", "153935.119000", "153935.122000", "153935.124000", "153935.126000", "153935.129000", "153935.132000", "153935.134000", "153935.137000", "153935.139000", "153935.142000", "153935.144000", "153935.147000", "153935.149000", "153935.152000", "153935.154000", "153935.157000", "153935.199000", "154015.109000", "154015.111000", "154015.114000", "154015.116000", "154015.119000", "154015.121000", "154015.124000", "154015.126000", "154015.129000", "154015.131000", "154015.134000", "154015.136000", "154015.139000", "154015.142000", "154015.144000", "154015.146000", "154015.149000", "154015.152000", "154015.154000", "154015.157000", "154015.213000", "154015.215000", "154015.218000", "154015.220000", "154015.223000", "154015.225000", "154015.228000", "154055.098000", "154055.100000", "154055.103000", "154055.106000", "154055.108000", "154055.111000", "154055.113000", "154055.116000", "154055.118000", "154055.121000", "154055.123000", "154055.126000", "154055.128000", "154055.131000", "154055.133000", "154055.136000", "154055.138000", "154055.141000", "154055.144000", "154055.146000", "154055.148000", "154055.151000", "154055.154000", "154055.156000", "154055.196000", "154055.198000", "154055.201000", "154135.112000", "154135.115000", "154135.118000", "154135.120000", "154135.123000", "154135.125000", "154135.128000", "154135.130000", "154135.133000", "154135.135000", "154135.138000", "154135.140000", "154135.143000", "154135.145000", "154135.148000", "154135.150000", "154135.153000", "154135.155000", "154135.158000", "154135.227000", "154135.230000", "154135.233000", "154135.235000", "154135.238000", "154135.240000", "154135.243000", "154135.245000", "154141.440000", "154141.442000", "154141.445000", "154141.447000"],
