{
  "AcquisitionMatrixPE": 104,
  "AcquisitionNumber": 1,
  "AcquisitionTime": "16:09:44.722500",
  "BandwidthPerPixelPhaseEncode": 17.17,
  "BaseResolution": 104,
  "BodyPartExamined": "BRAIN",
  "CoilCombinationMethod": "Sum of Squares",
  "ConsistencyInfo": "N4_VE11C_LATEST_20160120",
  "ConversionSoftware": "dcm2niix",
  "ConversionSoftwareVersion": "v1.0.20211006",
  "DerivedVendorReportedEchoSpacing": 0.000560011,
  "DeviceSerialNumber": "167006",
  "DwellTime": 2.1e-06,
  "EchoTime": 0.037,
  "EchoTime1": 0.037,
  "EchoTime2": 0.001,
  "EchoTrainLength": 104,
  "EffectiveEchoSpacing": 0.000560011,
  "FlipAngle": 52,
  "HeudiconvVersion": "0.11.3.post9+gc939bf8",
  "ImageComments": "Unaliased MB4/PE3/LB",
  "ImageOrientationPatientDICOM": [0.999946, -0.0102375, -0.00185441, 0.00907549, 0.945441, -0.325668],
  "ImageOrientationText": "Tra>Cor(-19.0)>Sag(-0.3)",
  "ImageType": [
    "ORIGINAL",
    "PRIMARY",
    "P",
    "MB",
    "ND",
    "MOSAIC",
    "PHASE"
],
  "ImagingFrequency": 123.259,
  "InPlanePhaseEncodingDirectionDICOM": "COL",
  "InstitutionAddress": "Chemin Queen-Mary 4565,Montreal,District,CA,H3W 1W5",
  "InstitutionName": "IUGM",
  "InstitutionalDepartmentName": "Department",
  "MRAcquisitionType": "2D",
  "MagneticFieldStrength": 3,
  "Manufacturer": "Siemens",
  "ManufacturersModelName": "Prisma_fit",
  "MatrixCoilMode": "SENSE",
  "Modality": "MR",
  "MultibandAccelerationFactor": 4,
  "PartialFourier": 1,
  "PatientPosition": "HFS",
  "PercentPhaseFOV": 100,
  "PercentSampling": 100,
  "PhaseEncodingDirection": "j",
  "PhaseEncodingSteps": 104,
  "PhaseResolution": 1,
  "PixelBandwidth": 2290,
  "ProcedureStepDescription": "games^mariostars",
  "ProtocolName": "func_task-mariostars_run-04",
  "PulseSequenceDetails": "%CustomerSeq%\\cmrr_mbep2d_bold",
  "ReceiveCoilActiveElements": "HC1-7;NC1,2",
  "ReceiveCoilName": "HeadNeck_64",
  "ReconMatrixPE": 104,
  "RepetitionTime": 1.49,
  "SAR": 0.0320991,
  "ScanOptions": "FS",
  "ScanningSequence": "EP",
  "SequenceName": "epfid2d1_104",
  "SequenceVariant": "SK\\SS",
  "SeriesDescription": "func_task-mariostars_run-04",
  "SeriesNumber": 20,
  "ShimSetting": [625, -7278, -8821, 542, 39, -264, -32, 4],
  "SliceThickness": 2,
  "SliceTiming": [0, 0.785, 0.0975, 0.8825, 0.1975, 0.98, 0.295, 1.0775, 0.3925, 1.1775, 0.49, 1.275, 0.5875, 1.3725, 0.6875, 0, 0.785, 0.0975, 0.8825, 0.1975, 0.98, 0.295, 1.0775, 0.3925, 1.1775, 0.49, 1.275, 0.5875, 1.3725, 0.6875, 0, 0.785, 0.0975, 0.8825, 0.1975, 0.98, 0.295, 1.0775, 0.3925, 1.1775, 0.49, 1.275, 0.5875, 1.3725, 0.6875, 0, 0.785, 0.0975, 0.8825, 0.1975, 0.98, 0.295, 1.0775, 0.3925, 1.1775, 0.49, 1.275, 0.5875, 1.3725, 0.6875],
  "SoftwareVersions": "syngo MR E11",
  "SpacingBetweenSlices": 2,
  "StationName": "MRC35049",
  "TaskName": "mariostars",
  "TotalReadoutTime": 0.0576811,
  "TxRefAmp": 222.43,
  "WipMemBlock": "393b6351-cf65-4aad-82f3-c2c7e00c71bc||Sequence: R016 ve11c/master r/e634e98; Dec 19 2017 11:00:25 by eja",
  "dcmmeta_affine": [
    [-1.999891757965088, 0.01815098151564598, -0.010174496099352837, 105.53238677978516],
    [0.020474938675761223, 1.8908814191818237, -0.6512665152549744, -66.47063446044922],
    [-0.0037088198587298393, 0.6513354182243347, 1.8909649848937988, -61.51162338256836],
    [0.0, 0.0, 0.0, 1.0]
],
  "dcmmeta_reorient_transform": [
    [0.0, -1.0, 0.0, 103.0],
    [1.0, 0.0, 0.0, 0.0],
    [0.0, 0.0, 1.0, 0.0],
    [0.0, 0.0, 0.0, 1.0]
],
  "dcmmeta_shape": [104, 104, 60, 492],
  "dcmmeta_slice_dim": 2,
  "dcmmeta_version": 0.6,
  "global": {
    "const": {
      "AcquisitionMatrix": [104, 0, 0, 104],
      "AngioFlag": "N",
      "BitsAllocated": 16,
      "BitsStored": 16,
      "BodyPartExamined": "BRAIN",
      "Columns": 832,
      "EchoNumbers": 1,
      "EchoTime": 37.0,
      "EchoTrainLength": 104,
      "FlipAngle": 52.0,
      "HighBit": 15,
      "ImageOrientationPatient": [0.99994587622417, -0.01023746972, -0.0018544098829, 0.00907549070757, 0.94544073603107, -0.3256676989225],
      "ImagePositionPatient": [-841.96948974105, -809.11813597292, 244.01201871732],
      "ImageType": [
        "ORIGINAL",
        "PRIMARY",
        "P",
        "MB",
        "ND",
        "MOSAIC"
],
      "ImagedNucleus": "1H",
      "ImagingFrequency": 123.258807,
      "InPlanePhaseEncodingDirection": "COL",
      "LargestImagePixelValue": 4095,
      "MRAcquisitionType": "2D",
      "MagneticFieldStrength": 3.0,
      "Manufacturer": "SIEMENS",
      "ManufacturerModelName": "Prisma_fit",
      "Modality": "MR",
      "NumberOfAverages": 1.0,
      "NumberOfPhaseEncodingSteps": 104,
      "PercentPhaseFieldOfView": 100.0,
      "PercentSampling": 100.0,
      "PerformedProcedureStepStartTime": "150653.036000",
      "PhotometricInterpretation": "MONOCHROME2",
      "PixelBandwidth": 2290.0,
      "PixelRepresentation": 0,
      "PixelSpacing": [2.0, 2.0],
      "ProtocolName": "func_task-mariostars_run-04",
      "RepetitionTime": 1490.0,
      "RescaleIntercept": -4096.0,
      "RescaleSlope": 2.0,
      "RescaleType": "US",
      "Rows": 832,
      "SAR": 0.03209906654408,
      "SamplesPerPixel": 1,
      "ScanOptions": "FS",
      "ScanningSequence": "EP",
      "SequenceName": "epfid2d1_104",
      "SequenceVariant": [
        "SK",
        "SS"
],
      "SeriesDescription": "func_task-mariostars_run-04",
      "SeriesNumber": 20,
      "SeriesTime": "161115.166000",
      "SliceLocation": -37.049982512554,
      "SliceThickness": 2.0,
      "SmallestImagePixelValue": 0,
      "SoftwareVersions": "syngo MR E11",
      "SpacingBetweenSlices": 2.000000032319,
      "SpecificCharacterSet": "ISO_IR 100",
      "StudyID": "1",
      "StudyTime": "150652.967000",
      "TransmitCoilName": "Body",
      "VariableFlipAngleFlag": "N",
      "WindowCenterWidthExplanation": "Algo1",
      "dBdt": 0.0},
    "slices": {}
  },
  "time": {
    "samples": {
      "AcquisitionNumber": [1, 2, 3, 4, 5, 6, 7, 8, 9, 10, 11, 12, 13, 14, 15, 16, 17, 18, 19, 20, 21, 22, 23, 24, 25, 26, 27, 28, 29, 30, 31, 32, 33, 34, 35, 36, 37, 38, 39, 40, 41, 42, 43, 44, 45, 46, 47, 48, 49, 50, 51, 52, 53, 54, 55, 56, 57, 58, 59, 60, 61, 62, 63, 64, 65, 66, 67, 68, 69, 70, 71, 72, 73, 74, 75, 76, 77, 78, 79, 80, 81, 82, 83, 84, 85, 86, 87, 88, 89, 90, 91, 92, 93, 94, 95, 96, 97, 98, 99, 100, 101, 102, 103, 104, 105, 106, 107, 108, 109, 110, 111, 112, 113, 114, 115, 116, 117, 118, 119, 120, 121, 122, 123, 124, 125, 126, 127, 128, 129, 130, 131, 132, 133, 134, 135, 136, 137, 138, 139, 140, 141, 142, 143, 144, 145, 146, 147, 148, 149, 150, 151, 152, 153, 154, 155, 156, 157, 158, 159, 160, 161, 162, 163, 164, 165, 166, 167, 168, 169, 170, 171, 172, 173, 174, 175, 176, 177, 178, 179, 180, 181, 182, 183, 184, 185, 186, 187, 188, 189, 190, 191, 192, 193, 194, 195, 196, 197, 198, 199, 200, 201, 202, 203, 204, 205, 206, 207, 208, 209, 210, 211, 212, 213, 214, 215, 216, 217, 218, 219, 220, 221, 222, 223, 224, 225, 226, 227, 228, 229, 230, 231, 232, 233, 234, 235, 236, 237, 238, 239, 240, 241, 242, 243, 244, 245, 246, 247, 248, 249, 250, 251, 252, 253, 254, 255, 256, 257, 258, 259, 260, 261, 262, 263, 264, 265, 266, 267, 268, 269, 270, 271, 272, 273, 274, 275, 276, 277, 278, 279, 280, 281, 282, 283, 284, 285, 286, 287, 288, 289, 290, 291, 292, 293, 294, 295, 296, 297, 298, 299, 300, 301, 302, 303, 304, 305, 306, 307, 308, 309, 310, 311, 312, 313, 314, 315, 316, 317, 318, 319, 320, 321, 322, 323, 324, 325, 326, 327, 328, 329, 330, 331, 332, 333, 334, 335, 336, 337, 338, 339, 340, 341, 342, 343, 344, 345, 346, 347, 348, 349, 350, 351, 352, 353, 354, 355, 356, 357, 358, 359, 360, 361, 362, 363, 364, 365, 366, 367, 368, 369, 370, 371, 372, 373, 374, 375, 376, 377, 378, 379, 380, 381, 382, 383, 384, 385, 386, 387, 388, 389, 390, 391, 392, 393, 394, 395, 396, 397, 398, 399, 400, 401, 402, 403, 404, 405, 406, 407, 408, 409, 410, 411, 412, 413, 414, 415, 416, 417, 418, 419, 420, 421, 422, 423, 424, 425, 426, 427, 428, 429, 430, 431, 432, 433, 434, 435, 436, 437, 438, 439, 440, 441, 442, 443, 444, 445, 446, 447, 448, 449, 450, 451, 452, 453, 454, 455, 456, 457, 458, 459, 460, 461, 462, 463, 464, 465, 466, 467, 468, 469, 470, 471, 472, 473, 474, 475, 476, 477, 478, 479, 480, 481, 482, 483, 484, 485, 486, 487, 488, 489, 490, 491, 492],
      "AcquisitionTime": ["160944.722500", "160946.212500", "160947.702500", "160949.192500", "160950.682500", "160952.172500", "160953.662500", "160955.152500", "160956.642500", "160958.132500", "160959.622500", "161001.112500", "161002.602500", "161004.092500", "161005.582500", "161007.072500", "161008.562500", "161010.052500", "161011.542500", "161013.032500", "161014.522500", "161016.012500", "161017.502500", "161018.992500", "161020.482500", "161021.972500", "161023.462500", "161024.952500", "161026.442500", "161027.932500", "161029.422500", "161030.912500", "161032.402500", "161033.892500", "161035.382500", "161036.872500", "161038.362500", "161039.852500", "161041.342500", "161042.832500", "161044.322500", "161045.812500", "161047.302500", "161048.792500", "161050.282500", "161051.772500", "161053.262500", "161054.752500", "161056.242500", "161057.732500", "161059.222500", "161100.712500", "161102.202500", "161103.692500", "161105.182500", "161106.672500", "161108.162500", "161109.652500", "161111.142500", "161112.632500", "161114.122500", "161115.612500", "161117.102500", "161118.592500", "161120.082500", "161121.572500", "161123.062500", "161124.552500", "161126.042500", "161127.532500", "161129.022500", "161130.512500", "161132.002500", "161133.492500", "161134.982500", "161136.472500", "161137.962500", "161139.452500", "161140.942500", "161142.432500", "161143.922500", "161145.412500", "161146.902500", "161148.392500", "161149.882500", "161151.372500", "161152.862500", "161154.352500", "161155.842500", "161157.332500", "161158.822500", "161200.312500", "161201.802500", "161203.292500", "161204.782500", "161206.272500", "161207.762500", "161209.252500", "161210.742500", "161212.232500", "161213.722500", "161215.212500", "161216.702500", "161218.192500", "161219.682500", "161221.172500", "161222.662500", "161224.152500", "161225.642500", "161227.132500", "161228.622500", "161230.112500", "161231.602500", "161233.092500", "161234.582500", "161236.072500", "161237.562500", "161239.052500", "161240.542500", "161242.032500", "161243.522500", "161245.012500", "161246.502500", "161247.992500", "161249.482500", "161250.972500", "161252.462500", "161253.952500", "161255.442500", "161256.932500", "161258.422500", "161259.912500", "161301.402500", "161302.892500", "161304.382500", "161305.872500", "161307.362500", "161308.852500", "161310.342500", "161311.832500", "161313.322500", "161314.812500", "161316.302500", "161317.792500", "161319.282500", "161320.772500", "161322.262500", "161323.752500", "161325.242500", "161326.732500", "161328.222500", "161329.712500", "161331.202500", "161332.692500", "161334.182500", "161335.672500", "161337.162500", "161338.652500", "161340.142500", "161341.632500", "161343.122500", "161344.612500", "161346.102500", "161347.592500", "161349.082500", "161350.572500", "161352.062500", "161353.552500", "161355.042500", "161356.532500", "161358.022500", "161359.512500", "161401.002500", "161402.492500", "161403.982500", "161405.472500", "161406.962500", "161408.452500", "161409.942500", "161411.432500", "161412.922500", "161414.412500", "161415.902500", "161417.392500", "161418.882500", "161420.372500", "161421.862500", "161423.352500", "161424.842500", "161426.332500", "161427.822500", "161429.312500", "161430.802500", "161432.292500", "161433.782500", "161435.272500", "161436.762500", "161438.252500", "161439.742500", "161441.232500", "161442.722500", "161444.212500", "161445.702500", "161447.192500", "161448.682500", "161450.172500", "161451.662500", "161453.152500", "161454.642500", "161456.132500", "161457.622500", "161459.112500", "161500.602500", "161502.092500", "161503.582500", "161505.072500", "161506.562500", "161508.052500", "161509.542500", "161511.032500", "161512.522500", "161514.012500", "161515.502500", "161516.992500", "161518.482500", "161519.972500", "161521.462500", "161522.952500", "161524.442500", "161525.932500", "161527.422500", "161528.912500", "161530.402500", "161531.892500", "161533.382500", "161534.872500", "161536.362500", "161537.852500", "161539.342500", "161540.832500", "161542.322500", "161543.812500", "161545.302500", "161546.792500", "161548.282500", "161549.772500", "161551.262500", "161552.752500", "161554.242500", "161555.732500", "161557.222500", "161558.712500", "161600.202500", "161601.692500", "161603.182500", "161604.672500", "161606.162500", "161607.652500", "161609.142500", "161610.632500", "161612.122500", "161613.612500", "161615.102500", "161616.592500", "161618.082500", "161619.572500", "161621.062500", "161622.552500", "161624.042500", "161625.532500", "161627.022500", "161628.512500", "161630.002500", "161631.492500", "161632.982500", "161634.472500", "161635.962500", "161637.452500", "161638.942500", "161640.432500", "161641.922500", "161643.412500", "161644.902500", "161646.392500", "161647.882500", "161649.372500", "161650.862500", "161652.352500", "161653.842500", "161655.332500", "161656.822500", "161658.312500", "161659.802500", "161701.292500", "161702.782500", "161704.272500", "161705.762500", "161707.252500", "161708.742500", "161710.232500", "161711.722500", "161713.212500", "161714.702500", "161716.192500", "161717.682500", "161719.172500", "161720.662500", "161722.152500", "161723.642500", "161725.132500", "161726.622500", "161728.112500", "161729.602500", "161731.092500", "161732.582500", "161734.072500", "161735.562500", "161737.052500", "161738.542500", "161740.032500", "161741.522500", "161743.012500", "161744.502500", "161745.992500", "161747.482500", "161748.972500", "161750.462500", "161751.952500", "161753.442500", "161754.932500", "161756.422500", "161757.912500", "161759.402500", "161800.892500", "161802.382500", "161803.872500", "161805.362500", "161806.852500", "161808.342500", "161809.832500", "161811.322500", "161812.812500", "161814.302500", "161815.792500", "161817.282500", "161818.772500", "161820.262500", "161821.752500", "161823.242500", "161824.732500", "161826.222500", "161827.712500", "161829.202500", "161830.692500", "161832.182500", "161833.672500", "161835.162500", "161836.652500", "161838.142500", "161839.632500", "161841.122500", "161842.612500", "161844.102500", "161845.592500", "161847.082500", "161848.572500", "161850.062500", "161851.552500", "161853.042500", "161854.532500", "161856.022500", "161857.512500", "161859.002500", "161900.492500", "161901.982500", "161903.472500", "161904.962500", "161906.452500", "161907.942500", "161909.432500", "161910.922500", "161912.412500", "161913.902500", "161915.392500", "161916.882500", "161918.372500", "161919.862500", "161921.352500", "161922.842500", "161924.332500", "161925.822500", "161927.312500", "161928.802500", "161930.292500", "161931.782500", "161933.272500", "161934.762500", "161936.252500", "161937.742500", "161939.232500", "161940.722500", "161942.212500", "161943.702500", "161945.192500", "161946.682500", "161948.172500", "161949.662500", "161951.152500", "161952.642500", "161954.132500", "161955.622500", "161957.112500", "161958.602500", "162000.092500", "162001.582500", "162003.072500", "162004.562500", "162006.052500", "162007.542500", "162009.032500", "162010.522500", "162012.012500", "162013.502500", "162014.992500", "162016.482500", "162017.972500", "162019.462500", "162020.952500", "162022.442500", "162023.932500", "162025.422500", "162026.912500", "162028.402500", "162029.892500", "162031.382500", "162032.872500", "162034.362500", "162035.852500", "162037.342500", "162038.832500", "162040.322500", "162041.812500", "162043.302500", "162044.792500", "162046.282500", "162047.772500", "162049.262500", "162050.752500", "162052.242500", "162053.732500", "162055.222500", "162056.712500", "162058.202500", "162059.692500", "162101.182500", "162102.672500", "162104.162500", "162105.652500", "162107.142500", "162108.632500", "162110.122500", "162111.612500", "162113.102500", "162114.592500", "162116.082500", "162117.572500", "162119.062500", "162120.552500", "162122.042500", "162123.532500", "162125.022500", "162126.512500", "162128.002500", "162129.492500", "162130.982500", "162132.472500", "162133.962500", "162135.452500", "162136.942500", "162138.432500", "162139.922500", "162141.412500", "162142.902500", "162144.392500", "162145.882500", "162147.372500", "162148.862500", "162150.352500", "162151.842500", "162153.332500", "162154.822500", "162156.312500"],
      "ContentTime": ["161115.168000", "161115.189000", "161115.192000", "161115.194000", "161115.197000", "161115.205000", "161115.208000", "161115.210000", "161115.213000", "161115.215000", "161115.218000", "161115.220000", "161115.223000", "161115.225000", "161115.228000", "161115.230000", "161115.233000", "161115.235000", "161115.238000", "161115.240000", "161115.243000", "161115.245000", "161115.248000", "161115.250000", "161115.253000", "161115.255000", "161115.265000", "161115.267000", "161115.269000", "161115.272000", "161115.275000", "161115.277000", "161115.279000", "161135.067000", "161135.070000", "161135.073000", "161135.075000", "161135.078000", "161135.080000", "161135.083000", "161135.086000", "161135.088000", "161135.091000", "161135.093000", "161135.096000", "161135.098000", "161135.101000", "161135.103000", "161135.106000", "161135.109000", "161135.111000", "161135.113000", "161135.116000", "161155.062000", "161155.064000", "161155.067000", "161155.070000", "161155.072000", "161155.075000", "161155.077000", "161155.080000", "161155.082000", "161155.085000", "161155.087000", "161155.090000", "161155.092000", "161155.095000", "161155.097000", "161155.100000", "161155.102000", "161155.105000", "161155.107000", "161155.110000", "161215.089000", "161215.092000", "161215.095000", "161215.098000", "161215.100000", "161215.102000", "161215.105000", "161215.108000", "161215.110000", "161215.113000", "161215.115000", "161215.118000", "161215.120000", "161215.123000", "161215.126000", "161215.128000", "161215.131000", "161215.133000", "161215.136000", "161215.138000", "161235.067000", "161235.070000", "161235.072000", "161235.075000", "161235.077000", "161235.080000", "161235.082000", "161235.085000", "161235.088000", "161235.090000", "161235.092000", "161235.095000", "161235.098000", "161235.100000", "161235.103000", "161235.105000", "161235.108000", "161235.110000", "161235.113000", "161235.115000", "161315.114000", "161315.117000", "161315.120000", "161315.122000", "161315.125000", "161315.128000", "161315.130000", "161315.133000", "161315.135000", "161315.138000", "161315.140000", "161315.143000", "161315.145000", "161315.148000", "161315.150000", "161315.153000", "161315.155000", "161315.158000", "161315.160000", "161315.174000", "161315.177000", "161315.179000", "161315.182000", "161315.184000", "161315.187000", "161315.190000", "161315.192000", "161355.093000", "161355.096000", "161355.099000", "161355.101000", "161355.104000", "161355.106000", "161355.109000", "161355.111000", "161355.114000", "161355.116000", "161355.119000", "161355.121000", "161355.124000", "161355.126000", "161355.129000", "161355.131000", "161355.134000", "161355.136000", "161355.139000", "161355.141000", "161355.144000", "161355.146000", "161355.149000", "161355.152000", "161355.154000", "161355.157000", "161355.205000", "161435.119000", "161435.121000", "161435.124000", "161435.126000", "161435.129000", "161435.131000", "161435.134000", "161435.136000", "161435.151000", "161435.154000", "161435.156000", "161435.181000", "161435.183000", "161435.186000", "161435.189000", "161435.191000", "161435.194000", "161435.196000", "161435.199000", "161435.201000", "161435.204000", "161435.206000", "161435.209000", "161435.211000", "161435.214000", "161435.216000", "161435.219000", "161515.104000", "161515.106000", "161515.109000", "161515.112000", "161515.114000", "161515.117000", "161515.119000", "161515.122000", "161515.124000", "161515.127000", "161515.129000", "161515.132000", "161515.134000", "161515.137000", "161515.139000", "161515.142000", "161515.144000", "161515.147000", "161515.149000", "161515.152000", "161515.154000", "161515.157000", "161515.230000", "161515.233000", "161515.235000", "161515.238000", "161555.122000", "161555.125000", "161555.128000", "161555.130000", "161555.133000", "161555.135000", "161555.138000", "161555.140000", "161555.143000", "161555.145000", "161555.148000", "161555.150000", "161555.153000", "161555.156000", "161555.186000", "161555.188000", "161555.190000", "161555.193000", "161555.196000", "161555.198000", "161555.201000", "161555.203000", "161555.206000", "161555.208000", "161555.211000", "161555.214000", "161555.216000", "161635.103000", "161635.106000", "161635.108000", "161635.111000", "161635.113000", "161635.116000", "161635.118000", "161635.121000", "161635.123000", "161635.126000", "161635.128000", "161635.131000", "161635.133000", "161635.136000", "161635.138000", "161635.141000", "161635.144000", "161635.146000", "161635.148000", "161635.151000", "161635.153000", "161635.156000", "161635.245000", "161635.248000", "161635.251000", "161635.253000", "161635.255000", "161715.106000", "161715.109000", "161715.111000", "161715.114000", "161715.116000", "161715.119000", "161715.121000", "161715.124000", "161715.126000", "161715.129000", "161715.132000", "161715.134000", "161715.137000", "161715.139000", "161715.142000", "161715.144000", "161715.147000", "161715.149000", "161715.152000", "161715.154000", "161715.157000", "161715.195000", "161715.198000", "161715.200000", "161715.203000", "161715.205000", "161715.208000", "161755.126000", "161755.128000", "161755.131000", "161755.133000", "161755.136000", "161755.138000", "161755.141000", "161755.143000", "161755.146000", "161755.148000", "161755.151000", "161755.153000", "161755.156000", "161755.159000", "161755.161000", "161755.164000", "161755.166000", "161755.169000", "161755.171000", "161755.174000", "161755.176000", "161755.179000", "161755.181000", "161755.184000", "161755.187000", "161755.189000", "161755.192000", "161815.050000", "161815.052000", "161815.055000", "161815.057000", "161815.060000", "161815.063000", "161815.065000", "161815.068000", "161815.070000", "161815.073000", "161815.075000", "161815.078000", "161815.080000", "161855.098000", "161855.103000", "161855.105000", "161855.108000", "161855.111000", "161855.113000", "161855.115000", "161855.118000", "161855.121000", "161855.123000", "161855.126000", "161855.128000", "161855.131000", "161855.133000", "161855.136000", "161855.138000", "161855.141000", "161855.143000", "161855.146000", "161855.148000", "161855.151000", "161855.153000", "161855.156000", "161855.241000", "161855.244000", "161855.247000", "161855.249000", "161935.097000", "161935.100000", "161935.102000", "161935.105000", "161935.107000", "161935.110000", "161935.112000", "161935.115000", "161935.117000", "161935.120000", "161935.134000", "161935.136000", "161935.139000", "161935.141000", "161935.144000", "161935.147000", "161935.149000", "161935.152000", "161935.155000", "161935.157000", "161935.221000", "161935.224000", "161935.227000", "161935.229000", "161935.232000", "161935.234000", "161935.237000", "162015.117000", "162015.119000", "162015.122000", "162015.124000", "162015.127000", "162015.130000", "162015.132000", "162015.135000", "162015.137000", "162015.140000", "162015.142000", "162015.144000", "162015.147000", "162015.150000", "162015.152000", "162015.154000", "162015.157000", "162015.225000", "162015.228000", "162015.230000", "162015.233000", "162015.235000", "162015.238000", "162015.240000", "162015.243000", "162015.246000", "162015.248000", "162055.114000", "162055.116000", "162055.119000", "162055.122000", "162055.124000", "162055.127000", "162055.129000", "162055.132000", "162055.134000", "162055.137000", "162055.139000", "162055.142000", "162055.144000", "162055.147000", "162055.149000", "162055.152000", "162055.154000", "162055.157000", "162055.224000", "162055.227000", "162055.229000", "162055.231000", "162055.234000", "162055.236000", "162055.239000", "162055.241000", "162055.244000", "162135.107000", "162135.109000", "162135.112000", "162135.114000", "162135.117000", "162135.120000", "162135.122000", "162135.125000", "162135.127000", "162135.130000", "162135.132000", "162135.135000", "162135.137000", "162135.140000", "162135.142000", "162135.145000", "162135.147000", "162135.150000", "162135.153000", "162135.155000", "162135.158000", "162135.230000", "162135.233000", "162135.235000", "162135.238000", "162135.240000", "162159.863000", "162159.865000", "162159.868000", "162159.871000", "162159.873000", "162159.875000", "162159.878000", "162159.881000", "162159.883000", "162159.886000", "162159.888000", "162159.891000", "162159.893000", "162159.896000", "162159.898000", "162159.901000", "162159.903000"],
