{
  "AcquisitionMatrixPE": 104,
  "AcquisitionNumber": 1,
  "AcquisitionTime": "16:09:44.722500",
  "BandwidthPerPixelPhaseEncode": 17.17,
  "BaseResolution": 104,
  "BodyPartExamined": "BRAIN",
  "CoilCombinationMethod": "Sum of Squares",
  "ConsistencyInfo": "N4_VE11C_LATEST_20160120",
  "ConversionSoftware": "dcm2niix",
  "ConversionSoftwareVersion": "v1.0.20211006",
  "DerivedVendorReportedEchoSpacing": 0.000560011,
  "DeviceSerialNumber": "167006",
  "DwellTime": 2.1e-06,
  "EchoTime": 0.037,
  "EchoTrainLength": 104,
  "EffectiveEchoSpacing": 0.000560011,
  "FlipAngle": 52,
  "HeudiconvVersion": "0.11.3.post9+gc939bf8",
  "ImageComments": "Unaliased MB4/PE3/LB",
  "ImageOrientationPatientDICOM": [0.999946, -0.0102375, -0.00185441, 0.00907549, 0.945441, -0.325668],
  "ImageOrientationText": "Tra>Cor(-19.0)>Sag(-0.3)",
  "ImageType": [
    "ORIGINAL",
    "PRIMARY",
    "M",
    "MB",
    "ND",
    "MOSAIC"
],
  "ImagingFrequency": 123.259,
  "InPlanePhaseEncodingDirectionDICOM": "COL",
  "InstitutionAddress": "Chemin Queen-Mary 4565,Montreal,District,CA,H3W 1W5",
  "InstitutionName": "IUGM",
  "InstitutionalDepartmentName": "Department",
  "MRAcquisitionType": "2D",
  "MagneticFieldStrength": 3,
  "Manufacturer": "Siemens",
  "ManufacturersModelName": "Prisma_fit",
  "MatrixCoilMode": "SENSE",
  "Modality": "MR",
  "MultibandAccelerationFactor": 4,
  "PartialFourier": 1,
  "PatientPosition": "HFS",
  "PercentPhaseFOV": 100,
  "PercentSampling": 100,
  "PhaseEncodingDirection": "j",
  "PhaseEncodingSteps": 104,
  "PhaseResolution": 1,
  "PixelBandwidth": 2290,
  "ProcedureStepDescription": "games^mariostars",
  "ProtocolName": "func_task-mariostars_run-04",
  "PulseSequenceDetails": "%CustomerSeq%\\cmrr_mbep2d_bold",
  "ReceiveCoilActiveElements": "HC1-7;NC1,2",
  "ReceiveCoilName": "HeadNeck_64",
  "ReconMatrixPE": 104,
  "RepetitionTime": 1.49,
  "SAR": 0.0320991,
  "ScanOptions": "FS",
  "ScanningSequence": "EP",
  "SequenceName": "epfid2d1_104",
  "SequenceVariant": "SK\\SS",
  "SeriesDescription": "func_task-mariostars_run-04",
  "SeriesNumber": 19,
  "ShimSetting": [625, -7278, -8821, 542, 39, -264, -32, 4],
  "SliceThickness": 2,
  "SliceTiming": [0, 0.785, 0.0975, 0.8825, 0.1975, 0.98, 0.295, 1.0775, 0.3925, 1.1775, 0.49, 1.275, 0.5875, 1.3725, 0.6875, 0, 0.785, 0.0975, 0.8825, 0.1975, 0.98, 0.295, 1.0775, 0.3925, 1.1775, 0.49, 1.275, 0.5875, 1.3725, 0.6875, 0, 0.785, 0.0975, 0.8825, 0.1975, 0.98, 0.295, 1.0775, 0.3925, 1.1775, 0.49, 1.275, 0.5875, 1.3725, 0.6875, 0, 0.785, 0.0975, 0.8825, 0.1975, 0.98, 0.295, 1.0775, 0.3925, 1.1775, 0.49, 1.275, 0.5875, 1.3725, 0.6875],
  "SoftwareVersions": "syngo MR E11",
  "SpacingBetweenSlices": 2,
  "StationName": "MRC35049",
  "TaskName": "mariostars",
  "TotalReadoutTime": 0.0576811,
  "TxRefAmp": 222.43,
  "WipMemBlock": "393b6351-cf65-4aad-82f3-c2c7e00c71bc||Sequence: R016 ve11c/master r/e634e98; Dec 19 2017 11:00:25 by eja",
  "dcmmeta_affine": [
    [-1.999891757965088, 0.01815098151564598, -0.010174496099352837, 105.53238677978516],
    [0.020474938675761223, 1.8908814191818237, -0.6512665152549744, -66.47063446044922],
    [-0.0037088198587298393, 0.6513354182243347, 1.8909649848937988, -61.51162338256836],
    [0.0, 0.0, 0.0, 1.0]
],
  "dcmmeta_reorient_transform": [
    [0.0, -1.0, 0.0, 103.0],
    [1.0, 0.0, 0.0, 0.0],
    [0.0, 0.0, 1.0, 0.0],
    [0.0, 0.0, 0.0, 1.0]
],
  "dcmmeta_shape": [104, 104, 60, 492],
  "dcmmeta_slice_dim": 2,
  "dcmmeta_version": 0.6,
  "global": {
    "const": {
      "AcquisitionMatrix": [104, 0, 0, 104],
      "AngioFlag": "N",
      "BitsAllocated": 16,
      "BitsStored": 16,
      "BodyPartExamined": "BRAIN",
      "Columns": 832,
      "EchoNumbers": 1,
      "EchoTime": 37.0,
      "EchoTrainLength": 104,
      "FlipAngle": 52.0,
      "HighBit": 15,
      "ImageOrientationPatient": [0.99994587622417, -0.01023746972, -0.0018544098829, 0.00907549070757, 0.94544073603107, -0.3256676989225],
      "ImagePositionPatient": [-841.96948974105, -809.11813597292, 244.01201871732],
      "ImageType": [
        "ORIGINAL",
        "PRIMARY",
        "M",
        "MB",
        "ND",
        "MOSAIC"
],
      "ImagedNucleus": "1H",
      "ImagingFrequency": 123.258807,
      "InPlanePhaseEncodingDirection": "COL",
      "MRAcquisitionType": "2D",
      "MagneticFieldStrength": 3.0,
      "Manufacturer": "SIEMENS",
      "ManufacturerModelName": "Prisma_fit",
      "Modality": "MR",
      "NumberOfAverages": 1.0,
      "NumberOfPhaseEncodingSteps": 104,
      "PercentPhaseFieldOfView": 100.0,
      "PercentSampling": 100.0,
      "PerformedProcedureStepStartTime": "150653.036000",
      "PhotometricInterpretation": "MONOCHROME2",
      "PixelBandwidth": 2290.0,
      "PixelRepresentation": 0,
      "PixelSpacing": [2.0, 2.0],
      "ProtocolName": "func_task-mariostars_run-04",
      "RepetitionTime": 1490.0,
      "Rows": 832,
      "SAR": 0.03209906654408,
      "SamplesPerPixel": 1,
      "ScanOptions": "FS",
      "ScanningSequence": "EP",
      "SequenceName": "epfid2d1_104",
      "SequenceVariant": [
        "SK",
        "SS"
],
      "SeriesDescription": "func_task-mariostars_run-04",
      "SeriesNumber": 19,
      "SeriesTime": "161114.995000",
      "SliceLocation": -37.049982512554,
      "SliceThickness": 2.0,
      "SmallestImagePixelValue": 0,
      "SoftwareVersions": "syngo MR E11",
      "SpacingBetweenSlices": 2.000000032319,
      "SpecificCharacterSet": "ISO_IR 100",
      "StudyID": "1",
      "StudyTime": "150652.967000",
      "TransmitCoilName": "Body",
      "VariableFlipAngleFlag": "N",
      "WindowCenterWidthExplanation": "Algo1",
      "dBdt": 0.0},
    "slices": {}
  },
  "time": {
    "samples": {
      "AcquisitionNumber": [1, 2, 3, 4, 5, 6, 7, 8, 9, 10, 11, 12, 13, 14, 15, 16, 17, 18, 19, 20, 21, 22, 23, 24, 25, 26, 27, 28, 29, 30, 31, 32, 33, 34, 35, 36, 37, 38, 39, 40, 41, 42, 43, 44, 45, 46, 47, 48, 49, 50, 51, 52, 53, 54, 55, 56, 57, 58, 59, 60, 61, 62, 63, 64, 65, 66, 67, 68, 69, 70, 71, 72, 73, 74, 75, 76, 77, 78, 79, 80, 81, 82, 83, 84, 85, 86, 87, 88, 89, 90, 91, 92, 93, 94, 95, 96, 97, 98, 99, 100, 101, 102, 103, 104, 105, 106, 107, 108, 109, 110, 111, 112, 113, 114, 115, 116, 117, 118, 119, 120, 121, 122, 123, 124, 125, 126, 127, 128, 129, 130, 131, 132, 133, 134, 135, 136, 137, 138, 139, 140, 141, 142, 143, 144, 145, 146, 147, 148, 149, 150, 151, 152, 153, 154, 155, 156, 157, 158, 159, 160, 161, 162, 163, 164, 165, 166, 167, 168, 169, 170, 171, 172, 173, 174, 175, 176, 177, 178, 179, 180, 181, 182, 183, 184, 185, 186, 187, 188, 189, 190, 191, 192, 193, 194, 195, 196, 197, 198, 199, 200, 201, 202, 203, 204, 205, 206, 207, 208, 209, 210, 211, 212, 213, 214, 215, 216, 217, 218, 219, 220, 221, 222, 223, 224, 225, 226, 227, 228, 229, 230, 231, 232, 233, 234, 235, 236, 237, 238, 239, 240, 241, 242, 243, 244, 245, 246, 247, 248, 249, 250, 251, 252, 253, 254, 255, 256, 257, 258, 259, 260, 261, 262, 263, 264, 265, 266, 267, 268, 269, 270, 271, 272, 273, 274, 275, 276, 277, 278, 279, 280, 281, 282, 283, 284, 285, 286, 287, 288, 289, 290, 291, 292, 293, 294, 295, 296, 297, 298, 299, 300, 301, 302, 303, 304, 305, 306, 307, 308, 309, 310, 311, 312, 313, 314, 315, 316, 317, 318, 319, 320, 321, 322, 323, 324, 325, 326, 327, 328, 329, 330, 331, 332, 333, 334, 335, 336, 337, 338, 339, 340, 341, 342, 343, 344, 345, 346, 347, 348, 349, 350, 351, 352, 353, 354, 355, 356, 357, 358, 359, 360, 361, 362, 363, 364, 365, 366, 367, 368, 369, 370, 371, 372, 373, 374, 375, 376, 377, 378, 379, 380, 381, 382, 383, 384, 385, 386, 387, 388, 389, 390, 391, 392, 393, 394, 395, 396, 397, 398, 399, 400, 401, 402, 403, 404, 405, 406, 407, 408, 409, 410, 411, 412, 413, 414, 415, 416, 417, 418, 419, 420, 421, 422, 423, 424, 425, 426, 427, 428, 429, 430, 431, 432, 433, 434, 435, 436, 437, 438, 439, 440, 441, 442, 443, 444, 445, 446, 447, 448, 449, 450, 451, 452, 453, 454, 455, 456, 457, 458, 459, 460, 461, 462, 463, 464, 465, 466, 467, 468, 469, 470, 471, 472, 473, 474, 475, 476, 477, 478, 479, 480, 481, 482, 483, 484, 485, 486, 487, 488, 489, 490, 491, 492],
      "AcquisitionTime": ["160944.722500", "160946.212500", "160947.702500", "160949.192500", "160950.682500", "160952.172500", "160953.662500", "160955.152500", "160956.642500", "160958.132500", "160959.622500", "161001.112500", "161002.602500", "161004.092500", "161005.582500", "161007.072500", "161008.562500", "161010.052500", "161011.542500", "161013.032500", "161014.522500", "161016.012500", "161017.502500", "161018.992500", "161020.482500", "161021.972500", "161023.462500", "161024.952500", "161026.442500", "161027.932500", "161029.422500", "161030.912500", "161032.402500", "161033.892500", "161035.382500", "161036.872500", "161038.362500", "161039.852500", "161041.342500", "161042.832500", "161044.322500", "161045.812500", "161047.302500", "161048.792500", "161050.282500", "161051.772500", "161053.262500", "161054.752500", "161056.242500", "161057.732500", "161059.222500", "161100.712500", "161102.202500", "161103.692500", "161105.182500", "161106.672500", "161108.162500", "161109.652500", "161111.142500", "161112.632500", "161114.122500", "161115.612500", "161117.102500", "161118.592500", "161120.082500", "161121.572500", "161123.062500", "161124.552500", "161126.042500", "161127.532500", "161129.022500", "161130.512500", "161132.002500", "161133.492500", "161134.982500", "161136.472500", "161137.962500", "161139.452500", "161140.942500", "161142.432500", "161143.922500", "161145.412500", "161146.902500", "161148.392500", "161149.882500", "161151.372500", "161152.862500", "161154.352500", "161155.842500", "161157.332500", "161158.822500", "161200.312500", "161201.802500", "161203.292500", "161204.782500", "161206.272500", "161207.762500", "161209.252500", "161210.742500", "161212.232500", "161213.722500", "161215.212500", "161216.702500", "161218.192500", "161219.682500", "161221.172500", "161222.662500", "161224.152500", "161225.642500", "161227.132500", "161228.622500", "161230.112500", "161231.602500", "161233.092500", "161234.582500", "161236.072500", "161237.562500", "161239.052500", "161240.542500", "161242.032500", "161243.522500", "161245.012500", "161246.502500", "161247.992500", "161249.482500", "161250.972500", "161252.462500", "161253.952500", "161255.442500", "161256.932500", "161258.422500", "161259.912500", "161301.402500", "161302.892500", "161304.382500", "161305.872500", "161307.362500", "161308.852500", "161310.342500", "161311.832500", "161313.322500", "161314.812500", "161316.302500", "161317.792500", "161319.282500", "161320.772500", "161322.262500", "161323.752500", "161325.242500", "161326.732500", "161328.222500", "161329.712500", "161331.202500", "161332.692500", "161334.182500", "161335.672500", "161337.162500", "161338.652500", "161340.142500", "161341.632500", "161343.122500", "161344.612500", "161346.102500", "161347.592500", "161349.082500", "161350.572500", "161352.062500", "161353.552500", "161355.042500", "161356.532500", "161358.022500", "161359.512500", "161401.002500", "161402.492500", "161403.982500", "161405.472500", "161406.962500", "161408.452500", "161409.942500", "161411.432500", "161412.922500", "161414.412500", "161415.902500", "161417.392500", "161418.882500", "161420.372500", "161421.862500", "161423.352500", "161424.842500", "161426.332500", "161427.822500", "161429.312500", "161430.802500", "161432.292500", "161433.782500", "161435.272500", "161436.762500", "161438.252500", "161439.742500", "161441.232500", "161442.722500", "161444.212500", "161445.702500", "161447.192500", "161448.682500", "161450.172500", "161451.662500", "161453.152500", "161454.642500", "161456.132500", "161457.622500", "161459.112500", "161500.602500", "161502.092500", "161503.582500", "161505.072500", "161506.562500", "161508.052500", "161509.542500", "161511.032500", "161512.522500", "161514.012500", "161515.502500", "161516.992500", "161518.482500", "161519.972500", "161521.462500", "161522.952500", "161524.442500", "161525.932500", "161527.422500", "161528.912500", "161530.402500", "161531.892500", "161533.382500", "161534.872500", "161536.362500", "161537.852500", "161539.342500", "161540.832500", "161542.322500", "161543.812500", "161545.302500", "161546.792500", "161548.282500", "161549.772500", "161551.262500", "161552.752500", "161554.242500", "161555.732500", "161557.222500", "161558.712500", "161600.202500", "161601.692500", "161603.182500", "161604.672500", "161606.162500", "161607.652500", "161609.142500", "161610.632500", "161612.122500", "161613.612500", "161615.102500", "161616.592500", "161618.082500", "161619.572500", "161621.062500", "161622.552500", "161624.042500", "161625.532500", "161627.022500", "161628.512500", "161630.002500", "161631.492500", "161632.982500", "161634.472500", "161635.962500", "161637.452500", "161638.942500", "161640.432500", "161641.922500", "161643.412500", "161644.902500", "161646.392500", "161647.882500", "161649.372500", "161650.862500", "161652.352500", "161653.842500", "161655.332500", "161656.822500", "161658.312500", "161659.802500", "161701.292500", "161702.782500", "161704.272500", "161705.762500", "161707.252500", "161708.742500", "161710.232500", "161711.722500", "161713.212500", "161714.702500", "161716.192500", "161717.682500", "161719.172500", "161720.662500", "161722.152500", "161723.642500", "161725.132500", "161726.622500", "161728.112500", "161729.602500", "161731.092500", "161732.582500", "161734.072500", "161735.562500", "161737.052500", "161738.542500", "161740.032500", "161741.522500", "161743.012500", "161744.502500", "161745.992500", "161747.482500", "161748.972500", "161750.462500", "161751.952500", "161753.442500", "161754.932500", "161756.422500", "161757.912500", "161759.402500", "161800.892500", "161802.382500", "161803.872500", "161805.362500", "161806.852500", "161808.342500", "161809.832500", "161811.322500", "161812.812500", "161814.302500", "161815.792500", "161817.282500", "161818.772500", "161820.262500", "161821.752500", "161823.242500", "161824.732500", "161826.222500", "161827.712500", "161829.202500", "161830.692500", "161832.182500", "161833.672500", "161835.162500", "161836.652500", "161838.142500", "161839.632500", "161841.122500", "161842.612500", "161844.102500", "161845.592500", "161847.082500", "161848.572500", "161850.062500", "161851.552500", "161853.042500", "161854.532500", "161856.022500", "161857.512500", "161859.002500", "161900.492500", "161901.982500", "161903.472500", "161904.962500", "161906.452500", "161907.942500", "161909.432500", "161910.922500", "161912.412500", "161913.902500", "161915.392500", "161916.882500", "161918.372500", "161919.862500", "161921.352500", "161922.842500", "161924.332500", "161925.822500", "161927.312500", "161928.802500", "161930.292500", "161931.782500", "161933.272500", "161934.762500", "161936.252500", "161937.742500", "161939.232500", "161940.722500", "161942.212500", "161943.702500", "161945.192500", "161946.682500", "161948.172500", "161949.662500", "161951.152500", "161952.642500", "161954.132500", "161955.622500", "161957.112500", "161958.602500", "162000.092500", "162001.582500", "162003.072500", "162004.562500", "162006.052500", "162007.542500", "162009.032500", "162010.522500", "162012.012500", "162013.502500", "162014.992500", "162016.482500", "162017.972500", "162019.462500", "162020.952500", "162022.442500", "162023.932500", "162025.422500", "162026.912500", "162028.402500", "162029.892500", "162031.382500", "162032.872500", "162034.362500", "162035.852500", "162037.342500", "162038.832500", "162040.322500", "162041.812500", "162043.302500", "162044.792500", "162046.282500", "162047.772500", "162049.262500", "162050.752500", "162052.242500", "162053.732500", "162055.222500", "162056.712500", "162058.202500", "162059.692500", "162101.182500", "162102.672500", "162104.162500", "162105.652500", "162107.142500", "162108.632500", "162110.122500", "162111.612500", "162113.102500", "162114.592500", "162116.082500", "162117.572500", "162119.062500", "162120.552500", "162122.042500", "162123.532500", "162125.022500", "162126.512500", "162128.002500", "162129.492500", "162130.982500", "162132.472500", "162133.962500", "162135.452500", "162136.942500", "162138.432500", "162139.922500", "162141.412500", "162142.902500", "162144.392500", "162145.882500", "162147.372500", "162148.862500", "162150.352500", "162151.842500", "162153.332500", "162154.822500", "162156.312500"],
      "ContentTime": ["161114.998000", "161115.003000", "161115.006000", "161115.010000", "161115.023000", "161115.026000", "161115.030000", "161115.033000", "161115.036000", "161115.040000", "161115.044000", "161115.047000", "161115.051000", "161115.054000", "161115.057000", "161115.061000", "161115.064000", "161115.067000", "161115.070000", "161115.074000", "161115.077000", "161115.081000", "161115.084000", "161115.088000", "161115.091000", "161115.094000", "161115.098000", "161115.101000", "161115.104000", "161115.108000", "161115.111000", "161115.121000", "161115.124000", "161134.960000", "161134.964000", "161134.967000", "161134.970000", "161134.974000", "161134.977000", "161134.980000", "161134.984000", "161134.987000", "161134.991000", "161134.994000", "161134.997000", "161135.002000", "161135.005000", "161135.016000", "161135.019000", "161135.023000", "161135.026000", "161135.029000", "161135.033000", "161154.960000", "161154.964000", "161154.967000", "161154.971000", "161154.974000", "161154.977000", "161154.981000", "161154.984000", "161154.988000", "161154.991000", "161154.995000", "161154.998000", "161155.002000", "161155.006000", "161155.009000", "161155.013000", "161155.016000", "161155.019000", "161155.022000", "161155.026000", "161214.960000", "161214.964000", "161214.967000", "161214.970000", "161214.974000", "161214.977000", "161214.980000", "161214.984000", "161214.987000", "161214.990000", "161214.994000", "161214.997000", "161215.001000", "161215.005000", "161215.009000", "161215.013000", "161215.016000", "161215.020000", "161215.024000", "161215.028000", "161234.961000", "161234.965000", "161234.968000", "161234.972000", "161234.975000", "161234.978000", "161234.981000", "161234.985000", "161234.988000", "161234.991000", "161234.995000", "161234.998000", "161235.002000", "161235.006000", "161235.009000", "161235.013000", "161235.016000", "161235.019000", "161235.022000", "161235.026000", "161314.960000", "161314.964000", "161314.967000", "161314.971000", "161314.974000", "161314.977000", "161314.981000", "161314.984000", "161314.987000", "161314.990000", "161314.994000", "161314.997000", "161315.001000", "161315.005000", "161315.008000", "161315.011000", "161315.014000", "161315.018000", "161315.021000", "161315.024000", "161315.028000", "161315.031000", "161315.034000", "161315.038000", "161315.041000", "161315.044000", "161315.047000", "161354.960000", "161354.964000", "161354.967000", "161354.971000", "161354.974000", "161354.977000", "161354.981000", "161354.984000", "161354.987000", "161354.991000", "161354.994000", "161354.997000", "161355.001000", "161355.005000", "161355.008000", "161355.011000", "161355.015000", "161355.018000", "161355.021000", "161355.025000", "161355.028000", "161355.031000", "161355.035000", "161355.038000", "161355.041000", "161355.045000", "161355.048000", "161434.960000", "161434.964000", "161434.967000", "161434.975000", "161434.978000", "161434.981000", "161434.985000", "161434.988000", "161434.991000", "161434.995000", "161434.998000", "161435.002000", "161435.006000", "161435.009000", "161435.012000", "161435.016000", "161435.019000", "161435.022000", "161435.025000", "161435.029000", "161435.032000", "161435.035000", "161435.038000", "161435.042000", "161435.045000", "161435.048000", "161435.052000", "161514.961000", "161514.965000", "161514.968000", "161514.972000", "161514.975000", "161514.978000", "161514.982000", "161514.985000", "161514.988000", "161514.992000", "161514.996000", "161515.000000", "161515.004000", "161515.007000", "161515.011000", "161515.014000", "161515.017000", "161515.021000", "161515.024000", "161515.027000", "161515.030000", "161515.034000", "161515.037000", "161515.040000", "161515.044000", "161515.047000", "161554.960000", "161554.964000", "161554.967000", "161554.970000", "161554.974000", "161554.978000", "161555.001000", "161555.004000", "161555.008000", "161555.011000", "161555.014000", "161555.018000", "161555.021000", "161555.024000", "161555.028000", "161555.031000", "161555.034000", "161555.037000", "161555.041000", "161555.044000", "161555.047000", "161555.051000", "161555.054000", "161555.057000", "161555.061000", "161555.064000", "161555.067000", "161634.960000", "161634.964000", "161634.967000", "161634.971000", "161634.974000", "161634.978000", "161634.981000", "161634.985000", "161634.988000", "161634.991000", "161634.994000", "161634.998000", "161635.002000", "161635.005000", "161635.009000", "161635.012000", "161635.015000", "161635.019000", "161635.022000", "161635.025000", "161635.029000", "161635.032000", "161635.035000", "161635.038000", "161635.042000", "161635.045000", "161635.048000", "161714.961000", "161714.965000", "161714.968000", "161714.972000", "161714.975000", "161714.979000", "161714.982000", "161714.986000", "161714.989000", "161714.992000", "161714.996000", "161715.000000", "161715.003000", "161715.007000", "161715.010000", "161715.013000", "161715.017000", "161715.020000", "161715.023000", "161715.027000", "161715.030000", "161715.033000", "161715.037000", "161715.040000", "161715.043000", "161715.047000", "161715.050000", "161754.960000", "161754.964000", "161754.967000", "161754.971000", "161754.974000", "161754.977000", "161754.981000", "161754.984000", "161754.987000", "161754.991000", "161754.994000", "161754.997000", "161755.002000", "161755.005000", "161755.008000", "161755.012000", "161755.015000", "161755.018000", "161755.022000", "161755.025000", "161755.028000", "161755.046000", "161755.049000", "161755.052000", "161755.056000", "161755.059000", "161755.062000", "161814.960000", "161814.964000", "161814.967000", "161814.971000", "161814.974000", "161814.977000", "161814.981000", "161814.984000", "161814.988000", "161814.992000", "161814.995000", "161814.998000", "161815.002000", "161854.960000", "161854.964000", "161854.967000", "161854.971000", "161854.974000", "161854.977000", "161854.981000", "161854.984000", "161854.987000", "161854.991000", "161854.994000", "161854.998000", "161855.002000", "161855.006000", "161855.009000", "161855.013000", "161855.016000", "161855.020000", "161855.023000", "161855.026000", "161855.030000", "161855.033000", "161855.036000", "161855.040000", "161855.043000", "161855.046000", "161855.050000", "161934.961000", "161934.965000", "161934.968000", "161934.972000", "161934.975000", "161934.978000", "161934.982000", "161934.985000", "161934.988000", "161934.992000", "161934.995000", "161934.998000", "161935.002000", "161935.006000", "161935.009000", "161935.012000", "161935.016000", "161935.019000", "161935.022000", "161935.026000", "161935.029000", "161935.032000", "161935.036000", "161935.039000", "161935.042000", "161935.045000", "161935.049000", "162014.960000", "162014.964000", "162014.967000", "162014.971000", "162014.974000", "162014.977000", "162014.981000", "162014.984000", "162014.987000", "162014.991000", "162014.994000", "162014.997000", "162015.002000", "162015.005000", "162015.008000", "162015.012000", "162015.015000", "162015.018000", "162015.022000", "162015.025000", "162015.028000", "162015.032000", "162015.035000", "162015.038000", "162015.042000", "162015.045000", "162015.048000", "162054.960000", "162054.964000", "162054.967000", "162054.975000", "162054.979000", "162054.982000", "162054.986000", "162054.989000", "162054.992000", "162054.995000", "162055.000000", "162055.003000", "162055.006000", "162055.010000", "162055.013000", "162055.016000", "162055.020000", "162055.023000", "162055.026000", "162055.029000", "162055.033000", "162055.036000", "162055.040000", "162055.043000", "162055.046000", "162055.050000", "162055.053000", "162134.960000", "162134.964000", "162134.967000", "162134.971000", "162134.974000", "162134.977000", "162134.981000", "162134.984000", "162134.987000", "162134.991000", "162134.994000", "162134.998000", "162135.003000", "162135.008000", "162135.012000", "162135.018000", "162135.021000", "162135.025000", "162135.029000", "162135.033000", "162135.036000", "162135.039000", "162135.043000", "162135.046000", "162135.050000", "162135.053000", "162159.769000", "162159.772000", "162159.776000", "162159.779000", "162159.782000", "162159.786000", "162159.789000", "162159.792000", "162159.796000", "162159.799000", "162159.802000", "162159.806000", "162159.809000", "162159.812000", "162159.816000", "162159.819000", "162159.823000"],
