{
  "AcquisitionMatrixPE": 104,
  "AcquisitionNumber": 1,
  "AcquisitionTime": "14:08:14.105000",
  "BandwidthPerPixelPhaseEncode": 17.17,
  "BaseResolution": 104,
  "BodyPartExamined": "BRAIN",
  "CoilCombinationMethod": "Sum of Squares",
  "ConsistencyInfo": "N4_VE11C_LATEST_20160120",
  "ConversionSoftware": "dcm2niix",
  "ConversionSoftwareVersion": "v1.0.20211006",
  "DerivedVendorReportedEchoSpacing": 0.000560011,
  "DeviceSerialNumber": "167006",
  "DwellTime": 2.1e-06,
  "EchoTime": 0.037,
  "EchoTime1": 0.037,
  "EchoTime2": 0.001,
  "EchoTrainLength": 104,
  "EffectiveEchoSpacing": 0.000560011,
  "FlipAngle": 52,
  "HeudiconvVersion": "0.11.3.post9+gc939bf8",
  "ImageComments": "Unaliased MB4/PE3/LB",
  "ImageOrientationPatientDICOM": [0.99983, 0.00444296, 0.0179118, 0.000872477, 0.958122, -0.28636],
  "ImageOrientationText": "Tra>Cor(-16.6)>Sag(1.1)",
  "ImageType": [
    "ORIGINAL",
    "PRIMARY",
    "P",
    "MB",
    "ND",
    "MOSAIC",
    "PHASE"
],
  "ImagingFrequency": 123.259,
  "InPlanePhaseEncodingDirectionDICOM": "COL",
  "InstitutionAddress": "Chemin Queen-Mary 4565,Montreal,District,CA,H3W 1W5",
  "InstitutionName": "IUGM",
  "InstitutionalDepartmentName": "Department",
  "MRAcquisitionType": "2D",
  "MagneticFieldStrength": 3,
  "Manufacturer": "Siemens",
  "ManufacturersModelName": "Prisma_fit",
  "MatrixCoilMode": "SENSE",
  "Modality": "MR",
  "MultibandAccelerationFactor": 4,
  "PartialFourier": 1,
  "PatientPosition": "HFS",
  "PercentPhaseFOV": 100,
  "PercentSampling": 100,
  "PhaseEncodingDirection": "j",
  "PhaseEncodingSteps": 104,
  "PhaseResolution": 1,
  "PixelBandwidth": 2290,
  "ProcedureStepDescription": "games^mariostars",
  "ProtocolName": "func_task-mariostars_run-02",
  "PulseSequenceDetails": "%CustomerSeq%\\cmrr_mbep2d_bold",
  "ReceiveCoilActiveElements": "HC1-7;NC1,2",
  "ReceiveCoilName": "HeadNeck_64",
  "ReconMatrixPE": 104,
  "RepetitionTime": 1.49,
  "SAR": 0.0573593,
  "ScanOptions": "FS",
  "ScanningSequence": "EP",
  "SequenceName": "epfid2d1_104",
  "SequenceVariant": "SK\\SS",
  "SeriesDescription": "func_task-mariostars_run-02",
  "SeriesNumber": 15,
  "ShimSetting": [641, -7223, -8793, 704, 76, -52, 51, -26],
  "SliceThickness": 2,
  "SliceTiming": [0, 0.7825, 0.0975, 0.8825, 0.195, 0.98, 0.2925, 1.0775, 0.3925, 1.175, 0.49, 1.2725, 0.5875, 1.3725, 0.685, 0, 0.7825, 0.0975, 0.8825, 0.195, 0.98, 0.2925, 1.0775, 0.3925, 1.175, 0.49, 1.2725, 0.5875, 1.3725, 0.685, 0, 0.7825, 0.0975, 0.8825, 0.195, 0.98, 0.2925, 1.0775, 0.3925, 1.175, 0.49, 1.2725, 0.5875, 1.3725, 0.685, 0, 0.7825, 0.0975, 0.8825, 0.195, 0.98, 0.2925, 1.0775, 0.3925, 1.175, 0.49, 1.2725, 0.5875, 1.3725, 0.685],
  "SoftwareVersions": "syngo MR E11",
  "SpacingBetweenSlices": 2,
  "StationName": "MRC35049",
  "TaskName": "mariostars",
  "TotalReadoutTime": 0.0576811,
  "TxRefAmp": 225.506,
  "WipMemBlock": "3b005e6b-23e1-4035-b3d5-57fe8470493c||Sequence: R017 ve11c/master r/75a17815+; Jun 28 2022 16:32:11 by eja",
  "dcmmeta_affine": [
    [-1.9996594190597534, 0.0017449544975534081, 0.0368678905069828, 107.90320587158203],
    [-0.008885912597179413, 1.9162431955337524, -0.5726543068885803, -71.2282485961914],
    [0.03582355007529259, 0.5727205872535706, 1.9159091711044312, -65.40929412841797],
    [0.0, 0.0, 0.0, 1.0]
],
  "dcmmeta_reorient_transform": [
    [0.0, -1.0, 0.0, 103.0],
    [1.0, 0.0, 0.0, 0.0],
    [0.0, 0.0, 1.0, 0.0],
    [0.0, 0.0, 0.0, 1.0]
],
  "dcmmeta_shape": [104, 104, 60, 455],
  "dcmmeta_slice_dim": 2,
  "dcmmeta_version": 0.6,
  "global": {
    "const": {
      "AcquisitionMatrix": [104, 0, 0, 104],
      "AngioFlag": "N",
      "BitsAllocated": 16,
      "BitsStored": 16,
      "BodyPartExamined": "BRAIN",
      "Columns": 832,
      "EchoNumbers": 1,
      "EchoTime": 37.0,
      "EchoTrainLength": 104,
      "FlipAngle": 52.0,
      "HighBit": 15,
      "ImageOrientationPatient": [0.99982969973506, 0.0044429561182, 0.01791177458068, 0.00087247726288, 0.95812161194689, -0.2863602896767],
      "ImagePositionPatient": [-836.59411898476, -826.8918122897, 189.01144559625],
      "ImageType": [
        "ORIGINAL",
        "PRIMARY",
        "P",
        "MB",
        "ND",
        "MOSAIC"
],
      "ImagedNucleus": "1H",
      "ImagingFrequency": 123.258821,
      "InPlanePhaseEncodingDirection": "COL",
      "LargestImagePixelValue": 4095,
      "MRAcquisitionType": "2D",
      "MagneticFieldStrength": 3.0,
      "Manufacturer": "SIEMENS",
      "ManufacturerModelName": "Prisma_fit",
      "Modality": "MR",
      "NumberOfAverages": 1.0,
      "NumberOfPhaseEncodingSteps": 104,
      "PercentPhaseFieldOfView": 100.0,
      "PercentSampling": 100.0,
      "PerformedProcedureStepStartTime": "135020.239000",
      "PhotometricInterpretation": "MONOCHROME2",
      "PixelBandwidth": 2290.0,
      "PixelRepresentation": 0,
      "PixelSpacing": [2.0, 2.0],
      "ProtocolName": "func_task-mariostars_run-02",
      "RepetitionTime": 1490.0,
      "RescaleIntercept": -4096.0,
      "RescaleSlope": 2.0,
      "RescaleType": "US",
      "Rows": 832,
      "SAR": 0.05735933665013,
      "SamplesPerPixel": 1,
      "ScanOptions": "FS",
      "ScanningSequence": "EP",
      "SequenceName": "epfid2d1_104",
      "SequenceVariant": [
        "SK",
        "SS"
],
      "SeriesDescription": "func_task-mariostars_run-02",
      "SeriesNumber": 15,
      "SeriesTime": "140926.247000",
      "SliceLocation": -40.275468869902,
      "SliceThickness": 2.0,
      "SmallestImagePixelValue": 0,
      "SoftwareVersions": "syngo MR E11",
      "SpacingBetweenSlices": 2.0000000007859,
      "SpecificCharacterSet": "ISO_IR 100",
      "StudyID": "1",
      "StudyTime": "135020.181000",
      "TransmitCoilName": "Body",
      "VariableFlipAngleFlag": "N",
      "WindowCenterWidthExplanation": "Algo1",
      "dBdt": 0.0},
    "slices": {}
  },
  "time": {
    "samples": {
      "AcquisitionNumber": [1, 2, 3, 4, 5, 6, 7, 8, 9, 10, 11, 12, 13, 14, 15, 16, 17, 18, 19, 20, 21, 22, 23, 24, 25, 26, 27, 28, 29, 30, 31, 32, 33, 34, 35, 36, 37, 38, 39, 40, 41, 42, 43, 44, 45, 46, 47, 48, 49, 50, 51, 52, 53, 54, 55, 56, 57, 58, 59, 60, 61, 62, 63, 64, 65, 66, 67, 68, 69, 70, 71, 72, 73, 74, 75, 76, 77, 78, 79, 80, 81, 82, 83, 84, 85, 86, 87, 88, 89, 90, 91, 92, 93, 94, 95, 96, 97, 98, 99, 100, 101, 102, 103, 104, 105, 106, 107, 108, 109, 110, 111, 112, 113, 114, 115, 116, 117, 118, 119, 120, 121, 122, 123, 124, 125, 126, 127, 128, 129, 130, 131, 132, 133, 134, 135, 136, 137, 138, 139, 140, 141, 142, 143, 144, 145, 146, 147, 148, 149, 150, 151, 152, 153, 154, 155, 156, 157, 158, 159, 160, 161, 162, 163, 164, 165, 166, 167, 168, 169, 170, 171, 172, 173, 174, 175, 176, 177, 178, 179, 180, 181, 182, 183, 184, 185, 186, 187, 188, 189, 190, 191, 192, 193, 194, 195, 196, 197, 198, 199, 200, 201, 202, 203, 204, 205, 206, 207, 208, 209, 210, 211, 212, 213, 214, 215, 216, 217, 218, 219, 220, 221, 222, 223, 224, 225, 226, 227, 228, 229, 230, 231, 232, 233, 234, 235, 236, 237, 238, 239, 240, 241, 242, 243, 244, 245, 246, 247, 248, 249, 250, 251, 252, 253, 254, 255, 256, 257, 258, 259, 260, 261, 262, 263, 264, 265, 266, 267, 268, 269, 270, 271, 272, 273, 274, 275, 276, 277, 278, 279, 280, 281, 282, 283, 284, 285, 286, 287, 288, 289, 290, 291, 292, 293, 294, 295, 296, 297, 298, 299, 300, 301, 302, 303, 304, 305, 306, 307, 308, 309, 310, 311, 312, 313, 314, 315, 316, 317, 318, 319, 320, 321, 322, 323, 324, 325, 326, 327, 328, 329, 330, 331, 332, 333, 334, 335, 336, 337, 338, 339, 340, 341, 342, 343, 344, 345, 346, 347, 348, 349, 350, 351, 352, 353, 354, 355, 356, 357, 358, 359, 360, 361, 362, 363, 364, 365, 366, 367, 368, 369, 370, 371, 372, 373, 374, 375, 376, 377, 378, 379, 380, 381, 382, 383, 384, 385, 386, 387, 388, 389, 390, 391, 392, 393, 394, 395, 396, 397, 398, 399, 400, 401, 402, 403, 404, 405, 406, 407, 408, 409, 410, 411, 412, 413, 414, 415, 416, 417, 418, 419, 420, 421, 422, 423, 424, 425, 426, 427, 428, 429, 430, 431, 432, 433, 434, 435, 436, 437, 438, 439, 440, 441, 442, 443, 444, 445, 446, 447, 448, 449, 450, 451, 452, 453, 454, 455],
      "AcquisitionTime": ["140814.105000", "140815.595000", "140817.085000", "140818.575000", "140820.065000", "140821.555000", "140823.045000", "140824.535000", "140826.025000", "140827.515000", "140829.005000", "140830.495000", "140831.985000", "140833.475000", "140834.965000", "140836.455000", "140837.945000", "140839.435000", "140840.925000", "140842.415000", "140843.905000", "140845.395000", "140846.885000", "140848.375000", "140849.865000", "140851.355000", "140852.845000", "140854.335000", "140855.825000", "140857.315000", "140858.805000", "140900.295000", "140901.785000", "140903.275000", "140904.765000", "140906.255000", "140907.745000", "140909.235000", "140910.725000", "140912.215000", "140913.705000", "140915.195000", "140916.685000", "140918.175000", "140919.665000", "140921.155000", "140922.645000", "140924.135000", "140925.625000", "140927.115000", "140928.605000", "140930.095000", "140931.585000", "140933.075000", "140934.565000", "140936.055000", "140937.545000", "140939.035000", "140940.525000", "140942.015000", "140943.505000", "140944.995000", "140946.485000", "140947.975000", "140949.465000", "140950.955000", "140952.445000", "140953.935000", "140955.425000", "140956.915000", "140958.405000", "140959.895000", "141001.385000", "141002.875000", "141004.365000", "141005.855000", "141007.345000", "141008.835000", "141010.325000", "141011.815000", "141013.305000", "141014.795000", "141016.285000", "141017.775000", "141019.265000", "141020.755000", "141022.245000", "141023.735000", "141025.225000", "141026.715000", "141028.205000", "141029.695000", "141031.185000", "141032.675000", "141034.165000", "141035.655000", "141037.145000", "141038.635000", "141040.125000", "141041.615000", "141043.105000", "141044.595000", "141046.085000", "141047.575000", "141049.065000", "141050.555000", "141052.045000", "141053.535000", "141055.025000", "141056.515000", "141058.005000", "141059.495000", "141100.985000", "141102.475000", "141103.965000", "141105.455000", "141106.945000", "141108.435000", "141109.925000", "141111.415000", "141112.905000", "141114.395000", "141115.885000", "141117.375000", "141118.865000", "141120.355000", "141121.845000", "141123.335000", "141124.825000", "141126.315000", "141127.805000", "141129.295000", "141130.785000", "141132.275000", "141133.765000", "141135.255000", "141136.745000", "141138.235000", "141139.725000", "141141.215000", "141142.705000", "141144.195000", "141145.685000", "141147.175000", "141148.665000", "141150.155000", "141151.645000", "141153.135000", "141154.625000", "141156.115000", "141157.605000", "141159.095000", "141200.585000", "141202.075000", "141203.565000", "141205.055000", "141206.545000", "141208.035000", "141209.525000", "141211.015000", "141212.505000", "141213.995000", "141215.485000", "141216.975000", "141218.465000", "141219.955000", "141221.445000", "141222.935000", "141224.425000", "141225.915000", "141227.405000", "141228.895000", "141230.385000", "141231.875000", "141233.365000", "141234.855000", "141236.345000", "141237.835000", "141239.325000", "141240.815000", "141242.305000", "141243.795000", "141245.285000", "141246.775000", "141248.265000", "141249.755000", "141251.245000", "141252.735000", "141254.225000", "141255.715000", "141257.205000", "141258.695000", "141300.185000", "141301.675000", "141303.165000", "141304.655000", "141306.145000", "141307.635000", "141309.125000", "141310.615000", "141312.105000", "141313.595000", "141315.085000", "141316.575000", "141318.065000", "141319.555000", "141321.045000", "141322.535000", "141324.025000", "141325.515000", "141327.005000", "141328.495000", "141329.985000", "141331.475000", "141332.965000", "141334.455000", "141335.945000", "141337.435000", "141338.925000", "141340.415000", "141341.905000", "141343.395000", "141344.885000", "141346.375000", "141347.865000", "141349.355000", "141350.845000", "141352.335000", "141353.825000", "141355.315000", "141356.805000", "141358.295000", "141359.785000", "141401.275000", "141402.765000", "141404.255000", "141405.745000", "141407.235000", "141408.725000", "141410.215000", "141411.705000", "141413.195000", "141414.685000", "141416.175000", "141417.665000", "141419.155000", "141420.645000", "141422.135000", "141423.625000", "141425.115000", "141426.605000", "141428.095000", "141429.585000", "141431.075000", "141432.565000", "141434.055000", "141435.545000", "141437.035000", "141438.525000", "141440.015000", "141441.505000", "141442.995000", "141444.485000", "141445.975000", "141447.465000", "141448.955000", "141450.445000", "141451.935000", "141453.425000", "141454.915000", "141456.405000", "141457.895000", "141459.385000", "141500.875000", "141502.365000", "141503.855000", "141505.345000", "141506.835000", "141508.325000", "141509.815000", "141511.305000", "141512.795000", "141514.285000", "141515.775000", "141517.265000", "141518.755000", "141520.245000", "141521.735000", "141523.225000", "141524.715000", "141526.205000", "141527.695000", "141529.185000", "141530.675000", "141532.165000", "141533.655000", "141535.145000", "141536.635000", "141538.125000", "141539.615000", "141541.105000", "141542.595000", "141544.085000", "141545.575000", "141547.065000", "141548.555000", "141550.045000", "141551.535000", "141553.025000", "141554.515000", "141556.005000", "141557.495000", "141558.985000", "141600.475000", "141601.965000", "141603.455000", "141604.945000", "141606.435000", "141607.925000", "141609.415000", "141610.905000", "141612.395000", "141613.885000", "141615.375000", "141616.865000", "141618.355000", "141619.845000", "141621.335000", "141622.825000", "141624.315000", "141625.805000", "141627.295000", "141628.785000", "141630.275000", "141631.765000", "141633.255000", "141634.745000", "141636.235000", "141637.725000", "141639.215000", "141640.705000", "141642.195000", "141643.685000", "141645.175000", "141646.665000", "141648.155000", "141649.645000", "141651.135000", "141652.625000", "141654.115000", "141655.605000", "141657.095000", "141658.585000", "141700.075000", "141701.565000", "141703.055000", "141704.545000", "141706.035000", "141707.525000", "141709.015000", "141710.505000", "141711.995000", "141713.485000", "141714.975000", "141716.465000", "141717.955000", "141719.445000", "141720.935000", "141722.425000", "141723.915000", "141725.405000", "141726.895000", "141728.385000", "141729.875000", "141731.365000", "141732.855000", "141734.345000", "141735.835000", "141737.325000", "141738.815000", "141740.305000", "141741.795000", "141743.285000", "141744.775000", "141746.265000", "141747.755000", "141749.245000", "141750.735000", "141752.225000", "141753.715000", "141755.205000", "141756.695000", "141758.185000", "141759.675000", "141801.165000", "141802.655000", "141804.145000", "141805.635000", "141807.125000", "141808.615000", "141810.105000", "141811.595000", "141813.085000", "141814.575000", "141816.065000", "141817.555000", "141819.045000", "141820.535000", "141822.025000", "141823.515000", "141825.005000", "141826.495000", "141827.985000", "141829.475000", "141830.965000", "141832.455000", "141833.945000", "141835.435000", "141836.925000", "141838.415000", "141839.905000", "141841.395000", "141842.885000", "141844.375000", "141845.865000", "141847.355000", "141848.845000", "141850.335000", "141851.825000", "141853.315000", "141854.805000", "141856.295000", "141857.785000", "141859.275000", "141900.765000", "141902.255000", "141903.745000", "141905.235000", "141906.725000", "141908.215000", "141909.705000", "141911.195000", "141912.685000", "141914.175000", "141915.665000", "141917.155000", "141918.645000", "141920.135000", "141921.625000", "141923.115000", "141924.605000", "141926.095000", "141927.585000", "141929.075000", "141930.565000"],
      "ContentTime": ["140926.249000", "140926.252000", "140926.254000", "140926.260000", "140926.263000", "140926.266000", "140926.268000", "140926.271000", "140926.273000", "140926.276000", "140926.279000", "140926.281000", "140926.284000", "140926.290000", "140926.293000", "140926.295000", "140926.298000", "140926.300000", "140926.303000", "140926.306000", "140926.308000", "140926.311000", "140926.313000", "140926.316000", "140946.213000", "140946.216000", "140946.218000", "140946.221000", "140946.223000", "140946.226000", "140946.229000", "140946.232000", "140946.234000", "140946.237000", "140946.240000", "140946.243000", "140946.245000", "140946.248000", "140946.250000", "140946.253000", "140946.256000", "140946.258000", "140946.261000", "140946.264000", "141006.208000", "141006.211000", "141006.213000", "141006.216000", "141006.218000", "141006.221000", "141006.224000", "141006.226000", "141006.229000", "141006.231000", "141006.234000", "141006.237000", "141006.239000", "141006.242000", "141006.245000", "141006.247000", "141006.250000", "141006.252000", "141006.264000", "141006.266000", "141006.269000", "141026.185000", "141026.188000", "141026.191000", "141026.194000", "141026.196000", "141026.199000", "141026.201000", "141026.212000", "141026.215000", "141026.218000", "141026.220000", "141026.223000", "141026.225000", "141026.228000", "141026.231000", "141026.233000", "141026.236000", "141026.238000", "141026.241000", "141026.244000", "141106.226000", "141106.229000", "141106.232000", "141106.234000", "141106.237000", "141106.240000", "141106.242000", "141106.245000", "141106.248000", "141106.250000", "141106.253000", "141106.255000", "141106.258000", "141106.261000", "141106.263000", "141106.266000", "141106.269000", "141106.271000", "141106.274000", "141106.277000", "141106.279000", "141106.282000", "141106.284000", "141106.287000", "141106.297000", "141106.300000", "141106.303000", "141106.305000", "141106.308000", "141106.311000", "141146.228000", "141146.231000", "141146.234000", "141146.236000", "141146.239000", "141146.242000", "141146.244000", "141146.247000", "141146.249000", "141146.252000", "141146.255000", "141146.257000", "141146.260000", "141146.262000", "141146.265000", "141146.268000", "141146.270000", "141146.273000", "141146.276000", "141146.278000", "141146.281000", "141146.284000", "141146.286000", "141146.289000", "141146.291000", "141146.294000", "141146.297000", "141226.217000", "141226.220000", "141226.223000", "141226.226000", "141226.228000", "141226.231000", "141226.233000", "141226.236000", "141226.239000", "141226.241000", "141226.244000", "141226.247000", "141226.249000", "141226.252000", "141226.264000", "141226.266000", "141226.269000", "141226.272000", "141226.274000", "141226.277000", "141226.280000", "141226.282000", "141226.285000", "141226.288000", "141226.290000", "141226.293000", "141226.295000", "141306.219000", "141306.222000", "141306.224000", "141306.227000", "141306.229000", "141306.232000", "141306.235000", "141306.237000", "141306.240000", "141306.243000", "141306.245000", "141306.248000", "141306.251000", "141306.253000", "141306.256000", "141306.259000", "141306.262000", "141306.265000", "141306.268000", "141306.279000", "141306.282000", "141306.285000", "141306.288000", "141306.290000", "141306.296000", "141306.299000", "141346.285000", "141346.288000", "141346.290000", "141346.296000", "141346.298000", "141346.301000", "141346.303000", "141346.306000", "141346.309000", "141346.311000", "141346.314000", "141346.316000", "141346.319000", "141346.322000", "141346.324000", "141346.327000", "141346.330000", "141346.332000", "141346.335000", "141346.338000", "141346.340000", "141346.343000", "141346.345000", "141346.348000", "141346.351000", "141346.353000", "141346.356000", "141426.207000", "141426.210000", "141426.227000", "141426.230000", "141426.233000", "141426.236000", "141426.238000", "141426.241000", "141426.244000", "141426.246000", "141426.249000", "141426.251000", "141426.254000", "141426.256000", "141426.259000", "141426.262000", "141426.264000", "141426.267000", "141426.270000", "141426.272000", "141426.275000", "141426.278000", "141426.280000", "141426.283000", "141426.285000", "141426.288000", "141426.291000", "141506.219000", "141506.222000", "141506.225000", "141506.227000", "141506.230000", "141506.233000", "141506.235000", "141506.238000", "141506.241000", "141506.244000", "141506.246000", "141506.249000", "141506.252000", "141506.255000", "141506.257000", "141506.260000", "141506.262000", "141506.265000", "141506.268000", "141506.271000", "141506.273000", "141506.288000", "141506.291000", "141506.293000", "141506.296000", "141506.298000", "141506.301000", "141546.240000", "141546.243000", "141546.246000", "141546.248000", "141546.251000", "141546.254000", "141546.256000", "141546.259000", "141546.261000", "141546.264000", "141546.267000", "141546.269000", "141546.272000", "141546.275000", "141546.277000", "141546.280000", "141546.283000", "141546.286000", "141546.289000", "141546.291000", "141546.294000", "141546.297000", "141546.299000", "141546.302000", "141546.305000", "141546.307000", "141546.310000", "141626.226000", "141626.229000", "141626.232000", "141626.235000", "141626.238000", "141626.240000", "141626.243000", "141626.245000", "141626.248000", "141626.251000", "141626.253000", "141626.256000", "141626.259000", "141626.261000", "141626.264000", "141626.266000", "141626.269000", "141626.272000", "141626.274000", "141626.277000", "141626.280000", "141626.282000", "141626.285000", "141626.288000", "141626.290000", "141626.293000", "141626.295000", "141646.150000", "141646.153000", "141646.155000", "141646.158000", "141646.161000", "141646.163000", "141646.166000", "141646.168000", "141646.171000", "141646.174000", "141646.177000", "141646.180000", "141646.182000", "141726.222000", "141726.225000", "141726.228000", "141726.230000", "141726.233000", "141726.235000", "141726.238000", "141726.241000", "141726.243000", "141726.246000", "141726.249000", "141726.251000", "141726.254000", "141726.257000", "141726.259000", "141726.264000", "141726.267000", "141726.269000", "141726.272000", "141726.274000", "141726.277000", "141726.280000", "141726.282000", "141726.285000", "141726.287000", "141726.290000", "141726.293000", "141806.209000", "141806.212000", "141806.215000", "141806.217000", "141806.220000", "141806.223000", "141806.226000", "141806.228000", "141806.231000", "141806.233000", "141806.236000", "141806.239000", "141806.241000", "141806.244000", "141806.247000", "141806.249000", "141806.252000", "141806.254000", "141806.257000", "141806.260000", "141806.262000", "141806.265000", "141806.268000", "141806.270000", "141806.273000", "141806.276000", "141806.278000", "141846.235000", "141846.238000", "141846.240000", "141846.243000", "141846.245000", "141846.248000", "141846.251000", "141846.253000", "141846.256000", "141846.259000", "141846.261000", "141846.264000", "141846.267000", "141846.269000", "141846.272000", "141846.275000", "141846.277000", "141846.280000", "141846.283000", "141846.285000", "141846.288000", "141846.290000", "141846.293000", "141846.296000", "141846.298000", "141846.301000", "141846.304000", "141926.212000", "141926.216000", "141926.220000", "141926.223000", "141926.226000", "141926.230000", "141926.234000", "141926.237000", "141926.239000", "141926.242000", "141926.245000", "141926.248000", "141926.250000", "141926.253000", "141926.256000", "141926.258000", "141926.261000", "141926.264000", "141926.266000", "141926.269000", "141926.272000", "141926.274000", "141926.277000", "141926.280000", "141926.282000", "141926.285000", "141933.426000", "141933.429000", "141933.432000", "141933.435000", "141933.440000"],
