{
  "AcquisitionMatrixPE": 104,
  "AcquisitionNumber": 1,
  "AcquisitionTime": "14:08:14.105000",
  "BandwidthPerPixelPhaseEncode": 17.17,
  "BaseResolution": 104,
  "BodyPartExamined": "BRAIN",
  "CoilCombinationMethod": "Sum of Squares",
  "ConsistencyInfo": "N4_VE11C_LATEST_20160120",
  "ConversionSoftware": "dcm2niix",
  "ConversionSoftwareVersion": "v1.0.20211006",
  "DerivedVendorReportedEchoSpacing": 0.000560011,
  "DeviceSerialNumber": "167006",
  "DwellTime": 2.1e-06,
  "EchoTime": 0.037,
  "EchoTrainLength": 104,
  "EffectiveEchoSpacing": 0.000560011,
  "FlipAngle": 52,
  "HeudiconvVersion": "0.11.3.post9+gc939bf8",
  "ImageComments": "Unaliased MB4/PE3/LB",
  "ImageOrientationPatientDICOM": [0.99983, 0.00444296, 0.0179118, 0.000872477, 0.958122, -0.28636],
  "ImageOrientationText": "Tra>Cor(-16.6)>Sag(1.1)",
  "ImageType": [
    "ORIGINAL",
    "PRIMARY",
    "M",
    "MB",
    "ND",
    "MOSAIC"
],
  "ImagingFrequency": 123.259,
  "InPlanePhaseEncodingDirectionDICOM": "COL",
  "InstitutionAddress": "Chemin Queen-Mary 4565,Montreal,District,CA,H3W 1W5",
  "InstitutionName": "IUGM",
  "InstitutionalDepartmentName": "Department",
  "MRAcquisitionType": "2D",
  "MagneticFieldStrength": 3,
  "Manufacturer": "Siemens",
  "ManufacturersModelName": "Prisma_fit",
  "MatrixCoilMode": "SENSE",
  "Modality": "MR",
  "MultibandAccelerationFactor": 4,
  "PartialFourier": 1,
  "PatientPosition": "HFS",
  "PercentPhaseFOV": 100,
  "PercentSampling": 100,
  "PhaseEncodingDirection": "j",
  "PhaseEncodingSteps": 104,
  "PhaseResolution": 1,
  "PixelBandwidth": 2290,
  "ProcedureStepDescription": "games^mariostars",
  "ProtocolName": "func_task-mariostars_run-02",
  "PulseSequenceDetails": "%CustomerSeq%\\cmrr_mbep2d_bold",
  "ReceiveCoilActiveElements": "HC1-7;NC1,2",
  "ReceiveCoilName": "HeadNeck_64",
  "ReconMatrixPE": 104,
  "RepetitionTime": 1.49,
  "SAR": 0.0573593,
  "ScanOptions": "FS",
  "ScanningSequence": "EP",
  "SequenceName": "epfid2d1_104",
  "SequenceVariant": "SK\\SS",
  "SeriesDescription": "func_task-mariostars_run-02",
  "SeriesNumber": 14,
  "ShimSetting": [641, -7223, -8793, 704, 76, -52, 51, -26],
  "SliceThickness": 2,
  "SliceTiming": [0, 0.7825, 0.0975, 0.8825, 0.195, 0.98, 0.2925, 1.0775, 0.3925, 1.175, 0.49, 1.2725, 0.5875, 1.3725, 0.685, 0, 0.7825, 0.0975, 0.8825, 0.195, 0.98, 0.2925, 1.0775, 0.3925, 1.175, 0.49, 1.2725, 0.5875, 1.3725, 0.685, 0, 0.7825, 0.0975, 0.8825, 0.195, 0.98, 0.2925, 1.0775, 0.3925, 1.175, 0.49, 1.2725, 0.5875, 1.3725, 0.685, 0, 0.7825, 0.0975, 0.8825, 0.195, 0.98, 0.2925, 1.0775, 0.3925, 1.175, 0.49, 1.2725, 0.5875, 1.3725, 0.685],
  "SoftwareVersions": "syngo MR E11",
  "SpacingBetweenSlices": 2,
  "StationName": "MRC35049",
  "TaskName": "mariostars",
  "TotalReadoutTime": 0.0576811,
  "TxRefAmp": 225.506,
  "WipMemBlock": "3b005e6b-23e1-4035-b3d5-57fe8470493c||Sequence: R017 ve11c/master r/75a17815+; Jun 28 2022 16:32:11 by eja",
  "dcmmeta_affine": [
    [-1.9996594190597534, 0.0017449544975534081, 0.0368678905069828, 107.90320587158203],
    [-0.008885912597179413, 1.9162431955337524, -0.5726543068885803, -71.2282485961914],
    [0.03582355007529259, 0.5727205872535706, 1.9159091711044312, -65.40929412841797],
    [0.0, 0.0, 0.0, 1.0]
],
  "dcmmeta_reorient_transform": [
    [0.0, -1.0, 0.0, 103.0],
    [1.0, 0.0, 0.0, 0.0],
    [0.0, 0.0, 1.0, 0.0],
    [0.0, 0.0, 0.0, 1.0]
],
  "dcmmeta_shape": [104, 104, 60, 455],
  "dcmmeta_slice_dim": 2,
  "dcmmeta_version": 0.6,
  "global": {
    "const": {
      "AcquisitionMatrix": [104, 0, 0, 104],
      "AngioFlag": "N",
      "BitsAllocated": 16,
      "BitsStored": 16,
      "BodyPartExamined": "BRAIN",
      "Columns": 832,
      "EchoNumbers": 1,
      "EchoTime": 37.0,
      "EchoTrainLength": 104,
      "FlipAngle": 52.0,
      "HighBit": 15,
      "ImageOrientationPatient": [0.99982969973506, 0.0044429561182, 0.01791177458068, 0.00087247726288, 0.95812161194689, -0.2863602896767],
      "ImagePositionPatient": [-836.59411898476, -826.8918122897, 189.01144559625],
      "ImageType": [
        "ORIGINAL",
        "PRIMARY",
        "M",
        "MB",
        "ND",
        "MOSAIC"
],
      "ImagedNucleus": "1H",
      "ImagingFrequency": 123.258821,
      "InPlanePhaseEncodingDirection": "COL",
      "MRAcquisitionType": "2D",
      "MagneticFieldStrength": 3.0,
      "Manufacturer": "SIEMENS",
      "ManufacturerModelName": "Prisma_fit",
      "Modality": "MR",
      "NumberOfAverages": 1.0,
      "NumberOfPhaseEncodingSteps": 104,
      "PercentPhaseFieldOfView": 100.0,
      "PercentSampling": 100.0,
      "PerformedProcedureStepStartTime": "135020.239000",
      "PhotometricInterpretation": "MONOCHROME2",
      "PixelBandwidth": 2290.0,
      "PixelRepresentation": 0,
      "PixelSpacing": [2.0, 2.0],
      "ProtocolName": "func_task-mariostars_run-02",
      "RepetitionTime": 1490.0,
      "Rows": 832,
      "SAR": 0.05735933665013,
      "SamplesPerPixel": 1,
      "ScanOptions": "FS",
      "ScanningSequence": "EP",
      "SequenceName": "epfid2d1_104",
      "SequenceVariant": [
        "SK",
        "SS"
],
      "SeriesDescription": "func_task-mariostars_run-02",
      "SeriesNumber": 14,
      "SeriesTime": "140926.117000",
      "SliceLocation": -40.275468869902,
      "SliceThickness": 2.0,
      "SmallestImagePixelValue": 0,
      "SoftwareVersions": "syngo MR E11",
      "SpacingBetweenSlices": 2.0000000007859,
      "SpecificCharacterSet": "ISO_IR 100",
      "StudyID": "1",
      "StudyTime": "135020.181000",
      "TransmitCoilName": "Body",
      "VariableFlipAngleFlag": "N",
      "WindowCenterWidthExplanation": "Algo1",
      "dBdt": 0.0},
    "slices": {}
  },
  "time": {
    "samples": {
      "AcquisitionNumber": [1, 2, 3, 4, 5, 6, 7, 8, 9, 10, 11, 12, 13, 14, 15, 16, 17, 18, 19, 20, 21, 22, 23, 24, 25, 26, 27, 28, 29, 30, 31, 32, 33, 34, 35, 36, 37, 38, 39, 40, 41, 42, 43, 44, 45, 46, 47, 48, 49, 50, 51, 52, 53, 54, 55, 56, 57, 58, 59, 60, 61, 62, 63, 64, 65, 66, 67, 68, 69, 70, 71, 72, 73, 74, 75, 76, 77, 78, 79, 80, 81, 82, 83, 84, 85, 86, 87, 88, 89, 90, 91, 92, 93, 94, 95, 96, 97, 98, 99, 100, 101, 102, 103, 104, 105, 106, 107, 108, 109, 110, 111, 112, 113, 114, 115, 116, 117, 118, 119, 120, 121, 122, 123, 124, 125, 126, 127, 128, 129, 130, 131, 132, 133, 134, 135, 136, 137, 138, 139, 140, 141, 142, 143, 144, 145, 146, 147, 148, 149, 150, 151, 152, 153, 154, 155, 156, 157, 158, 159, 160, 161, 162, 163, 164, 165, 166, 167, 168, 169, 170, 171, 172, 173, 174, 175, 176, 177, 178, 179, 180, 181, 182, 183, 184, 185, 186, 187, 188, 189, 190, 191, 192, 193, 194, 195, 196, 197, 198, 199, 200, 201, 202, 203, 204, 205, 206, 207, 208, 209, 210, 211, 212, 213, 214, 215, 216, 217, 218, 219, 220, 221, 222, 223, 224, 225, 226, 227, 228, 229, 230, 231, 232, 233, 234, 235, 236, 237, 238, 239, 240, 241, 242, 243, 244, 245, 246, 247, 248, 249, 250, 251, 252, 253, 254, 255, 256, 257, 258, 259, 260, 261, 262, 263, 264, 265, 266, 267, 268, 269, 270, 271, 272, 273, 274, 275, 276, 277, 278, 279, 280, 281, 282, 283, 284, 285, 286, 287, 288, 289, 290, 291, 292, 293, 294, 295, 296, 297, 298, 299, 300, 301, 302, 303, 304, 305, 306, 307, 308, 309, 310, 311, 312, 313, 314, 315, 316, 317, 318, 319, 320, 321, 322, 323, 324, 325, 326, 327, 328, 329, 330, 331, 332, 333, 334, 335, 336, 337, 338, 339, 340, 341, 342, 343, 344, 345, 346, 347, 348, 349, 350, 351, 352, 353, 354, 355, 356, 357, 358, 359, 360, 361, 362, 363, 364, 365, 366, 367, 368, 369, 370, 371, 372, 373, 374, 375, 376, 377, 378, 379, 380, 381, 382, 383, 384, 385, 386, 387, 388, 389, 390, 391, 392, 393, 394, 395, 396, 397, 398, 399, 400, 401, 402, 403, 404, 405, 406, 407, 408, 409, 410, 411, 412, 413, 414, 415, 416, 417, 418, 419, 420, 421, 422, 423, 424, 425, 426, 427, 428, 429, 430, 431, 432, 433, 434, 435, 436, 437, 438, 439, 440, 441, 442, 443, 444, 445, 446, 447, 448, 449, 450, 451, 452, 453, 454, 455],
      "AcquisitionTime": ["140814.105000", "140815.595000", "140817.085000", "140818.575000", "140820.065000", "140821.555000", "140823.045000", "140824.535000", "140826.025000", "140827.515000", "140829.005000", "140830.495000", "140831.985000", "140833.475000", "140834.965000", "140836.455000", "140837.945000", "140839.435000", "140840.925000", "140842.415000", "140843.905000", "140845.395000", "140846.885000", "140848.375000", "140849.865000", "140851.355000", "140852.845000", "140854.335000", "140855.825000", "140857.315000", "140858.805000", "140900.295000", "140901.785000", "140903.275000", "140904.765000", "140906.255000", "140907.745000", "140909.235000", "140910.725000", "140912.215000", "140913.705000", "140915.195000", "140916.685000", "140918.175000", "140919.665000", "140921.155000", "140922.645000", "140924.135000", "140925.625000", "140927.115000", "140928.605000", "140930.095000", "140931.585000", "140933.075000", "140934.565000", "140936.055000", "140937.545000", "140939.035000", "140940.525000", "140942.015000", "140943.505000", "140944.995000", "140946.485000", "140947.975000", "140949.465000", "140950.955000", "140952.445000", "140953.935000", "140955.425000", "140956.915000", "140958.405000", "140959.895000", "141001.385000", "141002.875000", "141004.365000", "141005.855000", "141007.345000", "141008.835000", "141010.325000", "141011.815000", "141013.305000", "141014.795000", "141016.285000", "141017.775000", "141019.265000", "141020.755000", "141022.245000", "141023.735000", "141025.225000", "141026.715000", "141028.205000", "141029.695000", "141031.185000", "141032.675000", "141034.165000", "141035.655000", "141037.145000", "141038.635000", "141040.125000", "141041.615000", "141043.105000", "141044.595000", "141046.085000", "141047.575000", "141049.065000", "141050.555000", "141052.045000", "141053.535000", "141055.025000", "141056.515000", "141058.005000", "141059.495000", "141100.985000", "141102.475000", "141103.965000", "141105.455000", "141106.945000", "141108.435000", "141109.925000", "141111.415000", "141112.905000", "141114.395000", "141115.885000", "141117.375000", "141118.865000", "141120.355000", "141121.845000", "141123.335000", "141124.825000", "141126.315000", "141127.805000", "141129.295000", "141130.785000", "141132.275000", "141133.765000", "141135.255000", "141136.745000", "141138.235000", "141139.725000", "141141.215000", "141142.705000", "141144.195000", "141145.685000", "141147.175000", "141148.665000", "141150.155000", "141151.645000", "141153.135000", "141154.625000", "141156.115000", "141157.605000", "141159.095000", "141200.585000", "141202.075000", "141203.565000", "141205.055000", "141206.545000", "141208.035000", "141209.525000", "141211.015000", "141212.505000", "141213.995000", "141215.485000", "141216.975000", "141218.465000", "141219.955000", "141221.445000", "141222.935000", "141224.425000", "141225.915000", "141227.405000", "141228.895000", "141230.385000", "141231.875000", "141233.365000", "141234.855000", "141236.345000", "141237.835000", "141239.325000", "141240.815000", "141242.305000", "141243.795000", "141245.285000", "141246.775000", "141248.265000", "141249.755000", "141251.245000", "141252.735000", "141254.225000", "141255.715000", "141257.205000", "141258.695000", "141300.185000", "141301.675000", "141303.165000", "141304.655000", "141306.145000", "141307.635000", "141309.125000", "141310.615000", "141312.105000", "141313.595000", "141315.085000", "141316.575000", "141318.065000", "141319.555000", "141321.045000", "141322.535000", "141324.025000", "141325.515000", "141327.005000", "141328.495000", "141329.985000", "141331.475000", "141332.965000", "141334.455000", "141335.945000", "141337.435000", "141338.925000", "141340.415000", "141341.905000", "141343.395000", "141344.885000", "141346.375000", "141347.865000", "141349.355000", "141350.845000", "141352.335000", "141353.825000", "141355.315000", "141356.805000", "141358.295000", "141359.785000", "141401.275000", "141402.765000", "141404.255000", "141405.745000", "141407.235000", "141408.725000", "141410.215000", "141411.705000", "141413.195000", "141414.685000", "141416.175000", "141417.665000", "141419.155000", "141420.645000", "141422.135000", "141423.625000", "141425.115000", "141426.605000", "141428.095000", "141429.585000", "141431.075000", "141432.565000", "141434.055000", "141435.545000", "141437.035000", "141438.525000", "141440.015000", "141441.505000", "141442.995000", "141444.485000", "141445.975000", "141447.465000", "141448.955000", "141450.445000", "141451.935000", "141453.425000", "141454.915000", "141456.405000", "141457.895000", "141459.385000", "141500.875000", "141502.365000", "141503.855000", "141505.345000", "141506.835000", "141508.325000", "141509.815000", "141511.305000", "141512.795000", "141514.285000", "141515.775000", "141517.265000", "141518.755000", "141520.245000", "141521.735000", "141523.225000", "141524.715000", "141526.205000", "141527.695000", "141529.185000", "141530.675000", "141532.165000", "141533.655000", "141535.145000", "141536.635000", "141538.125000", "141539.615000", "141541.105000", "141542.595000", "141544.085000", "141545.575000", "141547.065000", "141548.555000", "141550.045000", "141551.535000", "141553.025000", "141554.515000", "141556.005000", "141557.495000", "141558.985000", "141600.475000", "141601.965000", "141603.455000", "141604.945000", "141606.435000", "141607.925000", "141609.415000", "141610.905000", "141612.395000", "141613.885000", "141615.375000", "141616.865000", "141618.355000", "141619.845000", "141621.335000", "141622.825000", "141624.315000", "141625.805000", "141627.295000", "141628.785000", "141630.275000", "141631.765000", "141633.255000", "141634.745000", "141636.235000", "141637.725000", "141639.215000", "141640.705000", "141642.195000", "141643.685000", "141645.175000", "141646.665000", "141648.155000", "141649.645000", "141651.135000", "141652.625000", "141654.115000", "141655.605000", "141657.095000", "141658.585000", "141700.075000", "141701.565000", "141703.055000", "141704.545000", "141706.035000", "141707.525000", "141709.015000", "141710.505000", "141711.995000", "141713.485000", "141714.975000", "141716.465000", "141717.955000", "141719.445000", "141720.935000", "141722.425000", "141723.915000", "141725.405000", "141726.895000", "141728.385000", "141729.875000", "141731.365000", "141732.855000", "141734.345000", "141735.835000", "141737.325000", "141738.815000", "141740.305000", "141741.795000", "141743.285000", "141744.775000", "141746.265000", "141747.755000", "141749.245000", "141750.735000", "141752.225000", "141753.715000", "141755.205000", "141756.695000", "141758.185000", "141759.675000", "141801.165000", "141802.655000", "141804.145000", "141805.635000", "141807.125000", "141808.615000", "141810.105000", "141811.595000", "141813.085000", "141814.575000", "141816.065000", "141817.555000", "141819.045000", "141820.535000", "141822.025000", "141823.515000", "141825.005000", "141826.495000", "141827.985000", "141829.475000", "141830.965000", "141832.455000", "141833.945000", "141835.435000", "141836.925000", "141838.415000", "141839.905000", "141841.395000", "141842.885000", "141844.375000", "141845.865000", "141847.355000", "141848.845000", "141850.335000", "141851.825000", "141853.315000", "141854.805000", "141856.295000", "141857.785000", "141859.275000", "141900.765000", "141902.255000", "141903.745000", "141905.235000", "141906.725000", "141908.215000", "141909.705000", "141911.195000", "141912.685000", "141914.175000", "141915.665000", "141917.155000", "141918.645000", "141920.135000", "141921.625000", "141923.115000", "141924.605000", "141926.095000", "141927.585000", "141929.075000", "141930.565000"],
      "ContentTime": ["140926.120000", "140926.124000", "140926.128000", "140926.131000", "140926.135000", "140926.138000", "140926.147000", "140926.150000", "140926.154000", "140926.157000", "140926.160000", "140926.164000", "140926.167000", "140926.171000", "140926.174000", "140926.178000", "140926.181000", "140926.184000", "140926.188000", "140926.191000", "140926.195000", "140926.198000", "140926.201000", "140926.205000", "140946.069000", "140946.073000", "140946.076000", "140946.080000", "140946.083000", "140946.087000", "140946.090000", "140946.094000", "140946.097000", "140946.101000", "140946.104000", "140946.107000", "140946.111000", "140946.114000", "140946.118000", "140946.121000", "140946.124000", "140946.128000", "140946.131000", "140946.135000", "141006.069000", "141006.073000", "141006.076000", "141006.080000", "141006.083000", "141006.087000", "141006.090000", "141006.104000", "141006.107000", "141006.111000", "141006.114000", "141006.124000", "141006.127000", "141006.131000", "141006.134000", "141006.138000", "141006.142000", "141006.146000", "141006.149000", "141006.152000", "141006.156000", "141026.068000", "141026.072000", "141026.075000", "141026.079000", "141026.083000", "141026.086000", "141026.090000", "141026.094000", "141026.097000", "141026.101000", "141026.104000", "141026.114000", "141026.117000", "141026.121000", "141026.124000", "141026.128000", "141026.131000", "141026.135000", "141026.138000", "141026.141000", "141106.069000", "141106.073000", "141106.077000", "141106.080000", "141106.083000", "141106.087000", "141106.090000", "141106.094000", "141106.097000", "141106.101000", "141106.104000", "141106.108000", "141106.112000", "141106.115000", "141106.119000", "141106.122000", "141106.126000", "141106.129000", "141106.133000", "141106.136000", "141106.140000", "141106.143000", "141106.147000", "141106.150000", "141106.154000", "141106.157000", "141106.161000", "141106.164000", "141106.168000", "141106.171000", "141146.070000", "141146.073000", "141146.077000", "141146.080000", "141146.084000", "141146.087000", "141146.091000", "141146.094000", "141146.098000", "141146.101000", "141146.105000", "141146.114000", "141146.118000", "141146.121000", "141146.125000", "141146.128000", "141146.132000", "141146.135000", "141146.139000", "141146.142000", "141146.146000", "141146.149000", "141146.153000", "141146.156000", "141146.160000", "141146.163000", "141146.166000", "141226.069000", "141226.073000", "141226.077000", "141226.080000", "141226.084000", "141226.087000", "141226.091000", "141226.094000", "141226.098000", "141226.101000", "141226.104000", "141226.108000", "141226.112000", "141226.115000", "141226.119000", "141226.123000", "141226.126000", "141226.130000", "141226.133000", "141226.137000", "141226.140000", "141226.144000", "141226.147000", "141226.151000", "141226.154000", "141226.158000", "141226.161000", "141306.068000", "141306.073000", "141306.076000", "141306.080000", "141306.083000", "141306.086000", "141306.090000", "141306.093000", "141306.097000", "141306.100000", "141306.104000", "141306.107000", "141306.111000", "141306.114000", "141306.118000", "141306.121000", "141306.125000", "141306.129000", "141306.133000", "141306.137000", "141306.140000", "141306.144000", "141306.148000", "141306.151000", "141306.155000", "141306.158000", "141346.069000", "141346.120000", "141346.124000", "141346.127000", "141346.131000", "141346.134000", "141346.138000", "141346.141000", "141346.144000", "141346.148000", "141346.151000", "141346.155000", "141346.158000", "141346.162000", "141346.165000", "141346.169000", "141346.172000", "141346.176000", "141346.179000", "141346.187000", "141346.191000", "141346.194000", "141346.198000", "141346.201000", "141346.205000", "141346.208000", "141346.212000", "141426.070000", "141426.073000", "141426.077000", "141426.080000", "141426.084000", "141426.088000", "141426.092000", "141426.095000", "141426.098000", "141426.102000", "141426.105000", "141426.109000", "141426.112000", "141426.116000", "141426.119000", "141426.123000", "141426.126000", "141426.130000", "141426.133000", "141426.137000", "141426.140000", "141426.144000", "141426.147000", "141426.151000", "141426.155000", "141426.158000", "141426.162000", "141506.068000", "141506.072000", "141506.076000", "141506.079000", "141506.083000", "141506.086000", "141506.090000", "141506.093000", "141506.096000", "141506.100000", "141506.103000", "141506.107000", "141506.116000", "141506.120000", "141506.123000", "141506.127000", "141506.130000", "141506.133000", "141506.137000", "141506.140000", "141506.144000", "141506.147000", "141506.151000", "141506.154000", "141506.158000", "141506.161000", "141506.165000", "141546.069000", "141546.073000", "141546.077000", "141546.081000", "141546.084000", "141546.088000", "141546.092000", "141546.095000", "141546.104000", "141546.108000", "141546.130000", "141546.133000", "141546.137000", "141546.140000", "141546.144000", "141546.147000", "141546.151000", "141546.154000", "141546.157000", "141546.161000", "141546.165000", "141546.168000", "141546.172000", "141546.175000", "141546.178000", "141546.182000", "141546.185000", "141626.069000", "141626.073000", "141626.077000", "141626.080000", "141626.084000", "141626.087000", "141626.091000", "141626.094000", "141626.098000", "141626.101000", "141626.105000", "141626.108000", "141626.112000", "141626.115000", "141626.119000", "141626.122000", "141626.126000", "141626.129000", "141626.132000", "141626.136000", "141626.139000", "141626.143000", "141626.147000", "141626.150000", "141626.154000", "141626.158000", "141626.165000", "141646.070000", "141646.073000", "141646.077000", "141646.080000", "141646.084000", "141646.087000", "141646.091000", "141646.094000", "141646.098000", "141646.101000", "141646.105000", "141646.108000", "141646.112000", "141726.069000", "141726.072000", "141726.076000", "141726.079000", "141726.083000", "141726.087000", "141726.090000", "141726.094000", "141726.097000", "141726.101000", "141726.104000", "141726.107000", "141726.111000", "141726.114000", "141726.118000", "141726.121000", "141726.125000", "141726.128000", "141726.132000", "141726.135000", "141726.139000", "141726.142000", "141726.146000", "141726.149000", "141726.153000", "141726.156000", "141726.160000", "141806.069000", "141806.073000", "141806.077000", "141806.080000", "141806.084000", "141806.087000", "141806.091000", "141806.094000", "141806.098000", "141806.101000", "141806.105000", "141806.108000", "141806.112000", "141806.115000", "141806.119000", "141806.122000", "141806.126000", "141806.129000", "141806.133000", "141806.136000", "141806.140000", "141806.144000", "141806.148000", "141806.152000", "141806.156000", "141806.159000", "141806.163000", "141846.070000", "141846.073000", "141846.077000", "141846.080000", "141846.084000", "141846.087000", "141846.091000", "141846.094000", "141846.098000", "141846.101000", "141846.105000", "141846.108000", "141846.111000", "141846.115000", "141846.119000", "141846.122000", "141846.126000", "141846.129000", "141846.132000", "141846.144000", "141846.148000", "141846.151000", "141846.155000", "141846.158000", "141846.162000", "141846.165000", "141846.169000", "141926.069000", "141926.073000", "141926.077000", "141926.080000", "141926.084000", "141926.088000", "141926.091000", "141926.095000", "141926.098000", "141926.102000", "141926.105000", "141926.108000", "141926.112000", "141926.116000", "141926.119000", "141926.123000", "141926.127000", "141926.131000", "141926.134000", "141926.138000", "141926.141000", "141926.145000", "141926.148000", "141926.152000", "141926.155000", "141926.159000", "141933.380000", "141933.384000", "141933.388000", "141933.391000", "141933.395000"],
