{
  "AcquisitionMatrixPE": 104,
  "AcquisitionNumber": 1,
  "AcquisitionTime": "14:21:15.957500",
  "BandwidthPerPixelPhaseEncode": 17.17,
  "BaseResolution": 104,
  "BodyPartExamined": "BRAIN",
  "CoilCombinationMethod": "Sum of Squares",
  "ConsistencyInfo": "N4_VE11C_LATEST_20160120",
  "ConversionSoftware": "dcm2niix",
  "ConversionSoftwareVersion": "v1.0.20211006",
  "DerivedVendorReportedEchoSpacing": 0.000560011,
  "DeviceSerialNumber": "167006",
  "DwellTime": 2.1e-06,
  "EchoTime": 0.037,
  "EchoTime1": 0.037,
  "EchoTime2": 0.001,
  "EchoTrainLength": 104,
  "EffectiveEchoSpacing": 0.000560011,
  "FlipAngle": 52,
  "HeudiconvVersion": "0.11.3.post9+gc939bf8",
  "ImageComments": "Unaliased MB4/PE3/LB",
  "ImageOrientationPatientDICOM": [0.99983, 0.00444296, 0.0179118, 0.000872477, 0.958122, -0.28636],
  "ImageOrientationText": "Tra>Cor(-16.6)>Sag(1.1)",
  "ImageType": [
    "ORIGINAL",
    "PRIMARY",
    "P",
    "MB",
    "ND",
    "MOSAIC",
    "PHASE"
],
  "ImagingFrequency": 123.259,
  "InPlanePhaseEncodingDirectionDICOM": "COL",
  "InstitutionAddress": "Chemin Queen-Mary 4565,Montreal,District,CA,H3W 1W5",
  "InstitutionName": "IUGM",
  "InstitutionalDepartmentName": "Department",
  "MRAcquisitionType": "2D",
  "MagneticFieldStrength": 3,
  "Manufacturer": "Siemens",
  "ManufacturersModelName": "Prisma_fit",
  "MatrixCoilMode": "SENSE",
  "Modality": "MR",
  "MultibandAccelerationFactor": 4,
  "PartialFourier": 1,
  "PatientPosition": "HFS",
  "PercentPhaseFOV": 100,
  "PercentSampling": 100,
  "PhaseEncodingDirection": "j",
  "PhaseEncodingSteps": 104,
  "PhaseResolution": 1,
  "PixelBandwidth": 2290,
  "ProcedureStepDescription": "games^mariostars",
  "ProtocolName": "func_task-mariostars_run-03",
  "PulseSequenceDetails": "%CustomerSeq%\\cmrr_mbep2d_bold",
  "ReceiveCoilActiveElements": "HC1-7;NC1,2",
  "ReceiveCoilName": "HeadNeck_64",
  "ReconMatrixPE": 104,
  "RepetitionTime": 1.49,
  "SAR": 0.0573593,
  "ScanOptions": "FS",
  "ScanningSequence": "EP",
  "SequenceName": "epfid2d1_104",
  "SequenceVariant": "SK\\SS",
  "SeriesDescription": "func_task-mariostars_run-03",
  "SeriesNumber": 18,
  "ShimSetting": [641, -7223, -8793, 704, 76, -52, 51, -26],
  "SliceThickness": 2,
  "SliceTiming": [0, 0.7825, 0.0975, 0.88, 0.195, 0.9775, 0.2925, 1.0775, 0.39, 1.175, 0.4875, 1.2725, 0.5875, 1.37, 0.685, 0, 0.7825, 0.0975, 0.88, 0.195, 0.9775, 0.2925, 1.0775, 0.39, 1.175, 0.4875, 1.2725, 0.5875, 1.37, 0.685, 0, 0.7825, 0.0975, 0.88, 0.195, 0.9775, 0.2925, 1.0775, 0.39, 1.175, 0.4875, 1.2725, 0.5875, 1.37, 0.685, 0, 0.7825, 0.0975, 0.88, 0.195, 0.9775, 0.2925, 1.0775, 0.39, 1.175, 0.4875, 1.2725, 0.5875, 1.37, 0.685],
  "SoftwareVersions": "syngo MR E11",
  "SpacingBetweenSlices": 2,
  "StationName": "MRC35049",
  "TaskName": "mariostars",
  "TotalReadoutTime": 0.0576811,
  "TxRefAmp": 225.506,
  "WipMemBlock": "74c1781d-c966-4060-8d1b-95936a37f06c||Sequence: R017 ve11c/master r/75a17815+; Jun 28 2022 16:32:11 by eja",
  "dcmmeta_affine": [
    [-1.9996594190597534, 0.0017449544975534081, 0.0368678905069828, 107.90320587158203],
    [-0.008885912597179413, 1.9162431955337524, -0.5726543068885803, -71.2282485961914],
    [0.03582355007529259, 0.5727205872535706, 1.9159091711044312, -65.40929412841797],
    [0.0, 0.0, 0.0, 1.0]
],
  "dcmmeta_reorient_transform": [
    [0.0, -1.0, 0.0, 103.0],
    [1.0, 0.0, 0.0, 0.0],
    [0.0, 0.0, 1.0, 0.0],
    [0.0, 0.0, 0.0, 1.0]
],
  "dcmmeta_shape": [104, 104, 60, 419],
  "dcmmeta_slice_dim": 2,
  "dcmmeta_version": 0.6,
  "global": {
    "const": {
      "AcquisitionMatrix": [104, 0, 0, 104],
      "AngioFlag": "N",
      "BitsAllocated": 16,
      "BitsStored": 16,
      "BodyPartExamined": "BRAIN",
      "Columns": 832,
      "EchoNumbers": 1,
      "EchoTime": 37.0,
      "EchoTrainLength": 104,
      "FlipAngle": 52.0,
      "HighBit": 15,
      "ImageOrientationPatient": [0.99982969973506, 0.0044429561182, 0.01791177458068, 0.00087247726288, 0.95812161194689, -0.2863602896767],
      "ImagePositionPatient": [-836.59411898476, -826.8918122897, 189.01144559625],
      "ImageType": [
        "ORIGINAL",
        "PRIMARY",
        "P",
        "MB",
        "ND",
        "MOSAIC"
],
      "ImagedNucleus": "1H",
      "ImagingFrequency": 123.258825,
      "InPlanePhaseEncodingDirection": "COL",
      "LargestImagePixelValue": 4095,
      "MRAcquisitionType": "2D",
      "MagneticFieldStrength": 3.0,
      "Manufacturer": "SIEMENS",
      "ManufacturerModelName": "Prisma_fit",
      "Modality": "MR",
      "NumberOfAverages": 1.0,
      "NumberOfPhaseEncodingSteps": 104,
      "PercentPhaseFieldOfView": 100.0,
      "PercentSampling": 100.0,
      "PerformedProcedureStepStartTime": "135020.239000",
      "PhotometricInterpretation": "MONOCHROME2",
      "PixelBandwidth": 2290.0,
      "PixelRepresentation": 0,
      "PixelSpacing": [2.0, 2.0],
      "ProtocolName": "func_task-mariostars_run-03",
      "RepetitionTime": 1490.0,
      "RescaleIntercept": -4096.0,
      "RescaleSlope": 2.0,
      "RescaleType": "US",
      "Rows": 832,
      "SAR": 0.05735933665013,
      "SamplesPerPixel": 1,
      "ScanOptions": "FS",
      "ScanningSequence": "EP",
      "SequenceName": "epfid2d1_104",
      "SequenceVariant": [
        "SK",
        "SS"
],
      "SeriesDescription": "func_task-mariostars_run-03",
      "SeriesNumber": 18,
      "SeriesTime": "142236.264000",
      "SliceLocation": -40.275468869902,
      "SliceThickness": 2.0,
      "SmallestImagePixelValue": 0,
      "SoftwareVersions": "syngo MR E11",
      "SpacingBetweenSlices": 2.0000000007859,
      "SpecificCharacterSet": "ISO_IR 100",
      "StudyID": "1",
      "StudyTime": "135020.181000",
      "TransmitCoilName": "Body",
      "VariableFlipAngleFlag": "N",
      "WindowCenterWidthExplanation": "Algo1",
      "dBdt": 0.0},
    "slices": {}
  },
  "time": {
    "samples": {
      "AcquisitionNumber": [1, 2, 3, 4, 5, 6, 7, 8, 9, 10, 11, 12, 13, 14, 15, 16, 17, 18, 19, 20, 21, 22, 23, 24, 25, 26, 27, 28, 29, 30, 31, 32, 33, 34, 35, 36, 37, 38, 39, 40, 41, 42, 43, 44, 45, 46, 47, 48, 49, 50, 51, 52, 53, 54, 55, 56, 57, 58, 59, 60, 61, 62, 63, 64, 65, 66, 67, 68, 69, 70, 71, 72, 73, 74, 75, 76, 77, 78, 79, 80, 81, 82, 83, 84, 85, 86, 87, 88, 89, 90, 91, 92, 93, 94, 95, 96, 97, 98, 99, 100, 101, 102, 103, 104, 105, 106, 107, 108, 109, 110, 111, 112, 113, 114, 115, 116, 117, 118, 119, 120, 121, 122, 123, 124, 125, 126, 127, 128, 129, 130, 131, 132, 133, 134, 135, 136, 137, 138, 139, 140, 141, 142, 143, 144, 145, 146, 147, 148, 149, 150, 151, 152, 153, 154, 155, 156, 157, 158, 159, 160, 161, 162, 163, 164, 165, 166, 167, 168, 169, 170, 171, 172, 173, 174, 175, 176, 177, 178, 179, 180, 181, 182, 183, 184, 185, 186, 187, 188, 189, 190, 191, 192, 193, 194, 195, 196, 197, 198, 199, 200, 201, 202, 203, 204, 205, 206, 207, 208, 209, 210, 211, 212, 213, 214, 215, 216, 217, 218, 219, 220, 221, 222, 223, 224, 225, 226, 227, 228, 229, 230, 231, 232, 233, 234, 235, 236, 237, 238, 239, 240, 241, 242, 243, 244, 245, 246, 247, 248, 249, 250, 251, 252, 253, 254, 255, 256, 257, 258, 259, 260, 261, 262, 263, 264, 265, 266, 267, 268, 269, 270, 271, 272, 273, 274, 275, 276, 277, 278, 279, 280, 281, 282, 283, 284, 285, 286, 287, 288, 289, 290, 291, 292, 293, 294, 295, 296, 297, 298, 299, 300, 301, 302, 303, 304, 305, 306, 307, 308, 309, 310, 311, 312, 313, 314, 315, 316, 317, 318, 319, 320, 321, 322, 323, 324, 325, 326, 327, 328, 329, 330, 331, 332, 333, 334, 335, 336, 337, 338, 339, 340, 341, 342, 343, 344, 345, 346, 347, 348, 349, 350, 351, 352, 353, 354, 355, 356, 357, 358, 359, 360, 361, 362, 363, 364, 365, 366, 367, 368, 369, 370, 371, 372, 373, 374, 375, 376, 377, 378, 379, 380, 381, 382, 383, 384, 385, 386, 387, 388, 389, 390, 391, 392, 393, 394, 395, 396, 397, 398, 399, 400, 401, 402, 403, 404, 405, 406, 407, 408, 409, 410, 411, 412, 413, 414, 415, 416, 417, 418, 419],
      "AcquisitionTime": ["142115.957500", "142117.447500", "142118.937500", "142120.427500", "142121.917500", "142123.407500", "142124.897500", "142126.387500", "142127.877500", "142129.367500", "142130.857500", "142132.347500", "142133.837500", "142135.327500", "142136.817500", "142138.307500", "142139.797500", "142141.287500", "142142.777500", "142144.267500", "142145.757500", "142147.247500", "142148.737500", "142150.227500", "142151.717500", "142153.207500", "142154.697500", "142156.187500", "142157.677500", "142159.167500", "142200.657500", "142202.147500", "142203.637500", "142205.127500", "142206.617500", "142208.107500", "142209.597500", "142211.087500", "142212.577500", "142214.067500", "142215.557500", "142217.047500", "142218.537500", "142220.027500", "142221.517500", "142223.007500", "142224.497500", "142225.987500", "142227.477500", "142228.967500", "142230.457500", "142231.947500", "142233.437500", "142234.927500", "142236.417500", "142237.907500", "142239.397500", "142240.887500", "142242.377500", "142243.867500", "142245.357500", "142246.847500", "142248.337500", "142249.827500", "142251.317500", "142252.807500", "142254.297500", "142255.787500", "142257.277500", "142258.767500", "142300.257500", "142301.747500", "142303.237500", "142304.727500", "142306.217500", "142307.707500", "142309.197500", "142310.687500", "142312.177500", "142313.667500", "142315.157500", "142316.647500", "142318.137500", "142319.627500", "142321.117500", "142322.607500", "142324.097500", "142325.587500", "142327.077500", "142328.567500", "142330.057500", "142331.547500", "142333.037500", "142334.527500", "142336.017500", "142337.507500", "142338.997500", "142340.487500", "142341.977500", "142343.467500", "142344.957500", "142346.447500", "142347.937500", "142349.427500", "142350.917500", "142352.407500", "142353.897500", "142355.387500", "142356.877500", "142358.367500", "142359.857500", "142401.347500", "142402.837500", "142404.327500", "142405.817500", "142407.307500", "142408.797500", "142410.287500", "142411.777500", "142413.267500", "142414.757500", "142416.247500", "142417.737500", "142419.227500", "142420.717500", "142422.207500", "142423.697500", "142425.187500", "142426.677500", "142428.167500", "142429.657500", "142431.147500", "142432.637500", "142434.127500", "142435.617500", "142437.107500", "142438.597500", "142440.087500", "142441.577500", "142443.067500", "142444.557500", "142446.047500", "142447.537500", "142449.027500", "142450.517500", "142452.007500", "142453.497500", "142454.987500", "142456.477500", "142457.967500", "142459.457500", "142500.947500", "142502.437500", "142503.927500", "142505.417500", "142506.907500", "142508.397500", "142509.887500", "142511.377500", "142512.867500", "142514.357500", "142515.847500", "142517.337500", "142518.827500", "142520.317500", "142521.807500", "142523.297500", "142524.787500", "142526.277500", "142527.767500", "142529.257500", "142530.747500", "142532.237500", "142533.727500", "142535.217500", "142536.707500", "142538.197500", "142539.687500", "142541.177500", "142542.667500", "142544.157500", "142545.647500", "142547.137500", "142548.627500", "142550.117500", "142551.607500", "142553.097500", "142554.587500", "142556.077500", "142557.567500", "142559.057500", "142600.547500", "142602.037500", "142603.527500", "142605.017500", "142606.507500", "142607.997500", "142609.487500", "142610.977500", "142612.467500", "142613.957500", "142615.447500", "142616.937500", "142618.427500", "142619.917500", "142621.407500", "142622.897500", "142624.387500", "142625.877500", "142627.367500", "142628.857500", "142630.347500", "142631.837500", "142633.327500", "142634.817500", "142636.307500", "142637.797500", "142639.287500", "142640.777500", "142642.267500", "142643.757500", "142645.247500", "142646.737500", "142648.227500", "142649.717500", "142651.207500", "142652.697500", "142654.187500", "142655.677500", "142657.167500", "142658.657500", "142700.147500", "142701.637500", "142703.127500", "142704.617500", "142706.107500", "142707.597500", "142709.087500", "142710.577500", "142712.067500", "142713.557500", "142715.047500", "142716.537500", "142718.027500", "142719.517500", "142721.007500", "142722.497500", "142723.987500", "142725.477500", "142726.967500", "142728.457500", "142729.947500", "142731.437500", "142732.927500", "142734.417500", "142735.907500", "142737.397500", "142738.887500", "142740.377500", "142741.867500", "142743.357500", "142744.847500", "142746.337500", "142747.827500", "142749.317500", "142750.807500", "142752.297500", "142753.787500", "142755.277500", "142756.767500", "142758.257500", "142759.747500", "142801.237500", "142802.727500", "142804.217500", "142805.707500", "142807.197500", "142808.687500", "142810.177500", "142811.667500", "142813.157500", "142814.647500", "142816.137500", "142817.627500", "142819.117500", "142820.607500", "142822.097500", "142823.587500", "142825.077500", "142826.567500", "142828.057500", "142829.547500", "142831.037500", "142832.527500", "142834.017500", "142835.507500", "142836.997500", "142838.487500", "142839.977500", "142841.467500", "142842.957500", "142844.447500", "142845.937500", "142847.427500", "142848.917500", "142850.407500", "142851.897500", "142853.387500", "142854.877500", "142856.367500", "142857.857500", "142859.347500", "142900.837500", "142902.327500", "142903.817500", "142905.307500", "142906.797500", "142908.287500", "142909.777500", "142911.267500", "142912.757500", "142914.247500", "142915.737500", "142917.227500", "142918.717500", "142920.207500", "142921.697500", "142923.187500", "142924.677500", "142926.167500", "142927.657500", "142929.147500", "142930.637500", "142932.127500", "142933.617500", "142935.107500", "142936.597500", "142938.087500", "142939.577500", "142941.067500", "142942.557500", "142944.047500", "142945.537500", "142947.027500", "142948.517500", "142950.007500", "142951.497500", "142952.987500", "142954.477500", "142955.967500", "142957.457500", "142958.947500", "143000.437500", "143001.927500", "143003.417500", "143004.907500", "143006.397500", "143007.887500", "143009.377500", "143010.867500", "143012.357500", "143013.847500", "143015.337500", "143016.827500", "143018.317500", "143019.807500", "143021.297500", "143022.787500", "143024.277500", "143025.767500", "143027.257500", "143028.747500", "143030.237500", "143031.727500", "143033.217500", "143034.707500", "143036.197500", "143037.687500", "143039.177500", "143040.667500", "143042.157500", "143043.647500", "143045.137500", "143046.627500", "143048.117500", "143049.607500", "143051.097500", "143052.587500", "143054.077500", "143055.567500", "143057.057500", "143058.547500", "143100.037500", "143101.527500", "143103.017500", "143104.507500", "143105.997500", "143107.487500", "143108.977500", "143110.467500", "143111.957500", "143113.447500", "143114.937500", "143116.427500", "143117.917500", "143119.407500", "143120.897500", "143122.387500", "143123.877500", "143125.367500", "143126.857500", "143128.347500", "143129.837500", "143131.327500", "143132.817500", "143134.307500", "143135.797500", "143137.287500", "143138.777500"],
      "ContentTime": ["142236.266000", "142236.269000", "142236.271000", "142236.274000", "142236.277000", "142236.279000", "142236.282000", "142236.285000", "142236.299000", "142236.301000", "142236.304000", "142236.307000", "142236.309000", "142236.312000", "142236.314000", "142236.317000", "142236.319000", "142236.322000", "142236.325000", "142236.327000", "142236.330000", "142236.333000", "142236.335000", "142236.338000", "142236.340000", "142236.343000", "142236.345000", "142236.348000", "142236.351000", "142236.353000", "142236.356000", "142236.359000", "142256.155000", "142256.158000", "142256.161000", "142256.163000", "142256.166000", "142256.168000", "142256.171000", "142256.180000", "142256.183000", "142256.185000", "142256.188000", "142256.191000", "142256.193000", "142256.196000", "142256.199000", "142256.201000", "142256.204000", "142256.207000", "142256.209000", "142256.212000", "142316.155000", "142316.158000", "142316.161000", "142316.163000", "142316.166000", "142316.169000", "142316.171000", "142316.180000", "142316.183000", "142316.185000", "142316.188000", "142316.191000", "142316.193000", "142316.196000", "142316.199000", "142316.201000", "142316.204000", "142316.206000", "142316.209000", "142316.212000", "142336.595000", "142336.598000", "142336.600000", "142336.603000", "142336.606000", "142336.608000", "142336.611000", "142336.613000", "142336.616000", "142336.619000", "142336.621000", "142336.624000", "142336.627000", "142336.629000", "142336.632000", "142336.635000", "142336.637000", "142336.640000", "142336.643000", "142336.645000", "142416.192000", "142416.195000", "142416.198000", "142416.201000", "142416.203000", "142416.206000", "142416.209000", "142416.211000", "142416.214000", "142416.217000", "142416.219000", "142416.222000", "142416.224000", "142416.227000", "142416.230000", "142416.232000", "142416.235000", "142416.238000", "142416.241000", "142416.243000", "142416.246000", "142416.249000", "142416.252000", "142416.255000", "142416.257000", "142416.260000", "142416.262000", "142416.265000", "142456.184000", "142456.187000", "142456.190000", "142456.192000", "142456.195000", "142456.197000", "142456.200000", "142456.202000", "142456.205000", "142456.207000", "142456.210000", "142456.212000", "142456.214000", "142456.217000", "142456.219000", "142456.222000", "142456.225000", "142456.227000", "142456.230000", "142456.233000", "142456.235000", "142456.238000", "142456.240000", "142456.243000", "142456.245000", "142456.248000", "142456.250000", "142536.198000", "142536.200000", "142536.203000", "142536.205000", "142536.208000", "142536.210000", "142536.213000", "142536.215000", "142536.218000", "142536.220000", "142536.223000", "142536.225000", "142536.228000", "142536.230000", "142536.233000", "142536.235000", "142536.238000", "142536.240000", "142536.243000", "142536.245000", "142536.247000", "142536.250000", "142536.252000", "142536.255000", "142536.258000", "142536.260000", "142536.263000", "142616.179000", "142616.182000", "142616.185000", "142616.187000", "142616.190000", "142616.192000", "142616.195000", "142616.197000", "142616.200000", "142616.202000", "142616.204000", "142616.207000", "142616.209000", "142616.212000", "142616.214000", "142616.217000", "142616.219000", "142616.222000", "142616.224000", "142616.227000", "142616.229000", "142616.232000", "142616.234000", "142616.237000", "142616.239000", "142616.242000", "142616.244000", "142656.207000", "142656.209000", "142656.212000", "142656.215000", "142656.218000", "142656.220000", "142656.223000", "142656.225000", "142656.227000", "142656.230000", "142656.232000", "142656.235000", "142656.237000", "142656.240000", "142656.243000", "142656.245000", "142656.247000", "142656.250000", "142656.253000", "142656.255000", "142656.258000", "142656.260000", "142656.263000", "142656.265000", "142656.267000", "142656.270000", "142656.272000", "142736.193000", "142736.196000", "142736.210000", "142736.213000", "142736.215000", "142736.218000", "142736.220000", "142736.234000", "142736.237000", "142736.239000", "142736.242000", "142736.245000", "142736.247000", "142736.250000", "142736.253000", "142736.255000", "142736.258000", "142736.260000", "142736.263000", "142736.265000", "142736.268000", "142736.270000", "142736.273000", "142736.275000", "142736.278000", "142736.280000", "142816.215000", "142816.218000", "142816.221000", "142816.223000", "142816.226000", "142816.228000", "142816.231000", "142816.233000", "142816.236000", "142816.238000", "142816.241000", "142816.243000", "142816.246000", "142816.248000", "142816.251000", "142816.253000", "142816.256000", "142816.259000", "142816.262000", "142816.264000", "142816.267000", "142816.270000", "142816.272000", "142816.275000", "142816.277000", "142816.280000", "142816.282000", "142856.191000", "142856.194000", "142856.196000", "142856.199000", "142856.201000", "142856.204000", "142856.206000", "142856.209000", "142856.211000", "142856.214000", "142856.216000", "142856.219000", "142856.221000", "142856.224000", "142856.227000", "142856.229000", "142856.232000", "142856.234000", "142856.237000", "142856.239000", "142856.242000", "142856.244000", "142856.247000", "142856.249000", "142856.252000", "142856.254000", "142856.256000", "142936.178000", "142936.181000", "142936.184000", "142936.186000", "142936.189000", "142936.191000", "142936.194000", "142936.196000", "142936.199000", "142936.201000", "142936.204000", "142936.206000", "142936.209000", "142936.211000", "142936.214000", "142936.216000", "142936.219000", "142936.221000", "142936.233000", "142936.235000", "142936.238000", "142936.240000", "142936.243000", "142936.245000", "142936.248000", "142936.250000", "142936.253000", "143016.200000", "143016.203000", "143016.205000", "143016.208000", "143016.210000", "143016.213000", "143016.215000", "143016.218000", "143016.220000", "143016.223000", "143016.225000", "143016.228000", "143016.230000", "143016.233000", "143016.235000", "143016.238000", "143016.240000", "143016.243000", "143016.245000", "143016.248000", "143016.250000", "143016.253000", "143016.255000", "143016.258000", "143016.260000", "143016.263000", "143016.265000", "143056.194000", "143056.197000", "143056.199000", "143056.202000", "143056.204000", "143056.207000", "143056.209000", "143056.212000", "143056.214000", "143056.217000", "143056.219000", "143056.221000", "143056.224000", "143056.226000", "143056.229000", "143056.231000", "143056.234000", "143056.236000", "143056.239000", "143056.241000", "143056.244000", "143056.246000", "143056.249000", "143056.251000", "143056.254000", "143056.256000", "143056.259000", "143136.191000", "143136.194000", "143136.196000", "143136.199000", "143136.201000", "143136.204000", "143136.206000", "143136.209000", "143136.211000", "143136.214000", "143136.216000", "143136.219000", "143136.221000", "143136.224000", "143136.226000", "143136.229000", "143136.232000", "143136.234000", "143136.237000", "143136.239000", "143136.242000", "143136.244000", "143136.247000", "143136.250000", "143136.252000", "143136.255000", "143141.290000", "143141.293000", "143141.296000", "143141.298000"],
      "InstanceCreationTime": ["142236.266000", "142236.269000", "142236.271000", "142236.274000", "142236.277000", "142236.279000", "142236.282000", "142236.285000", "142236.299000", "142236.301000", "142236.304000", "142236.307000", "142236.309000", "142236.312000", "142236.314000", "142236.317000", "142236.319000", "142236.322000", "142236.325000", "142236.327000", "142236.330000", "142236.333000", "142236.335000", "142236.338000", "142236.340000", "142236.343000", "142236.345000", "142236.348000", "142236.351000", "142236.353000", "142236.356000", "142236.359000", "142256.155000", "142256.158000", "142256.161000", "142256.163000", "142256.166000", "142256.168000", "142256.171000", "142256.180000", "142256.183000", "142256.185000", "142256.188000", "142256.191000", "142256.193000", "142256.196000", "142256.199000", "142256.201000", "142256.204000", "142256.207000", "142256.209000", "142256.212000", "142316.155000", "142316.158000", "142316.161000", "142316.163000", "142316.166000", "142316.169000", "142316.171000", "142316.180000", "142316.183000", "142316.185000", "142316.188000", "142316.191000", "142316.193000", "142316.196000", "142316.199000", "142316.201000", "142316.204000", "142316.206000", "142316.209000", "142316.212000", "142336.595000", "142336.598000", "142336.600000", "142336.603000", "142336.606000", "142336.608000", "142336.611000", "142336.613000", "142336.616000", "142336.619000", "142336.621000", "142336.624000", "142336.627000", "142336.629000", "142336.632000", "142336.635000", "142336.637000", "142336.640000", "142336.643000", "142336.645000", "142416.192000", "142416.195000", "142416.198000", "142416.201000", "142416.203000", "142416.206000", "142416.209000", "142416.211000", "142416.214000", "142416.217000", "142416.219000", "142416.222000", "142416.224000", "142416.227000", "142416.230000", "142416.232000", "142416.235000", "142416.238000", "142416.241000", "142416.243000", "142416.246000", "142416.249000", "142416.252000", "142416.255000", "142416.257000", "142416.260000", "142416.262000", "142416.265000", "142456.184000", "142456.187000", "142456.190000", "142456.192000", "142456.195000", "142456.197000", "142456.200000", "142456.202000", "142456.205000", "142456.207000", "142456.210000", "142456.212000", "142456.214000", "142456.217000", "142456.219000", "142456.222000", "142456.225000", "142456.227000", "142456.230000", "142456.233000", "142456.235000", "142456.238000", "142456.240000", "142456.243000", "142456.245000", "142456.248000", "142456.250000", "142536.198000", "142536.200000", "142536.203000", "142536.205000", "142536.208000", "142536.210000", "142536.213000", "142536.215000", "142536.218000", "142536.220000", "142536.223000", "142536.225000", "142536.228000", "142536.230000", "142536.233000", "142536.235000", "142536.238000", "142536.240000", "142536.243000", "142536.245000", "142536.247000", "142536.250000", "142536.252000", "142536.255000", "142536.258000", "142536.260000", "142536.263000", "142616.179000", "142616.182000", "142616.185000", "142616.187000", "142616.190000", "142616.192000", "142616.195000", "142616.197000", "142616.200000", "142616.202000", "142616.204000", "142616.207000", "142616.209000", "142616.212000", "142616.214000", "142616.217000", "142616.219000", "142616.222000", "142616.224000", "142616.227000", "142616.229000", "142616.232000", "142616.234000", "142616.237000", "142616.239000", "142616.242000", "142616.244000", "142656.207000", "142656.209000", "142656.212000", "142656.215000", "142656.218000", "142656.220000", "142656.223000", "142656.225000", "142656.227000", "142656.230000", "142656.232000", "142656.235000", "142656.237000", "142656.240000", "142656.243000", "142656.245000", "142656.247000", "142656.250000", "142656.253000", "142656.255000", "142656.258000", "142656.260000", "142656.263000", "142656.265000", "142656.267000", "142656.270000", "142656.272000", "142736.193000", "142736.196000", "142736.210000", "142736.213000", "142736.215000", "142736.218000", "142736.220000", "142736.234000", "142736.237000", "142736.239000", "142736.242000", "142736.245000", "142736.247000", "142736.250000", "142736.253000", "142736.255000", "142736.258000", "142736.260000", "142736.263000", "142736.265000", "142736.268000", "142736.270000", "142736.273000", "142736.275000", "142736.278000", "142736.280000", "142816.215000", "142816.218000", "142816.221000", "142816.223000", "142816.226000", "142816.228000", "142816.231000", "142816.233000", "142816.236000", "142816.238000", "142816.241000", "142816.243000", "142816.246000", "142816.248000", "142816.251000", "142816.253000", "142816.256000", "142816.259000", "142816.262000", "142816.264000", "142816.267000", "142816.270000", "142816.272000", "142816.275000", "142816.277000", "142816.280000", "142816.282000", "142856.191000", "142856.194000", "142856.196000", "142856.199000", "142856.201000", "142856.204000", "142856.206000", "142856.209000", "142856.211000", "142856.214000", "142856.216000", "142856.219000", "142856.221000", "142856.224000", "142856.227000", "142856.229000", "142856.232000", "142856.234000", "142856.237000", "142856.239000", "142856.242000", "142856.244000", "142856.247000", "142856.249000", "142856.252000", "142856.254000", "142856.256000", "142936.178000", "142936.181000", "142936.184000", "142936.186000", "142936.189000", "142936.191000", "142936.194000", "142936.196000", "142936.199000", "142936.201000", "142936.204000", "142936.206000", "142936.209000", "142936.211000", "142936.214000", "142936.216000", "142936.219000", "142936.221000", "142936.233000", "142936.235000", "142936.238000", "142936.240000", "142936.243000", "142936.245000", "142936.248000", "142936.250000", "142936.253000", "143016.200000", "143016.203000", "143016.205000", "143016.208000", "143016.210000", "143016.213000", "143016.215000", "143016.218000", "143016.220000", "143016.223000", "143016.225000", "143016.228000", "143016.230000", "143016.233000", "143016.235000", "143016.238000", "143016.240000", "143016.243000", "143016.245000", "143016.248000", "143016.250000", "143016.253000", "143016.255000", "143016.258000", "143016.260000", "143016.263000", "143016.265000", "143056.194000", "143056.197000", "143056.199000", "143056.202000", "143056.204000", "143056.207000", "143056.209000", "143056.212000", "143056.214000", "143056.217000", "143056.219000", "143056.221000", "143056.224000", "143056.226000", "143056.229000", "143056.231000", "143056.234000", "143056.236000", "143056.239000", "143056.241000", "143056.244000", "143056.246000", "143056.249000", "143056.251000", "143056.254000", "143056.256000", "143056.259000", "143136.191000", "143136.194000", "143136.196000", "143136.199000", "143136.201000", "143136.204000", "143136.206000", "143136.209000", "143136.211000", "143136.214000", "143136.216000", "143136.219000", "143136.221000", "143136.224000", "143136.226000", "143136.229000", "143136.232000", "143136.234000", "143136.237000", "143136.239000", "143136.242000", "143136.244000", "143136.247000", "143136.250000", "143136.252000", "143136.255000", "143141.290000", "143141.293000", "143141.296000", "143141.298000"],
