{
  "AcquisitionMatrixPE": 104,
  "AcquisitionNumber": 1,
  "AcquisitionTime": "11:08:55.465000",
  "BandwidthPerPixelPhaseEncode": 17.17,
  "BaseResolution": 104,
  "BodyPartExamined": "BRAIN",
  "CoilCombinationMethod": "Sum of Squares",
  "ConsistencyInfo": "N4_VE11C_LATEST_20160120",
  "ConversionSoftware": "dcm2niix",
  "ConversionSoftwareVersion": "v1.0.20211006",
  "DerivedVendorReportedEchoSpacing": 0.000560011,
  "DeviceSerialNumber": "167006",
  "DwellTime": 2.1e-06,
  "EchoTime": 0.037,
  "EchoTime1": 0.037,
  "EchoTime2": 0.001,
  "EchoTrainLength": 104,
  "EffectiveEchoSpacing": 0.000560011,
  "FlipAngle": 52,
  "HeudiconvVersion": "0.11.3.post9+gc939bf8",
  "ImageComments": "Unaliased MB4/PE3/LB",
  "ImageOrientationPatientDICOM": [0.998786, 0.0130372, 0.0474939, 0.0149928, 0.838076, -0.545347],
  "ImageOrientationText": "Tra>Cor(-33.1)>Sag(2.7)",
  "ImageType": [
    "ORIGINAL",
    "PRIMARY",
    "P",
    "MB",
    "ND",
    "MOSAIC",
    "PHASE"
],
  "ImagingFrequency": 123.259,
  "InPlanePhaseEncodingDirectionDICOM": "COL",
  "InstitutionAddress": "Chemin Queen-Mary 4565,Montreal,District,CA,H3W 1W5",
  "InstitutionName": "IUGM",
  "InstitutionalDepartmentName": "Department",
  "MRAcquisitionType": "2D",
  "MagneticFieldStrength": 3,
  "Manufacturer": "Siemens",
  "ManufacturersModelName": "Prisma_fit",
  "MatrixCoilMode": "SENSE",
  "Modality": "MR",
  "MultibandAccelerationFactor": 4,
  "PartialFourier": 1,
  "PatientPosition": "HFS",
  "PercentPhaseFOV": 100,
  "PercentSampling": 100,
  "PhaseEncodingDirection": "j",
  "PhaseEncodingSteps": 104,
  "PhaseResolution": 1,
  "PixelBandwidth": 2290,
  "ProcedureStepDescription": "games^mario",
  "ProtocolName": "func_task-mariostars_run-02",
  "PulseSequenceDetails": "%CustomerSeq%\\cmrr_mbep2d_bold",
  "ReceiveCoilActiveElements": "HC1-7;NC1,2",
  "ReceiveCoilName": "HeadNeck_64",
  "ReconMatrixPE": 104,
  "RepetitionTime": 1.49,
  "SAR": 0.048278,
  "ScanOptions": "FS",
  "ScanningSequence": "EP",
  "SequenceName": "epfid2d1_104",
  "SequenceVariant": "SK\\SS",
  "SeriesDescription": "func_task-mariostars_run-02",
  "SeriesNumber": 14,
  "ShimSetting": [625, -7173, -8865, 284, -28, -155, -49, -13],
  "SliceThickness": 2,
  "SliceTiming": [0, 0.785, 0.0975, 0.8825, 0.1975, 0.98, 0.295, 1.0775, 0.3925, 1.175, 0.49, 1.275, 0.5875, 1.3725, 0.685, 0, 0.785, 0.0975, 0.8825, 0.1975, 0.98, 0.295, 1.0775, 0.3925, 1.175, 0.49, 1.275, 0.5875, 1.3725, 0.685, 0, 0.785, 0.0975, 0.8825, 0.1975, 0.98, 0.295, 1.0775, 0.3925, 1.175, 0.49, 1.275, 0.5875, 1.3725, 0.685, 0, 0.785, 0.0975, 0.8825, 0.1975, 0.98, 0.295, 1.0775, 0.3925, 1.175, 0.49, 1.275, 0.5875, 1.3725, 0.685],
  "SoftwareVersions": "syngo MR E11",
  "SpacingBetweenSlices": 2,
  "StationName": "MRC35049",
  "TaskName": "mariostars",
  "TotalReadoutTime": 0.0576811,
  "TxRefAmp": 270.12,
  "WipMemBlock": "fd5949e3-27d8-45e3-85e8-5d2cd9a84eaf||Sequence: R016 ve11c/master r/e634e98; Dec 19 2017 11:00:25 by eja",
  "dcmmeta_affine": [
    [-1.997572898864746, 0.029985500499606133, 0.09382659196853638, 103.01505279541016],
    [-0.026074323803186417, 1.676151990890503, -1.0907953977584839, -45.9734001159668],
    [0.09498783946037292, 1.0906949043273926, 1.673727035522461, -93.65472412109375],
    [0.0, 0.0, 0.0, 1.0]
],
  "dcmmeta_reorient_transform": [
    [0.0, -1.0, 0.0, 103.0],
    [1.0, 0.0, 0.0, 0.0],
    [0.0, 0.0, 1.0, 0.0],
    [0.0, 0.0, 0.0, 1.0]
],
  "dcmmeta_shape": [104, 104, 60, 500],
  "dcmmeta_slice_dim": 2,
  "dcmmeta_version": 0.6,
  "global": {
    "const": {
      "AcquisitionMatrix": [104, 0, 0, 104],
      "AngioFlag": "N",
      "BitsAllocated": 16,
      "BitsStored": 16,
      "BodyPartExamined": "BRAIN",
      "Columns": 832,
      "EchoNumbers": 1,
      "EchoTime": 37.0,
      "EchoTrainLength": 104,
      "FlipAngle": 52.0,
      "HighBit": 15,
      "ImageOrientationPatient": [0.99878644366185, 0.01303716174721, 0.0474939193043, 0.01499274994834, 0.83807599734293, -0.5453474489962],
      "ImagePositionPatient": [-844.13481469413, -746.28063597286, 381.1242166597],
      "ImageType": [
        "ORIGINAL",
        "PRIMARY",
        "P",
        "MB",
        "ND",
        "MOSAIC"
],
      "ImagedNucleus": "1H",
      "ImagingFrequency": 123.258826,
      "InPlanePhaseEncodingDirection": "COL",
      "LargestImagePixelValue": 4095,
      "MRAcquisitionType": "2D",
      "MagneticFieldStrength": 3.0,
      "Manufacturer": "SIEMENS",
      "ManufacturerModelName": "Prisma_fit",
      "Modality": "MR",
      "NumberOfAverages": 1.0,
      "NumberOfPhaseEncodingSteps": 104,
      "PercentPhaseFieldOfView": 100.0,
      "PercentSampling": 100.0,
      "PerformedProcedureStepStartTime": "102644.197000",
      "PhotometricInterpretation": "MONOCHROME2",
      "PixelBandwidth": 2290.0,
      "PixelRepresentation": 0,
      "PixelSpacing": [2.0, 2.0],
      "ProtocolName": "func_task-mariostars_run-02",
      "RepetitionTime": 1490.0,
      "RescaleIntercept": -4096.0,
      "RescaleSlope": 2.0,
      "RescaleType": "US",
      "Rows": 832,
      "SAR": 0.04827796373736,
      "SamplesPerPixel": 1,
      "ScanOptions": "FS",
      "ScanningSequence": "EP",
      "SequenceName": "epfid2d1_104",
      "SequenceVariant": [
        "SK",
        "SS"
],
      "SeriesDescription": "func_task-mariostars_run-02",
      "SeriesNumber": 14,
      "SeriesTime": "110953.712000",
      "SliceLocation": -48.469659064545,
      "SliceThickness": 2.0,
      "SmallestImagePixelValue": 0,
      "SoftwareVersions": "syngo MR E11",
      "SpacingBetweenSlices": 2.0000000201829,
      "SpecificCharacterSet": "ISO_IR 100",
      "StudyID": "1",
      "StudyTime": "102644.128000",
      "TransmitCoilName": "Body",
      "VariableFlipAngleFlag": "N",
      "WindowCenterWidthExplanation": "Algo1",
      "dBdt": 0.0},
    "slices": {}
  },
  "time": {
    "samples": {
      "AcquisitionNumber": [1, 2, 3, 4, 5, 6, 7, 8, 9, 10, 11, 12, 13, 14, 15, 16, 17, 18, 19, 20, 21, 22, 23, 24, 25, 26, 27, 28, 29, 30, 31, 32, 33, 34, 35, 36, 37, 38, 39, 40, 41, 42, 43, 44, 45, 46, 47, 48, 49, 50, 51, 52, 53, 54, 55, 56, 57, 58, 59, 60, 61, 62, 63, 64, 65, 66, 67, 68, 69, 70, 71, 72, 73, 74, 75, 76, 77, 78, 79, 80, 81, 82, 83, 84, 85, 86, 87, 88, 89, 90, 91, 92, 93, 94, 95, 96, 97, 98, 99, 100, 101, 102, 103, 104, 105, 106, 107, 108, 109, 110, 111, 112, 113, 114, 115, 116, 117, 118, 119, 120, 121, 122, 123, 124, 125, 126, 127, 128, 129, 130, 131, 132, 133, 134, 135, 136, 137, 138, 139, 140, 141, 142, 143, 144, 145, 146, 147, 148, 149, 150, 151, 152, 153, 154, 155, 156, 157, 158, 159, 160, 161, 162, 163, 164, 165, 166, 167, 168, 169, 170, 171, 172, 173, 174, 175, 176, 177, 178, 179, 180, 181, 182, 183, 184, 185, 186, 187, 188, 189, 190, 191, 192, 193, 194, 195, 196, 197, 198, 199, 200, 201, 202, 203, 204, 205, 206, 207, 208, 209, 210, 211, 212, 213, 214, 215, 216, 217, 218, 219, 220, 221, 222, 223, 224, 225, 226, 227, 228, 229, 230, 231, 232, 233, 234, 235, 236, 237, 238, 239, 240, 241, 242, 243, 244, 245, 246, 247, 248, 249, 250, 251, 252, 253, 254, 255, 256, 257, 258, 259, 260, 261, 262, 263, 264, 265, 266, 267, 268, 269, 270, 271, 272, 273, 274, 275, 276, 277, 278, 279, 280, 281, 282, 283, 284, 285, 286, 287, 288, 289, 290, 291, 292, 293, 294, 295, 296, 297, 298, 299, 300, 301, 302, 303, 304, 305, 306, 307, 308, 309, 310, 311, 312, 313, 314, 315, 316, 317, 318, 319, 320, 321, 322, 323, 324, 325, 326, 327, 328, 329, 330, 331, 332, 333, 334, 335, 336, 337, 338, 339, 340, 341, 342, 343, 344, 345, 346, 347, 348, 349, 350, 351, 352, 353, 354, 355, 356, 357, 358, 359, 360, 361, 362, 363, 364, 365, 366, 367, 368, 369, 370, 371, 372, 373, 374, 375, 376, 377, 378, 379, 380, 381, 382, 383, 384, 385, 386, 387, 388, 389, 390, 391, 392, 393, 394, 395, 396, 397, 398, 399, 400, 401, 402, 403, 404, 405, 406, 407, 408, 409, 410, 411, 412, 413, 414, 415, 416, 417, 418, 419, 420, 421, 422, 423, 424, 425, 426, 427, 428, 429, 430, 431, 432, 433, 434, 435, 436, 437, 438, 439, 440, 441, 442, 443, 444, 445, 446, 447, 448, 449, 450, 451, 452, 453, 454, 455, 456, 457, 458, 459, 460, 461, 462, 463, 464, 465, 466, 467, 468, 469, 470, 471, 472, 473, 474, 475, 476, 477, 478, 479, 480, 481, 482, 483, 484, 485, 486, 487, 488, 489, 490, 491, 492, 493, 494, 495, 496, 497, 498, 499, 500],
      "AcquisitionTime": ["110855.465000", "110856.955000", "110858.445000", "110859.935000", "110901.425000", "110902.915000", "110904.405000", "110905.895000", "110907.385000", "110908.875000", "110910.365000", "110911.855000", "110913.345000", "110914.835000", "110916.325000", "110917.815000", "110919.305000", "110920.795000", "110922.285000", "110923.775000", "110925.265000", "110926.755000", "110928.245000", "110929.735000", "110931.225000", "110932.715000", "110934.205000", "110935.695000", "110937.185000", "110938.675000", "110940.165000", "110941.655000", "110943.145000", "110944.635000", "110946.125000", "110947.615000", "110949.105000", "110950.595000", "110952.085000", "110953.575000", "110955.065000", "110956.555000", "110958.045000", "110959.535000", "111001.025000", "111002.515000", "111004.005000", "111005.495000", "111006.985000", "111008.475000", "111009.965000", "111011.455000", "111012.945000", "111014.435000", "111015.925000", "111017.415000", "111018.905000", "111020.395000", "111021.885000", "111023.375000", "111024.865000", "111026.355000", "111027.845000", "111029.335000", "111030.825000", "111032.315000", "111033.805000", "111035.295000", "111036.785000", "111038.275000", "111039.765000", "111041.255000", "111042.745000", "111044.235000", "111045.725000", "111047.215000", "111048.705000", "111050.195000", "111051.685000", "111053.175000", "111054.665000", "111056.155000", "111057.645000", "111059.135000", "111100.625000", "111102.115000", "111103.605000", "111105.095000", "111106.585000", "111108.075000", "111109.565000", "111111.055000", "111112.545000", "111114.035000", "111115.525000", "111117.015000", "111118.505000", "111119.995000", "111121.485000", "111122.975000", "111124.465000", "111125.955000", "111127.445000", "111128.935000", "111130.425000", "111131.915000", "111133.405000", "111134.895000", "111136.385000", "111137.875000", "111139.365000", "111140.855000", "111142.345000", "111143.835000", "111145.325000", "111146.815000", "111148.305000", "111149.795000", "111151.285000", "111152.775000", "111154.265000", "111155.755000", "111157.245000", "111158.735000", "111200.225000", "111201.715000", "111203.205000", "111204.695000", "111206.185000", "111207.675000", "111209.165000", "111210.655000", "111212.145000", "111213.635000", "111215.125000", "111216.615000", "111218.105000", "111219.595000", "111221.085000", "111222.575000", "111224.065000", "111225.555000", "111227.045000", "111228.535000", "111230.025000", "111231.515000", "111233.005000", "111234.495000", "111235.985000", "111237.475000", "111238.965000", "111240.455000", "111241.945000", "111243.435000", "111244.925000", "111246.415000", "111247.905000", "111249.395000", "111250.885000", "111252.375000", "111253.865000", "111255.355000", "111256.845000", "111258.335000", "111259.825000", "111301.315000", "111302.805000", "111304.295000", "111305.785000", "111307.275000", "111308.765000", "111310.255000", "111311.745000", "111313.235000", "111314.725000", "111316.215000", "111317.705000", "111319.195000", "111320.685000", "111322.175000", "111323.665000", "111325.155000", "111326.645000", "111328.135000", "111329.625000", "111331.115000", "111332.605000", "111334.095000", "111335.585000", "111337.075000", "111338.565000", "111340.055000", "111341.545000", "111343.035000", "111344.525000", "111346.015000", "111347.505000", "111348.995000", "111350.485000", "111351.975000", "111353.465000", "111354.955000", "111356.445000", "111357.935000", "111359.425000", "111400.915000", "111402.405000", "111403.895000", "111405.385000", "111406.875000", "111408.365000", "111409.855000", "111411.345000", "111412.835000", "111414.325000", "111415.815000", "111417.305000", "111418.795000", "111420.285000", "111421.775000", "111423.265000", "111424.755000", "111426.245000", "111427.735000", "111429.225000", "111430.715000", "111432.205000", "111433.695000", "111435.185000", "111436.675000", "111438.165000", "111439.655000", "111441.145000", "111442.635000", "111444.125000", "111445.615000", "111447.105000", "111448.595000", "111450.085000", "111451.575000", "111453.065000", "111454.555000", "111456.045000", "111457.535000", "111459.025000", "111500.515000", "111502.005000", "111503.495000", "111504.985000", "111506.475000", "111507.965000", "111509.455000", "111510.945000", "111512.435000", "111513.925000", "111515.415000", "111516.905000", "111518.395000", "111519.885000", "111521.375000", "111522.865000", "111524.355000", "111525.845000", "111527.335000", "111528.825000", "111530.315000", "111531.805000", "111533.295000", "111534.785000", "111536.275000", "111537.765000", "111539.255000", "111540.745000", "111542.235000", "111543.725000", "111545.215000", "111546.705000", "111548.195000", "111549.685000", "111551.175000", "111552.665000", "111554.155000", "111555.645000", "111557.135000", "111558.625000", "111600.115000", "111601.605000", "111603.095000", "111604.585000", "111606.075000", "111607.565000", "111609.055000", "111610.545000", "111612.035000", "111613.525000", "111615.015000", "111616.505000", "111617.995000", "111619.485000", "111620.975000", "111622.465000", "111623.955000", "111625.445000", "111626.935000", "111628.425000", "111629.915000", "111631.405000", "111632.895000", "111634.385000", "111635.875000", "111637.365000", "111638.855000", "111640.345000", "111641.835000", "111643.325000", "111644.815000", "111646.305000", "111647.795000", "111649.285000", "111650.775000", "111652.265000", "111653.755000", "111655.245000", "111656.735000", "111658.225000", "111659.715000", "111701.205000", "111702.695000", "111704.185000", "111705.675000", "111707.165000", "111708.655000", "111710.145000", "111711.635000", "111713.125000", "111714.615000", "111716.105000", "111717.595000", "111719.085000", "111720.575000", "111722.065000", "111723.555000", "111725.045000", "111726.535000", "111728.025000", "111729.515000", "111731.005000", "111732.495000", "111733.985000", "111735.475000", "111736.965000", "111738.455000", "111739.945000", "111741.435000", "111742.925000", "111744.415000", "111745.905000", "111747.395000", "111748.885000", "111750.375000", "111751.865000", "111753.355000", "111754.845000", "111756.335000", "111757.825000", "111759.315000", "111800.805000", "111802.295000", "111803.785000", "111805.275000", "111806.765000", "111808.255000", "111809.745000", "111811.235000", "111812.725000", "111814.215000", "111815.705000", "111817.195000", "111818.685000", "111820.175000", "111821.665000", "111823.155000", "111824.645000", "111826.135000", "111827.625000", "111829.115000", "111830.605000", "111832.095000", "111833.585000", "111835.075000", "111836.565000", "111838.055000", "111839.545000", "111841.035000", "111842.525000", "111844.015000", "111845.505000", "111846.995000", "111848.485000", "111849.975000", "111851.465000", "111852.955000", "111854.445000", "111855.935000", "111857.425000", "111858.915000", "111900.405000", "111901.895000", "111903.385000", "111904.875000", "111906.365000", "111907.855000", "111909.345000", "111910.835000", "111912.325000", "111913.815000", "111915.305000", "111916.795000", "111918.285000", "111919.775000", "111921.265000", "111922.755000", "111924.245000", "111925.735000", "111927.225000", "111928.715000", "111930.205000", "111931.695000", "111933.185000", "111934.675000", "111936.165000", "111937.655000", "111939.145000", "111940.635000", "111942.125000", "111943.615000", "111945.105000", "111946.595000", "111948.085000", "111949.575000", "111951.065000", "111952.555000", "111954.045000", "111955.535000", "111957.025000", "111958.515000", "112000.005000", "112001.495000", "112002.985000", "112004.475000", "112005.965000", "112007.455000", "112008.945000", "112010.435000", "112011.925000", "112013.415000", "112014.905000", "112016.395000", "112017.885000", "112019.375000", "112020.865000", "112022.355000", "112023.845000", "112025.335000", "112026.825000", "112028.315000", "112029.805000", "112031.295000", "112032.785000", "112034.275000", "112035.765000", "112037.255000", "112038.745000", "112040.235000", "112041.725000", "112043.215000", "112044.705000", "112046.195000", "112047.685000", "112049.175000", "112050.665000", "112052.155000", "112053.645000", "112055.135000", "112056.625000", "112058.115000", "112059.605000", "112101.095000", "112102.585000", "112104.075000", "112105.565000", "112107.055000", "112108.545000", "112110.035000", "112111.525000", "112113.015000", "112114.505000", "112115.995000", "112117.485000", "112118.975000"],
      "ContentTime": ["110953.714000", "110953.717000", "110953.720000", "111014.151000", "111014.154000", "111014.156000", "111014.159000", "111014.162000", "111014.164000", "111014.167000", "111014.169000", "111014.171000", "111014.174000", "111014.176000", "111014.179000", "111014.181000", "111014.184000", "111014.186000", "111014.189000", "111014.191000", "111014.194000", "111014.196000", "111014.199000", "111033.772000", "111033.775000", "111033.778000", "111033.780000", "111033.783000", "111033.785000", "111033.788000", "111033.790000", "111033.793000", "111033.795000", "111033.798000", "111033.800000", "111033.803000", "111033.810000", "111033.813000", "111033.815000", "111033.818000", "111033.820000", "111033.823000", "111033.825000", "111053.754000", "111053.757000", "111053.760000", "111053.763000", "111053.766000", "111053.769000", "111053.771000", "111053.774000", "111053.777000", "111053.780000", "111053.784000", "111053.786000", "111053.789000", "111053.791000", "111053.794000", "111053.797000", "111053.800000", "111053.803000", "111053.805000", "111053.808000", "111113.760000", "111113.763000", "111113.765000", "111113.768000", "111113.771000", "111113.773000", "111113.776000", "111113.778000", "111113.781000", "111113.783000", "111113.786000", "111113.788000", "111113.791000", "111113.793000", "111113.796000", "111113.798000", "111113.801000", "111113.803000", "111113.806000", "111113.808000", "111113.811000", "111133.816000", "111133.819000", "111133.821000", "111133.824000", "111133.826000", "111133.829000", "111133.832000", "111133.834000", "111133.836000", "111133.839000", "111133.841000", "111133.844000", "111133.847000", "111133.849000", "111133.852000", "111133.854000", "111133.857000", "111133.859000", "111133.862000", "111133.864000", "111213.795000", "111213.798000", "111213.801000", "111213.803000", "111213.806000", "111213.808000", "111213.811000", "111213.813000", "111213.816000", "111213.818000", "111213.821000", "111213.823000", "111213.826000", "111213.828000", "111213.831000", "111213.833000", "111213.836000", "111213.838000", "111213.841000", "111213.843000", "111213.846000", "111213.848000", "111213.851000", "111213.853000", "111213.856000", "111213.858000", "111213.861000", "111213.863000", "111253.786000", "111253.789000", "111253.791000", "111253.794000", "111253.796000", "111253.799000", "111253.801000", "111253.804000", "111253.806000", "111253.809000", "111253.811000", "111253.814000", "111253.816000", "111253.819000", "111253.821000", "111253.824000", "111253.826000", "111253.829000", "111253.831000", "111253.834000", "111253.836000", "111253.839000", "111253.841000", "111253.844000", "111253.847000", "111253.849000", "111253.852000", "111333.783000", "111333.786000", "111333.788000", "111333.791000", "111333.793000", "111333.796000", "111333.798000", "111333.801000", "111333.803000", "111333.806000", "111333.808000", "111333.811000", "111333.813000", "111333.816000", "111333.819000", "111333.821000", "111333.824000", "111333.826000", "111333.829000", "111333.831000", "111333.834000", "111333.836000", "111333.839000", "111333.841000", "111333.844000", "111333.846000", "111333.849000", "111413.791000", "111413.794000", "111413.796000", "111413.799000", "111413.801000", "111413.804000", "111413.806000", "111413.809000", "111413.811000", "111413.814000", "111413.816000", "111413.819000", "111413.821000", "111413.824000", "111413.826000", "111413.829000", "111413.831000", "111413.834000", "111413.836000", "111413.839000", "111413.841000", "111413.844000", "111413.846000", "111413.849000", "111413.851000", "111413.854000", "111453.781000", "111453.784000", "111453.786000", "111453.789000", "111453.791000", "111453.794000", "111453.796000", "111453.799000", "111453.802000", "111453.804000", "111453.807000", "111453.809000", "111453.812000", "111453.814000", "111453.817000", "111453.819000", "111453.822000", "111453.824000", "111453.827000", "111453.829000", "111453.833000", "111453.835000", "111453.838000", "111453.841000", "111453.843000", "111453.846000", "111453.848000", "111533.794000", "111533.797000", "111533.800000", "111533.802000", "111533.805000", "111533.807000", "111533.810000", "111533.812000", "111533.815000", "111533.817000", "111533.820000", "111533.822000", "111533.825000", "111533.827000", "111533.830000", "111533.832000", "111533.835000", "111533.837000", "111533.840000", "111533.842000", "111533.845000", "111533.847000", "111533.850000", "111533.853000", "111533.855000", "111533.858000", "111533.860000", "111613.792000", "111613.795000", "111613.797000", "111613.800000", "111613.802000", "111613.805000", "111613.807000", "111613.810000", "111613.812000", "111613.815000", "111613.817000", "111613.820000", "111613.822000", "111613.825000", "111613.827000", "111613.830000", "111613.832000", "111613.835000", "111613.838000", "111613.840000", "111613.843000", "111613.845000", "111613.848000", "111613.850000", "111613.853000", "111613.855000", "111613.858000", "111653.789000", "111653.791000", "111653.794000", "111653.796000", "111653.799000", "111653.801000", "111653.804000", "111653.806000", "111653.809000", "111653.811000", "111653.814000", "111653.817000", "111653.819000", "111653.822000", "111653.824000", "111653.827000", "111653.829000", "111653.832000", "111653.834000", "111653.837000", "111653.840000", "111653.842000", "111653.845000", "111653.847000", "111653.850000", "111653.852000", "111653.855000", "111733.790000", "111733.793000", "111733.796000", "111733.798000", "111733.801000", "111733.803000", "111733.806000", "111733.808000", "111733.811000", "111733.813000", "111733.816000", "111733.819000", "111733.821000", "111733.824000", "111733.826000", "111733.829000", "111733.831000", "111733.834000", "111733.836000", "111733.839000", "111733.841000", "111733.844000", "111733.846000", "111733.849000", "111733.851000", "111733.854000", "111733.856000", "111813.794000", "111813.797000", "111813.799000", "111813.802000", "111813.805000", "111813.807000", "111813.810000", "111813.812000", "111813.815000", "111813.817000", "111813.820000", "111813.822000", "111813.825000", "111813.827000", "111813.830000", "111813.832000", "111813.835000", "111813.837000", "111813.840000", "111813.842000", "111813.845000", "111813.847000", "111813.850000", "111813.853000", "111813.855000", "111813.858000", "111853.785000", "111853.788000", "111853.790000", "111853.793000", "111853.795000", "111853.798000", "111853.800000", "111853.803000", "111853.805000", "111853.808000", "111853.810000", "111853.813000", "111853.816000", "111853.818000", "111853.821000", "111853.823000", "111853.826000", "111853.828000", "111853.831000", "111853.834000", "111853.836000", "111853.839000", "111853.841000", "111853.844000", "111853.846000", "111853.849000", "111853.851000", "111913.721000", "111913.724000", "111913.726000", "111913.729000", "111913.731000", "111913.734000", "111913.736000", "111913.739000", "111913.741000", "111913.744000", "111913.746000", "111913.749000", "111913.751000", "111913.754000", "111954.146000", "111954.149000", "111954.151000", "111954.154000", "111954.156000", "111954.159000", "111954.162000", "111954.164000", "111954.167000", "111954.169000", "111954.172000", "111954.174000", "111954.177000", "111954.179000", "111954.182000", "111954.184000", "111954.187000", "111954.189000", "111954.192000", "111954.194000", "111954.197000", "111954.200000", "111954.202000", "111954.205000", "111954.207000", "111954.210000", "111954.212000", "112033.796000", "112033.798000", "112033.801000", "112033.803000", "112033.806000", "112033.808000", "112033.811000", "112033.813000", "112033.816000", "112033.818000", "112033.821000", "112033.824000", "112033.826000", "112033.829000", "112033.831000", "112033.834000", "112033.836000", "112033.839000", "112033.841000", "112033.844000", "112033.846000", "112033.849000", "112033.851000", "112033.854000", "112033.856000", "112033.859000", "112113.792000", "112113.795000", "112113.797000", "112113.800000", "112113.802000", "112113.805000", "112113.807000", "112113.810000", "112113.812000", "112113.815000", "112113.817000", "112113.820000", "112113.822000", "112113.825000", "112113.827000", "112113.830000", "112113.833000", "112113.835000", "112113.838000", "112113.840000", "112113.843000", "112113.845000", "112113.848000", "112113.850000", "112113.853000", "112113.855000", "112113.858000", "112121.933000", "112121.936000", "112121.938000", "112121.941000", "112121.943000", "112121.946000"],
