{
  "AcquisitionMatrixPE": 104,
  "AcquisitionNumber": 1,
  "AcquisitionTime": "11:22:29.407500",
  "BandwidthPerPixelPhaseEncode": 17.17,
  "BaseResolution": 104,
  "BodyPartExamined": "BRAIN",
  "CoilCombinationMethod": "Sum of Squares",
  "ConsistencyInfo": "N4_VE11C_LATEST_20160120",
  "ConversionSoftware": "dcm2niix",
  "ConversionSoftwareVersion": "v1.0.20211006",
  "DerivedVendorReportedEchoSpacing": 0.000560011,
  "DeviceSerialNumber": "167006",
  "DwellTime": 2.1e-06,
  "EchoTime": 0.037,
  "EchoTrainLength": 104,
  "EffectiveEchoSpacing": 0.000560011,
  "FlipAngle": 52,
  "HeudiconvVersion": "0.11.3.post9+gc939bf8",
  "ImageComments": "Unaliased MB4/PE3/LB",
  "ImageOrientationPatientDICOM": [0.998786, 0.0130372, 0.0474939, 0.0149928, 0.838076, -0.545347],
  "ImageOrientationText": "Tra>Cor(-33.1)>Sag(2.7)",
  "ImageType": [
    "ORIGINAL",
    "PRIMARY",
    "M",
    "MB",
    "ND",
    "MOSAIC"
],
  "ImagingFrequency": 123.259,
  "InPlanePhaseEncodingDirectionDICOM": "COL",
  "InstitutionAddress": "Chemin Queen-Mary 4565,Montreal,District,CA,H3W 1W5",
  "InstitutionName": "IUGM",
  "InstitutionalDepartmentName": "Department",
  "MRAcquisitionType": "2D",
  "MagneticFieldStrength": 3,
  "Manufacturer": "Siemens",
  "ManufacturersModelName": "Prisma_fit",
  "MatrixCoilMode": "SENSE",
  "Modality": "MR",
  "MultibandAccelerationFactor": 4,
  "PartialFourier": 1,
  "PatientPosition": "HFS",
  "PercentPhaseFOV": 100,
  "PercentSampling": 100,
  "PhaseEncodingDirection": "j",
  "PhaseEncodingSteps": 104,
  "PhaseResolution": 1,
  "PixelBandwidth": 2290,
  "ProcedureStepDescription": "games^mario",
  "ProtocolName": "func_task-mariostars_run-03",
  "PulseSequenceDetails": "%CustomerSeq%\\cmrr_mbep2d_bold",
  "ReceiveCoilActiveElements": "HC1-7;NC1,2",
  "ReceiveCoilName": "HeadNeck_64",
  "ReconMatrixPE": 104,
  "RepetitionTime": 1.49,
  "SAR": 0.048278,
  "ScanOptions": "FS",
  "ScanningSequence": "EP",
  "SequenceName": "epfid2d1_104",
  "SequenceVariant": "SK\\SS",
  "SeriesDescription": "func_task-mariostars_run-03",
  "SeriesNumber": 16,
  "ShimSetting": [625, -7173, -8865, 284, -28, -155, -49, -13],
  "SliceThickness": 2,
  "SliceTiming": [0, 0.785, 0.0975, 0.8825, 0.195, 0.98, 0.295, 1.0775, 0.3925, 1.175, 0.49, 1.275, 0.5875, 1.3725, 0.685, 0, 0.785, 0.0975, 0.8825, 0.195, 0.98, 0.295, 1.0775, 0.3925, 1.175, 0.49, 1.275, 0.5875, 1.3725, 0.685, 0, 0.785, 0.0975, 0.8825, 0.195, 0.98, 0.295, 1.0775, 0.3925, 1.175, 0.49, 1.275, 0.5875, 1.3725, 0.685, 0, 0.785, 0.0975, 0.8825, 0.195, 0.98, 0.295, 1.0775, 0.3925, 1.175, 0.49, 1.275, 0.5875, 1.3725, 0.685],
  "SoftwareVersions": "syngo MR E11",
  "SpacingBetweenSlices": 2,
  "StationName": "MRC35049",
  "TaskName": "mariostars",
  "TotalReadoutTime": 0.0576811,
  "TxRefAmp": 270.12,
  "WipMemBlock": "94798776-bfce-4cad-98e6-cb7e27d77243||Sequence: R016 ve11c/master r/e634e98; Dec 19 2017 11:00:25 by eja",
  "dcmmeta_affine": [
    [-1.997572898864746, 0.029985500499606133, 0.09382659196853638, 103.01505279541016],
    [-0.026074323803186417, 1.676151990890503, -1.0907953977584839, -45.9734001159668],
    [0.09498783946037292, 1.0906949043273926, 1.673727035522461, -93.65472412109375],
    [0.0, 0.0, 0.0, 1.0]
],
  "dcmmeta_reorient_transform": [
    [0.0, -1.0, 0.0, 103.0],
    [1.0, 0.0, 0.0, 0.0],
    [0.0, 0.0, 1.0, 0.0],
    [0.0, 0.0, 0.0, 1.0]
],
  "dcmmeta_shape": [104, 104, 60, 469],
  "dcmmeta_slice_dim": 2,
  "dcmmeta_version": 0.6,
  "global": {
    "const": {
      "AcquisitionMatrix": [104, 0, 0, 104],
      "AngioFlag": "N",
      "BitsAllocated": 16,
      "BitsStored": 16,
      "BodyPartExamined": "BRAIN",
      "Columns": 832,
      "EchoNumbers": 1,
      "EchoTime": 37.0,
      "EchoTrainLength": 104,
      "FlipAngle": 52.0,
      "HighBit": 15,
      "ImageOrientationPatient": [0.99878644366185, 0.01303716174721, 0.0474939193043, 0.01499274994834, 0.83807599734293, -0.5453474489962],
      "ImagePositionPatient": [-844.13481469413, -746.28063597286, 381.1242166597],
      "ImageType": [
        "ORIGINAL",
        "PRIMARY",
        "M",
        "MB",
        "ND",
        "MOSAIC"
],
      "ImagedNucleus": "1H",
      "ImagingFrequency": 123.258829,
      "InPlanePhaseEncodingDirection": "COL",
      "MRAcquisitionType": "2D",
      "MagneticFieldStrength": 3.0,
      "Manufacturer": "SIEMENS",
      "ManufacturerModelName": "Prisma_fit",
      "Modality": "MR",
      "NumberOfAverages": 1.0,
      "NumberOfPhaseEncodingSteps": 104,
      "PercentPhaseFieldOfView": 100.0,
      "PercentSampling": 100.0,
      "PerformedProcedureStepStartTime": "102644.197000",
      "PhotometricInterpretation": "MONOCHROME2",
      "PixelBandwidth": 2290.0,
      "PixelRepresentation": 0,
      "PixelSpacing": [2.0, 2.0],
      "ProtocolName": "func_task-mariostars_run-03",
      "RepetitionTime": 1490.0,
      "Rows": 832,
      "SAR": 0.04827796373736,
      "SamplesPerPixel": 1,
      "ScanOptions": "FS",
      "ScanningSequence": "EP",
      "SequenceName": "epfid2d1_104",
      "SequenceVariant": [
        "SK",
        "SS"
],
      "SeriesDescription": "func_task-mariostars_run-03",
      "SeriesNumber": 16,
      "SeriesTime": "112353.750000",
      "SliceLocation": -48.469659064545,
      "SliceThickness": 2.0,
      "SmallestImagePixelValue": 0,
      "SoftwareVersions": "syngo MR E11",
      "SpacingBetweenSlices": 2.0000000201829,
      "SpecificCharacterSet": "ISO_IR 100",
      "StudyID": "1",
      "StudyTime": "102644.128000",
      "TransmitCoilName": "Body",
      "VariableFlipAngleFlag": "N",
      "WindowCenterWidthExplanation": "Algo1",
      "dBdt": 0.0},
    "slices": {}
  },
  "time": {
    "samples": {
      "AcquisitionNumber": [1, 2, 3, 4, 5, 6, 7, 8, 9, 10, 11, 12, 13, 14, 15, 16, 17, 18, 19, 20, 21, 22, 23, 24, 25, 26, 27, 28, 29, 30, 31, 32, 33, 34, 35, 36, 37, 38, 39, 40, 41, 42, 43, 44, 45, 46, 47, 48, 49, 50, 51, 52, 53, 54, 55, 56, 57, 58, 59, 60, 61, 62, 63, 64, 65, 66, 67, 68, 69, 70, 71, 72, 73, 74, 75, 76, 77, 78, 79, 80, 81, 82, 83, 84, 85, 86, 87, 88, 89, 90, 91, 92, 93, 94, 95, 96, 97, 98, 99, 100, 101, 102, 103, 104, 105, 106, 107, 108, 109, 110, 111, 112, 113, 114, 115, 116, 117, 118, 119, 120, 121, 122, 123, 124, 125, 126, 127, 128, 129, 130, 131, 132, 133, 134, 135, 136, 137, 138, 139, 140, 141, 142, 143, 144, 145, 146, 147, 148, 149, 150, 151, 152, 153, 154, 155, 156, 157, 158, 159, 160, 161, 162, 163, 164, 165, 166, 167, 168, 169, 170, 171, 172, 173, 174, 175, 176, 177, 178, 179, 180, 181, 182, 183, 184, 185, 186, 187, 188, 189, 190, 191, 192, 193, 194, 195, 196, 197, 198, 199, 200, 201, 202, 203, 204, 205, 206, 207, 208, 209, 210, 211, 212, 213, 214, 215, 216, 217, 218, 219, 220, 221, 222, 223, 224, 225, 226, 227, 228, 229, 230, 231, 232, 233, 234, 235, 236, 237, 238, 239, 240, 241, 242, 243, 244, 245, 246, 247, 248, 249, 250, 251, 252, 253, 254, 255, 256, 257, 258, 259, 260, 261, 262, 263, 264, 265, 266, 267, 268, 269, 270, 271, 272, 273, 274, 275, 276, 277, 278, 279, 280, 281, 282, 283, 284, 285, 286, 287, 288, 289, 290, 291, 292, 293, 294, 295, 296, 297, 298, 299, 300, 301, 302, 303, 304, 305, 306, 307, 308, 309, 310, 311, 312, 313, 314, 315, 316, 317, 318, 319, 320, 321, 322, 323, 324, 325, 326, 327, 328, 329, 330, 331, 332, 333, 334, 335, 336, 337, 338, 339, 340, 341, 342, 343, 344, 345, 346, 347, 348, 349, 350, 351, 352, 353, 354, 355, 356, 357, 358, 359, 360, 361, 362, 363, 364, 365, 366, 367, 368, 369, 370, 371, 372, 373, 374, 375, 376, 377, 378, 379, 380, 381, 382, 383, 384, 385, 386, 387, 388, 389, 390, 391, 392, 393, 394, 395, 396, 397, 398, 399, 400, 401, 402, 403, 404, 405, 406, 407, 408, 409, 410, 411, 412, 413, 414, 415, 416, 417, 418, 419, 420, 421, 422, 423, 424, 425, 426, 427, 428, 429, 430, 431, 432, 433, 434, 435, 436, 437, 438, 439, 440, 441, 442, 443, 444, 445, 446, 447, 448, 449, 450, 451, 452, 453, 454, 455, 456, 457, 458, 459, 460, 461, 462, 463, 464, 465, 466, 467, 468, 469],
      "AcquisitionTime": ["112229.407500", "112230.897500", "112232.387500", "112233.877500", "112235.367500", "112236.857500", "112238.347500", "112239.837500", "112241.327500", "112242.817500", "112244.307500", "112245.797500", "112247.287500", "112248.777500", "112250.267500", "112251.757500", "112253.247500", "112254.737500", "112256.227500", "112257.717500", "112259.207500", "112300.697500", "112302.187500", "112303.677500", "112305.167500", "112306.657500", "112308.147500", "112309.637500", "112311.127500", "112312.617500", "112314.107500", "112315.597500", "112317.087500", "112318.577500", "112320.067500", "112321.557500", "112323.047500", "112324.537500", "112326.027500", "112327.517500", "112329.007500", "112330.497500", "112331.987500", "112333.477500", "112334.967500", "112336.457500", "112337.947500", "112339.437500", "112340.927500", "112342.417500", "112343.907500", "112345.397500", "112346.887500", "112348.377500", "112349.867500", "112351.357500", "112352.847500", "112354.337500", "112355.827500", "112357.317500", "112358.807500", "112400.297500", "112401.787500", "112403.277500", "112404.767500", "112406.257500", "112407.747500", "112409.237500", "112410.727500", "112412.217500", "112413.707500", "112415.197500", "112416.687500", "112418.177500", "112419.667500", "112421.157500", "112422.647500", "112424.137500", "112425.627500", "112427.117500", "112428.607500", "112430.097500", "112431.587500", "112433.077500", "112434.567500", "112436.057500", "112437.547500", "112439.037500", "112440.527500", "112442.017500", "112443.507500", "112444.997500", "112446.487500", "112447.977500", "112449.467500", "112450.957500", "112452.447500", "112453.937500", "112455.427500", "112456.917500", "112458.407500", "112459.897500", "112501.387500", "112502.877500", "112504.367500", "112505.857500", "112507.347500", "112508.837500", "112510.327500", "112511.817500", "112513.307500", "112514.797500", "112516.287500", "112517.777500", "112519.267500", "112520.757500", "112522.247500", "112523.737500", "112525.227500", "112526.717500", "112528.207500", "112529.697500", "112531.187500", "112532.677500", "112534.167500", "112535.657500", "112537.147500", "112538.637500", "112540.127500", "112541.617500", "112543.107500", "112544.597500", "112546.087500", "112547.577500", "112549.067500", "112550.557500", "112552.047500", "112553.537500", "112555.027500", "112556.517500", "112558.007500", "112559.497500", "112600.987500", "112602.477500", "112603.967500", "112605.457500", "112606.947500", "112608.437500", "112609.927500", "112611.417500", "112612.907500", "112614.397500", "112615.887500", "112617.377500", "112618.867500", "112620.357500", "112621.847500", "112623.337500", "112624.827500", "112626.317500", "112627.807500", "112629.297500", "112630.787500", "112632.277500", "112633.767500", "112635.257500", "112636.747500", "112638.237500", "112639.727500", "112641.217500", "112642.707500", "112644.197500", "112645.687500", "112647.177500", "112648.667500", "112650.157500", "112651.647500", "112653.137500", "112654.627500", "112656.117500", "112657.607500", "112659.097500", "112700.587500", "112702.077500", "112703.567500", "112705.057500", "112706.547500", "112708.037500", "112709.527500", "112711.017500", "112712.507500", "112713.997500", "112715.487500", "112716.977500", "112718.467500", "112719.957500", "112721.447500", "112722.937500", "112724.427500", "112725.917500", "112727.407500", "112728.897500", "112730.387500", "112731.877500", "112733.367500", "112734.857500", "112736.347500", "112737.837500", "112739.327500", "112740.817500", "112742.307500", "112743.797500", "112745.287500", "112746.777500", "112748.267500", "112749.757500", "112751.247500", "112752.737500", "112754.227500", "112755.717500", "112757.207500", "112758.697500", "112800.187500", "112801.677500", "112803.167500", "112804.657500", "112806.147500", "112807.637500", "112809.127500", "112810.617500", "112812.107500", "112813.597500", "112815.087500", "112816.577500", "112818.067500", "112819.557500", "112821.047500", "112822.537500", "112824.027500", "112825.517500", "112827.007500", "112828.497500", "112829.987500", "112831.477500", "112832.967500", "112834.457500", "112835.947500", "112837.437500", "112838.927500", "112840.417500", "112841.907500", "112843.397500", "112844.887500", "112846.377500", "112847.867500", "112849.357500", "112850.847500", "112852.337500", "112853.827500", "112855.317500", "112856.807500", "112858.297500", "112859.787500", "112901.277500", "112902.767500", "112904.257500", "112905.747500", "112907.237500", "112908.727500", "112910.217500", "112911.707500", "112913.197500", "112914.687500", "112916.177500", "112917.667500", "112919.157500", "112920.647500", "112922.137500", "112923.627500", "112925.117500", "112926.607500", "112928.097500", "112929.587500", "112931.077500", "112932.567500", "112934.057500", "112935.547500", "112937.037500", "112938.527500", "112940.017500", "112941.507500", "112942.997500", "112944.487500", "112945.977500", "112947.467500", "112948.957500", "112950.447500", "112951.937500", "112953.427500", "112954.917500", "112956.407500", "112957.897500", "112959.387500", "113000.877500", "113002.367500", "113003.857500", "113005.347500", "113006.837500", "113008.327500", "113009.817500", "113011.307500", "113012.797500", "113014.287500", "113015.777500", "113017.267500", "113018.757500", "113020.247500", "113021.737500", "113023.227500", "113024.717500", "113026.207500", "113027.697500", "113029.187500", "113030.677500", "113032.167500", "113033.657500", "113035.147500", "113036.637500", "113038.127500", "113039.617500", "113041.107500", "113042.597500", "113044.087500", "113045.577500", "113047.067500", "113048.557500", "113050.047500", "113051.537500", "113053.027500", "113054.517500", "113056.007500", "113057.497500", "113058.987500", "113100.477500", "113101.967500", "113103.457500", "113104.947500", "113106.437500", "113107.927500", "113109.417500", "113110.907500", "113112.397500", "113113.887500", "113115.377500", "113116.867500", "113118.357500", "113119.847500", "113121.337500", "113122.827500", "113124.317500", "113125.807500", "113127.297500", "113128.787500", "113130.277500", "113131.767500", "113133.257500", "113134.747500", "113136.237500", "113137.727500", "113139.217500", "113140.707500", "113142.197500", "113143.687500", "113145.177500", "113146.667500", "113148.157500", "113149.647500", "113151.137500", "113152.627500", "113154.117500", "113155.607500", "113157.097500", "113158.587500", "113200.077500", "113201.567500", "113203.057500", "113204.547500", "113206.037500", "113207.527500", "113209.017500", "113210.507500", "113211.997500", "113213.487500", "113214.977500", "113216.467500", "113217.957500", "113219.447500", "113220.937500", "113222.427500", "113223.917500", "113225.407500", "113226.897500", "113228.387500", "113229.877500", "113231.367500", "113232.857500", "113234.347500", "113235.837500", "113237.327500", "113238.817500", "113240.307500", "113241.797500", "113243.287500", "113244.777500", "113246.267500", "113247.757500", "113249.247500", "113250.737500", "113252.227500", "113253.717500", "113255.207500", "113256.697500", "113258.187500", "113259.677500", "113301.167500", "113302.657500", "113304.147500", "113305.637500", "113307.127500", "113308.617500", "113310.107500", "113311.597500", "113313.087500", "113314.577500", "113316.067500", "113317.557500", "113319.047500", "113320.537500", "113322.027500", "113323.517500", "113325.007500", "113326.497500", "113327.987500", "113329.477500", "113330.967500", "113332.457500", "113333.947500", "113335.437500", "113336.927500", "113338.417500", "113339.907500", "113341.397500", "113342.887500", "113344.377500", "113345.867500", "113347.357500", "113348.847500", "113350.337500", "113351.827500", "113353.317500", "113354.807500", "113356.297500", "113357.787500", "113359.277500", "113400.767500", "113402.257500", "113403.747500", "113405.237500", "113406.727500"],
      "ContentTime": ["112353.753000", "112353.757000", "112353.760000", "112353.763000", "112353.767000", "112353.770000", "112353.773000", "112353.777000", "112353.780000", "112353.787000", "112353.791000", "112353.794000", "112353.798000", "112353.801000", "112353.804000", "112353.809000", "112353.812000", "112353.816000", "112353.819000", "112353.822000", "112353.825000", "112353.829000", "112353.832000", "112353.836000", "112353.839000", "112353.842000", "112353.845000", "112353.849000", "112353.852000", "112353.855000", "112413.717000", "112413.721000", "112413.724000", "112413.728000", "112413.731000", "112413.734000", "112413.737000", "112413.741000", "112413.744000", "112413.747000", "112413.751000", "112413.754000", "112413.757000", "112413.761000", "112413.764000", "112413.767000", "112413.782000", "112413.785000", "112413.789000", "112413.792000", "112433.717000", "112433.721000", "112433.724000", "112433.728000", "112433.731000", "112433.734000", "112433.737000", "112433.741000", "112433.744000", "112433.747000", "112433.751000", "112433.754000", "112433.757000", "112433.761000", "112433.764000", "112433.767000", "112433.771000", "112433.774000", "112433.777000", "112433.781000", "112453.718000", "112453.722000", "112453.725000", "112453.729000", "112453.732000", "112453.735000", "112453.738000", "112453.742000", "112453.745000", "112453.748000", "112453.752000", "112453.755000", "112453.758000", "112453.762000", "112453.765000", "112453.768000", "112453.772000", "112453.775000", "112453.778000", "112453.782000", "112533.717000", "112533.721000", "112533.724000", "112533.728000", "112533.731000", "112533.734000", "112533.738000", "112533.741000", "112533.744000", "112533.748000", "112533.751000", "112533.755000", "112533.758000", "112533.762000", "112533.765000", "112533.769000", "112533.772000", "112533.776000", "112533.780000", "112533.783000", "112533.786000", "112533.790000", "112533.794000", "112533.798000", "112533.801000", "112533.804000", "112533.808000", "112533.811000", "112533.814000", "112533.818000", "112533.821000", "112533.825000", "112613.717000", "112613.721000", "112613.724000", "112613.728000", "112613.731000", "112613.734000", "112613.738000", "112613.741000", "112613.745000", "112613.748000", "112613.751000", "112613.755000", "112613.758000", "112613.761000", "112613.765000", "112613.768000", "112613.771000", "112613.775000", "112613.778000", "112613.781000", "112613.785000", "112613.788000", "112613.791000", "112613.795000", "112613.798000", "112613.801000", "112613.805000", "112653.717000", "112653.721000", "112653.724000", "112653.728000", "112653.731000", "112653.735000", "112653.738000", "112653.741000", "112653.745000", "112653.748000", "112653.751000", "112653.755000", "112653.758000", "112653.761000", "112653.765000", "112653.768000", "112653.771000", "112653.775000", "112653.778000", "112653.781000", "112653.785000", "112653.788000", "112653.791000", "112653.795000", "112653.798000", "112653.801000", "112653.805000", "112733.717000", "112733.721000", "112733.724000", "112733.728000", "112733.731000", "112733.734000", "112733.738000", "112733.741000", "112733.744000", "112733.748000", "112733.751000", "112733.755000", "112733.758000", "112733.761000", "112733.765000", "112733.768000", "112733.772000", "112733.775000", "112733.778000", "112733.782000", "112733.785000", "112733.788000", "112733.792000", "112733.795000", "112733.798000", "112733.802000", "112733.805000", "112813.717000", "112813.721000", "112813.724000", "112813.728000", "112813.731000", "112813.734000", "112813.738000", "112813.741000", "112813.744000", "112813.748000", "112813.751000", "112813.754000", "112813.758000", "112813.761000", "112813.765000", "112813.768000", "112813.771000", "112813.775000", "112813.778000", "112813.781000", "112813.785000", "112813.788000", "112813.791000", "112813.795000", "112813.798000", "112813.801000", "112813.805000", "112853.717000", "112853.721000", "112853.724000", "112853.728000", "112853.731000", "112853.735000", "112853.738000", "112853.741000", "112853.745000", "112853.748000", "112853.751000", "112853.764000", "112853.767000", "112853.771000", "112853.774000", "112853.777000", "112853.781000", "112853.784000", "112853.788000", "112853.791000", "112853.794000", "112853.798000", "112853.801000", "112853.804000", "112853.807000", "112853.811000", "112853.814000", "112933.719000", "112933.722000", "112933.726000", "112933.729000", "112933.732000", "112933.736000", "112933.739000", "112933.742000", "112933.746000", "112933.749000", "112933.752000", "112933.756000", "112933.759000", "112933.762000", "112933.766000", "112933.769000", "112933.772000", "112933.776000", "112933.779000", "112933.783000", "112933.786000", "112933.789000", "112933.793000", "112933.796000", "112933.799000", "112933.802000", "112933.806000", "113013.717000", "113013.721000", "113013.724000", "113013.728000", "113013.731000", "113013.734000", "113013.738000", "113013.741000", "113013.744000", "113013.748000", "113013.753000", "113013.756000", "113013.760000", "113013.763000", "113013.766000", "113013.770000", "113013.773000", "113013.776000", "113013.780000", "113013.783000", "113013.786000", "113013.790000", "113013.793000", "113013.796000", "113013.800000", "113013.803000", "113053.717000", "113053.721000", "113053.724000", "113053.728000", "113053.731000", "113053.734000", "113053.738000", "113053.741000", "113053.744000", "113053.748000", "113053.751000", "113053.754000", "113053.758000", "113053.761000", "113053.764000", "113053.768000", "113053.771000", "113053.775000", "113053.778000", "113053.781000", "113053.784000", "113053.788000", "113053.791000", "113053.794000", "113053.798000", "113053.801000", "113053.804000", "113133.717000", "113133.721000", "113133.724000", "113133.728000", "113133.731000", "113133.734000", "113133.738000", "113133.741000", "113133.744000", "113133.748000", "113133.751000", "113133.755000", "113133.758000", "113133.761000", "113133.765000", "113133.768000", "113133.771000", "113133.775000", "113133.778000", "113133.782000", "113133.785000", "113133.789000", "113133.792000", "113133.795000", "113133.799000", "113133.802000", "113133.805000", "113213.717000", "113213.721000", "113213.724000", "113213.728000", "113213.731000", "113213.734000", "113213.738000", "113213.741000", "113213.745000", "113213.748000", "113213.751000", "113213.754000", "113213.758000", "113213.761000", "113213.764000", "113213.768000", "113213.771000", "113213.774000", "113213.778000", "113213.781000", "113213.784000", "113213.788000", "113213.791000", "113213.795000", "113213.798000", "113213.801000", "113213.805000", "113253.717000", "113253.721000", "113253.724000", "113253.728000", "113253.731000", "113253.734000", "113253.738000", "113253.741000", "113253.744000", "113253.748000", "113253.751000", "113253.755000", "113253.758000", "113253.761000", "113253.765000", "113253.768000", "113253.771000", "113253.775000", "113253.778000", "113253.781000", "113253.785000", "113253.788000", "113253.791000", "113253.795000", "113253.798000", "113253.801000", "113253.805000", "113333.717000", "113333.721000", "113333.724000", "113333.728000", "113333.746000", "113333.750000", "113333.753000", "113333.757000", "113333.760000", "113333.763000", "113333.767000", "113333.770000", "113333.773000", "113333.777000", "113333.780000", "113333.783000", "113333.787000", "113333.790000", "113333.802000", "113333.805000", "113333.809000", "113333.812000", "113333.815000", "113333.818000", "113333.822000", "113333.825000", "113333.828000", "113409.373000", "113409.376000", "113409.380000", "113409.383000", "113409.386000", "113409.390000", "113409.393000", "113409.397000", "113409.400000", "113409.403000", "113409.407000", "113409.410000", "113409.413000", "113409.417000", "113409.420000", "113409.423000", "113409.427000", "113409.430000", "113409.434000", "113409.437000", "113409.440000", "113409.444000", "113409.447000", "113409.450000"],
