{
  "AcquisitionMatrixPE": 104,
  "AcquisitionNumber": 1,
  "AcquisitionTime": "16:12:47.030000",
  "BandwidthPerPixelPhaseEncode": 17.17,
  "BaseResolution": 104,
  "BodyPartExamined": "BRAIN",
  "CoilCombinationMethod": "Sum of Squares",
  "ConsistencyInfo": "N4_VE11C_LATEST_20160120",
  "ConversionSoftware": "dcm2niix",
  "ConversionSoftwareVersion": "v1.0.20211006",
  "DerivedVendorReportedEchoSpacing": 0.000560011,
  "DeviceSerialNumber": "167006",
  "DwellTime": 2.1e-06,
  "EchoTime": 0.037,
  "EchoTime1": 0.037,
  "EchoTime2": 0.001,
  "EchoTrainLength": 104,
  "EffectiveEchoSpacing": 0.000560011,
  "FlipAngle": 52,
  "HeudiconvVersion": "0.11.3.post9+gc939bf8",
  "ImageComments": "Unaliased MB4/PE3/LB",
  "ImageOrientationPatientDICOM": [0.998237, -0.0585584, 0.00968186, 0.0580825, 0.930202, -0.362423],
  "ImageOrientationText": "Tra>Cor(-21.2)>Sag(-0.7)",
  "ImageType": [
    "ORIGINAL",
    "PRIMARY",
    "P",
    "MB",
    "ND",
    "MOSAIC",
    "PHASE"
],
  "ImagingFrequency": 123.259,
  "InPlanePhaseEncodingDirectionDICOM": "COL",
  "InstitutionAddress": "Chemin Queen-Mary 4565,Montreal,District,CA,H3W 1W5",
  "InstitutionName": "IUGM",
  "InstitutionalDepartmentName": "Department",
  "MRAcquisitionType": "2D",
  "MagneticFieldStrength": 3,
  "Manufacturer": "Siemens",
  "ManufacturersModelName": "Prisma_fit",
  "MatrixCoilMode": "SENSE",
  "Modality": "MR",
  "MultibandAccelerationFactor": 4,
  "PartialFourier": 1,
  "PatientPosition": "HFS",
  "PercentPhaseFOV": 100,
  "PercentSampling": 100,
  "PhaseEncodingDirection": "j",
  "PhaseEncodingSteps": 104,
  "PhaseResolution": 1,
  "PixelBandwidth": 2290,
  "ProcedureStepDescription": "games^mariostars",
  "ProtocolName": "func_task-mariostars_run-02",
  "PulseSequenceDetails": "%CustomerSeq%\\cmrr_mbep2d_bold",
  "ReceiveCoilActiveElements": "HC1-7;NC1,2",
  "ReceiveCoilName": "HeadNeck_64",
  "ReconMatrixPE": 104,
  "RepetitionTime": 1.49,
  "SAR": 0.0476997,
  "ScanOptions": "FS",
  "ScanningSequence": "EP",
  "SequenceName": "epfid2d1_104",
  "SequenceVariant": "SK\\SS",
  "SeriesDescription": "func_task-mariostars_run-02",
  "SeriesNumber": 15,
  "ShimSetting": [619, -7269, -8819, 565, -6, -242, -105, -3],
  "SliceThickness": 2,
  "SliceTiming": [0, 0.785, 0.0975, 0.8825, 0.1975, 0.98, 0.295, 1.0775, 0.3925, 1.1775, 0.49, 1.275, 0.5875, 1.3725, 0.6875, 0, 0.785, 0.0975, 0.8825, 0.1975, 0.98, 0.295, 1.0775, 0.3925, 1.1775, 0.49, 1.275, 0.5875, 1.3725, 0.6875, 0, 0.785, 0.0975, 0.8825, 0.1975, 0.98, 0.295, 1.0775, 0.3925, 1.1775, 0.49, 1.275, 0.5875, 1.3725, 0.6875, 0, 0.785, 0.0975, 0.8825, 0.1975, 0.98, 0.295, 1.0775, 0.3925, 1.1775, 0.49, 1.275, 0.5875, 1.3725, 0.6875],
  "SoftwareVersions": "syngo MR E11",
  "SpacingBetweenSlices": 2,
  "StationName": "MRC35049",
  "TaskName": "mariostars",
  "TotalReadoutTime": 0.0576811,
  "TxRefAmp": 237.242,
  "WipMemBlock": "4357a4ad-5096-4166-90de-d6084ad58839||Sequence: R017 ve11c/master r/75a17815+; Jun 28 2022 16:32:11 by eja",
  "dcmmeta_affine": [
    [-1.996474027633667, 0.1161649078130722, -0.02443358488380909, 101.34481048583984],
    [0.11711674928665161, 1.8604044914245605, -0.724692165851593, -69.48466491699219],
    [0.019363723695278168, 0.7248453497886658, 1.8639271259307861, -66.55307006835938],
    [0.0, 0.0, 0.0, 1.0]
],
  "dcmmeta_reorient_transform": [
    [0.0, -1.0, 0.0, 103.0],
    [1.0, 0.0, 0.0, 0.0],
    [0.0, 0.0, 1.0, 0.0],
    [0.0, 0.0, 0.0, 1.0]
],
  "dcmmeta_shape": [104, 104, 60, 458],
  "dcmmeta_slice_dim": 2,
  "dcmmeta_version": 0.6,
  "global": {
    "const": {
      "AcquisitionMatrix": [104, 0, 0, 104],
      "AngioFlag": "N",
      "BitsAllocated": 16,
      "BitsStored": 16,
      "BodyPartExamined": "BRAIN",
      "Columns": 832,
      "EchoNumbers": 1,
      "EchoTime": 37.0,
      "EchoTrainLength": 104,
      "FlipAngle": 52.0,
      "HighBit": 15,
      "ImageOrientationPatient": [0.99823703518508, -0.0585583737017, 0.00968186213065, 0.05808245490344, 0.93020225407107, -0.3624226744472],
      "ImagePositionPatient": [-882.31038643045, -756.69374667532, 264.90131150536],
      "ImageType": [
        "ORIGINAL",
        "PRIMARY",
        "P",
        "MB",
        "ND",
        "MOSAIC"
],
      "ImagedNucleus": "1H",
      "ImagingFrequency": 123.258784,
      "InPlanePhaseEncodingDirection": "COL",
      "LargestImagePixelValue": 4095,
      "MRAcquisitionType": "2D",
      "MagneticFieldStrength": 3.0,
      "Manufacturer": "SIEMENS",
      "ManufacturerModelName": "Prisma_fit",
      "Modality": "MR",
      "NumberOfAverages": 1.0,
      "NumberOfPhaseEncodingSteps": 104,
      "PercentPhaseFieldOfView": 100.0,
      "PercentSampling": 100.0,
      "PerformedProcedureStepStartTime": "154508.522000",
      "PhotometricInterpretation": "MONOCHROME2",
      "PixelBandwidth": 2290.0,
      "PixelRepresentation": 0,
      "PixelSpacing": [2.0, 2.0],
      "ProtocolName": "func_task-mariostars_run-02",
      "RepetitionTime": 1490.0,
      "RescaleIntercept": -4096.0,
      "RescaleSlope": 2.0,
      "RescaleType": "US",
      "Rows": 832,
      "SAR": 0.04769965446543,
      "SamplesPerPixel": 1,
      "ScanOptions": "FS",
      "ScanningSequence": "EP",
      "SequenceName": "epfid2d1_104",
      "SequenceVariant": [
        "SK",
        "SS"
],
      "SeriesDescription": "func_task-mariostars_run-02",
      "SeriesNumber": 15,
      "SeriesTime": "161339.902000",
      "SliceLocation": -38.085649676789,
      "SliceThickness": 2.0,
      "SmallestImagePixelValue": 0,
      "SoftwareVersions": "syngo MR E11",
      "SpacingBetweenSlices": 2.0000000080947,
      "SpecificCharacterSet": "ISO_IR 100",
      "StudyID": "1",
      "StudyTime": "154508.452000",
      "TransmitCoilName": "Body",
      "VariableFlipAngleFlag": "N",
      "WindowCenterWidthExplanation": "Algo1",
      "dBdt": 0.0},
    "slices": {}
  },
  "time": {
    "samples": {
      "AcquisitionNumber": [1, 2, 3, 4, 5, 6, 7, 8, 9, 10, 11, 12, 13, 14, 15, 16, 17, 18, 19, 20, 21, 22, 23, 24, 25, 26, 27, 28, 29, 30, 31, 32, 33, 34, 35, 36, 37, 38, 39, 40, 41, 42, 43, 44, 45, 46, 47, 48, 49, 50, 51, 52, 53, 54, 55, 56, 57, 58, 59, 60, 61, 62, 63, 64, 65, 66, 67, 68, 69, 70, 71, 72, 73, 74, 75, 76, 77, 78, 79, 80, 81, 82, 83, 84, 85, 86, 87, 88, 89, 90, 91, 92, 93, 94, 95, 96, 97, 98, 99, 100, 101, 102, 103, 104, 105, 106, 107, 108, 109, 110, 111, 112, 113, 114, 115, 116, 117, 118, 119, 120, 121, 122, 123, 124, 125, 126, 127, 128, 129, 130, 131, 132, 133, 134, 135, 136, 137, 138, 139, 140, 141, 142, 143, 144, 145, 146, 147, 148, 149, 150, 151, 152, 153, 154, 155, 156, 157, 158, 159, 160, 161, 162, 163, 164, 165, 166, 167, 168, 169, 170, 171, 172, 173, 174, 175, 176, 177, 178, 179, 180, 181, 182, 183, 184, 185, 186, 187, 188, 189, 190, 191, 192, 193, 194, 195, 196, 197, 198, 199, 200, 201, 202, 203, 204, 205, 206, 207, 208, 209, 210, 211, 212, 213, 214, 215, 216, 217, 218, 219, 220, 221, 222, 223, 224, 225, 226, 227, 228, 229, 230, 231, 232, 233, 234, 235, 236, 237, 238, 239, 240, 241, 242, 243, 244, 245, 246, 247, 248, 249, 250, 251, 252, 253, 254, 255, 256, 257, 258, 259, 260, 261, 262, 263, 264, 265, 266, 267, 268, 269, 270, 271, 272, 273, 274, 275, 276, 277, 278, 279, 280, 281, 282, 283, 284, 285, 286, 287, 288, 289, 290, 291, 292, 293, 294, 295, 296, 297, 298, 299, 300, 301, 302, 303, 304, 305, 306, 307, 308, 309, 310, 311, 312, 313, 314, 315, 316, 317, 318, 319, 320, 321, 322, 323, 324, 325, 326, 327, 328, 329, 330, 331, 332, 333, 334, 335, 336, 337, 338, 339, 340, 341, 342, 343, 344, 345, 346, 347, 348, 349, 350, 351, 352, 353, 354, 355, 356, 357, 358, 359, 360, 361, 362, 363, 364, 365, 366, 367, 368, 369, 370, 371, 372, 373, 374, 375, 376, 377, 378, 379, 380, 381, 382, 383, 384, 385, 386, 387, 388, 389, 390, 391, 392, 393, 394, 395, 396, 397, 398, 399, 400, 401, 402, 403, 404, 405, 406, 407, 408, 409, 410, 411, 412, 413, 414, 415, 416, 417, 418, 419, 420, 421, 422, 423, 424, 425, 426, 427, 428, 429, 430, 431, 432, 433, 434, 435, 436, 437, 438, 439, 440, 441, 442, 443, 444, 445, 446, 447, 448, 449, 450, 451, 452, 453, 454, 455, 456, 457, 458],
      "AcquisitionTime": ["161247.030000", "161248.520000", "161250.010000", "161251.500000", "161252.990000", "161254.480000", "161255.970000", "161257.460000", "161258.950000", "161300.440000", "161301.930000", "161303.420000", "161304.910000", "161306.400000", "161307.890000", "161309.380000", "161310.870000", "161312.360000", "161313.850000", "161315.340000", "161316.830000", "161318.320000", "161319.810000", "161321.300000", "161322.790000", "161324.280000", "161325.770000", "161327.260000", "161328.750000", "161330.240000", "161331.730000", "161333.220000", "161334.710000", "161336.200000", "161337.690000", "161339.180000", "161340.670000", "161342.160000", "161343.650000", "161345.140000", "161346.630000", "161348.120000", "161349.610000", "161351.100000", "161352.590000", "161354.080000", "161355.570000", "161357.060000", "161358.550000", "161400.040000", "161401.530000", "161403.020000", "161404.510000", "161406.000000", "161407.490000", "161408.980000", "161410.470000", "161411.960000", "161413.450000", "161414.940000", "161416.430000", "161417.920000", "161419.410000", "161420.900000", "161422.390000", "161423.880000", "161425.370000", "161426.860000", "161428.350000", "161429.840000", "161431.330000", "161432.820000", "161434.310000", "161435.800000", "161437.290000", "161438.780000", "161440.270000", "161441.760000", "161443.250000", "161444.740000", "161446.230000", "161447.720000", "161449.210000", "161450.700000", "161452.190000", "161453.680000", "161455.170000", "161456.660000", "161458.150000", "161459.640000", "161501.130000", "161502.620000", "161504.110000", "161505.600000", "161507.090000", "161508.580000", "161510.070000", "161511.560000", "161513.050000", "161514.540000", "161516.030000", "161517.520000", "161519.010000", "161520.500000", "161521.990000", "161523.480000", "161524.970000", "161526.460000", "161527.950000", "161529.440000", "161530.930000", "161532.420000", "161533.910000", "161535.400000", "161536.890000", "161538.380000", "161539.870000", "161541.360000", "161542.850000", "161544.340000", "161545.830000", "161547.320000", "161548.810000", "161550.300000", "161551.790000", "161553.280000", "161554.770000", "161556.260000", "161557.750000", "161559.240000", "161600.730000", "161602.220000", "161603.710000", "161605.200000", "161606.690000", "161608.180000", "161609.670000", "161611.160000", "161612.650000", "161614.140000", "161615.630000", "161617.120000", "161618.610000", "161620.100000", "161621.590000", "161623.080000", "161624.570000", "161626.060000", "161627.550000", "161629.040000", "161630.530000", "161632.020000", "161633.510000", "161635.000000", "161636.490000", "161637.980000", "161639.470000", "161640.960000", "161642.450000", "161643.940000", "161645.430000", "161646.920000", "161648.410000", "161649.900000", "161651.390000", "161652.880000", "161654.370000", "161655.860000", "161657.350000", "161658.840000", "161700.330000", "161701.820000", "161703.310000", "161704.800000", "161706.290000", "161707.780000", "161709.270000", "161710.760000", "161712.250000", "161713.740000", "161715.230000", "161716.720000", "161718.210000", "161719.700000", "161721.190000", "161722.680000", "161724.170000", "161725.660000", "161727.150000", "161728.640000", "161730.130000", "161731.620000", "161733.110000", "161734.600000", "161736.090000", "161737.580000", "161739.070000", "161740.560000", "161742.050000", "161743.540000", "161745.030000", "161746.520000", "161748.010000", "161749.500000", "161750.990000", "161752.480000", "161753.970000", "161755.460000", "161756.950000", "161758.440000", "161759.930000", "161801.420000", "161802.910000", "161804.400000", "161805.890000", "161807.380000", "161808.870000", "161810.360000", "161811.850000", "161813.340000", "161814.830000", "161816.320000", "161817.810000", "161819.300000", "161820.790000", "161822.280000", "161823.770000", "161825.260000", "161826.750000", "161828.240000", "161829.730000", "161831.220000", "161832.710000", "161834.200000", "161835.690000", "161837.180000", "161838.670000", "161840.160000", "161841.650000", "161843.140000", "161844.630000", "161846.120000", "161847.610000", "161849.100000", "161850.590000", "161852.080000", "161853.570000", "161855.060000", "161856.550000", "161858.040000", "161859.530000", "161901.020000", "161902.510000", "161904.000000", "161905.490000", "161906.980000", "161908.470000", "161909.960000", "161911.450000", "161912.940000", "161914.430000", "161915.920000", "161917.410000", "161918.900000", "161920.390000", "161921.880000", "161923.370000", "161924.860000", "161926.350000", "161927.840000", "161929.330000", "161930.820000", "161932.310000", "161933.800000", "161935.290000", "161936.780000", "161938.270000", "161939.760000", "161941.250000", "161942.740000", "161944.230000", "161945.720000", "161947.210000", "161948.700000", "161950.190000", "161951.680000", "161953.170000", "161954.660000", "161956.150000", "161957.640000", "161959.130000", "162000.620000", "162002.110000", "162003.600000", "162005.090000", "162006.580000", "162008.070000", "162009.560000", "162011.050000", "162012.540000", "162014.030000", "162015.520000", "162017.010000", "162018.500000", "162019.990000", "162021.480000", "162022.970000", "162024.460000", "162025.950000", "162027.440000", "162028.930000", "162030.420000", "162031.910000", "162033.400000", "162034.890000", "162036.380000", "162037.870000", "162039.360000", "162040.850000", "162042.340000", "162043.830000", "162045.320000", "162046.810000", "162048.300000", "162049.790000", "162051.280000", "162052.770000", "162054.260000", "162055.750000", "162057.240000", "162058.730000", "162100.220000", "162101.710000", "162103.200000", "162104.690000", "162106.180000", "162107.670000", "162109.160000", "162110.650000", "162112.140000", "162113.630000", "162115.120000", "162116.610000", "162118.100000", "162119.590000", "162121.080000", "162122.570000", "162124.060000", "162125.550000", "162127.040000", "162128.530000", "162130.020000", "162131.510000", "162133.000000", "162134.490000", "162135.980000", "162137.470000", "162138.960000", "162140.450000", "162141.940000", "162143.430000", "162144.920000", "162146.410000", "162147.900000", "162149.390000", "162150.880000", "162152.370000", "162153.860000", "162155.350000", "162156.840000", "162158.330000", "162159.820000", "162201.310000", "162202.800000", "162204.290000", "162205.780000", "162207.270000", "162208.760000", "162210.250000", "162211.740000", "162213.230000", "162214.720000", "162216.210000", "162217.700000", "162219.190000", "162220.680000", "162222.170000", "162223.660000", "162225.150000", "162226.640000", "162228.130000", "162229.620000", "162231.110000", "162232.600000", "162234.090000", "162235.580000", "162237.070000", "162238.560000", "162240.050000", "162241.540000", "162243.030000", "162244.520000", "162246.010000", "162247.500000", "162248.990000", "162250.480000", "162251.970000", "162253.460000", "162254.950000", "162256.440000", "162257.930000", "162259.420000", "162300.910000", "162302.400000", "162303.890000", "162305.380000", "162306.870000", "162308.360000", "162309.850000", "162311.340000", "162312.830000", "162314.320000", "162315.810000", "162317.300000", "162318.790000", "162320.280000", "162321.770000", "162323.260000", "162324.750000", "162326.240000", "162327.730000", "162329.220000", "162330.710000", "162332.200000", "162333.690000", "162335.180000", "162336.670000", "162338.160000", "162339.650000", "162341.140000", "162342.630000", "162344.120000", "162345.610000", "162347.100000", "162348.590000", "162350.080000", "162351.570000", "162353.060000", "162354.550000", "162356.040000", "162357.530000", "162359.020000", "162400.510000", "162402.000000", "162403.490000", "162404.980000", "162406.470000", "162407.960000"],
      "ContentTime": ["161339.904000", "161339.907000", "161339.910000", "161359.942000", "161359.945000", "161359.948000", "161359.950000", "161359.953000", "161359.955000", "161359.958000", "161359.960000", "161359.963000", "161359.965000", "161359.968000", "161359.970000", "161359.973000", "161359.975000", "161359.978000", "161359.980000", "161359.983000", "161359.985000", "161359.988000", "161359.998000", "161400.001000", "161419.924000", "161419.927000", "161419.929000", "161419.932000", "161419.934000", "161419.937000", "161419.939000", "161419.942000", "161419.945000", "161419.947000", "161419.950000", "161419.952000", "161419.955000", "161419.957000", "161419.960000", "161419.962000", "161419.965000", "161419.967000", "161419.970000", "161419.972000", "161439.957000", "161439.960000", "161439.972000", "161439.974000", "161439.977000", "161439.979000", "161439.982000", "161439.984000", "161439.987000", "161439.989000", "161439.992000", "161439.994000", "161439.997000", "161440.001000", "161440.003000", "161440.014000", "161440.017000", "161440.019000", "161440.022000", "161440.024000", "161459.921000", "161459.924000", "161459.926000", "161459.929000", "161459.931000", "161459.934000", "161459.936000", "161459.939000", "161459.941000", "161459.944000", "161459.946000", "161459.949000", "161459.951000", "161459.954000", "161459.956000", "161459.959000", "161459.961000", "161459.967000", "161459.970000", "161459.972000", "161539.987000", "161539.990000", "161539.993000", "161539.995000", "161539.998000", "161540.001000", "161540.004000", "161540.006000", "161540.009000", "161540.011000", "161540.014000", "161540.016000", "161540.019000", "161540.021000", "161540.024000", "161540.026000", "161540.029000", "161540.031000", "161540.034000", "161540.036000", "161540.039000", "161540.041000", "161540.044000", "161540.046000", "161540.049000", "161540.051000", "161540.054000", "161540.056000", "161540.059000", "161540.061000", "161540.064000", "161619.972000", "161619.975000", "161619.977000", "161619.980000", "161619.982000", "161619.985000", "161619.988000", "161619.990000", "161619.993000", "161619.995000", "161619.997000", "161620.001000", "161620.004000", "161620.006000", "161620.009000", "161620.011000", "161620.014000", "161620.016000", "161620.019000", "161620.021000", "161620.024000", "161620.026000", "161620.029000", "161620.031000", "161620.034000", "161620.036000", "161620.039000", "161659.962000", "161659.965000", "161659.968000", "161659.970000", "161659.973000", "161659.975000", "161659.978000", "161659.980000", "161659.983000", "161659.985000", "161659.988000", "161659.990000", "161659.993000", "161659.995000", "161659.998000", "161700.001000", "161700.004000", "161700.007000", "161700.009000", "161700.012000", "161700.014000", "161700.017000", "161700.019000", "161700.022000", "161700.024000", "161700.027000", "161700.029000", "161739.959000", "161739.962000", "161739.964000", "161739.967000", "161739.970000", "161739.972000", "161739.975000", "161739.977000", "161739.980000", "161739.982000", "161739.985000", "161739.987000", "161739.990000", "161739.992000", "161739.995000", "161739.997000", "161740.001000", "161740.004000", "161740.006000", "161740.009000", "161740.011000", "161740.014000", "161740.016000", "161740.019000", "161740.021000", "161740.024000", "161819.962000", "161819.964000", "161819.968000", "161819.970000", "161819.973000", "161819.975000", "161819.978000", "161819.981000", "161819.983000", "161819.986000", "161819.988000", "161819.991000", "161819.993000", "161819.996000", "161819.998000", "161820.002000", "161820.005000", "161820.007000", "161820.010000", "161820.012000", "161820.015000", "161820.017000", "161820.020000", "161820.022000", "161820.025000", "161820.028000", "161820.030000", "161859.958000", "161859.960000", "161859.963000", "161859.966000", "161859.968000", "161859.971000", "161859.973000", "161859.976000", "161859.978000", "161859.981000", "161859.983000", "161859.986000", "161859.988000", "161859.991000", "161859.993000", "161859.996000", "161859.998000", "161900.002000", "161900.004000", "161900.007000", "161900.009000", "161900.012000", "161900.015000", "161900.017000", "161900.020000", "161900.022000", "161900.025000", "161919.893000", "161919.896000", "161919.898000", "161919.901000", "161919.903000", "161919.906000", "161919.908000", "161919.911000", "161919.913000", "161919.916000", "161919.918000", "161919.921000", "161919.923000", "161919.926000", "162000.421000", "162000.424000", "162000.427000", "162000.429000", "162000.432000", "162000.435000", "162000.437000", "162000.440000", "162000.442000", "162000.445000", "162000.447000", "162000.450000", "162000.452000", "162000.455000", "162000.457000", "162000.460000", "162000.462000", "162000.465000", "162000.467000", "162000.470000", "162000.473000", "162000.475000", "162000.478000", "162000.480000", "162000.483000", "162000.485000", "162039.956000", "162039.958000", "162039.961000", "162039.963000", "162039.966000", "162039.969000", "162039.972000", "162039.974000", "162039.977000", "162039.979000", "162039.982000", "162039.984000", "162039.987000", "162039.989000", "162039.992000", "162039.994000", "162039.997000", "162040.000000", "162040.003000", "162040.005000", "162040.008000", "162040.010000", "162040.013000", "162040.016000", "162040.018000", "162040.021000", "162040.023000", "162119.970000", "162119.972000", "162119.975000", "162119.978000", "162119.980000", "162119.983000", "162119.985000", "162119.988000", "162119.990000", "162119.993000", "162119.995000", "162119.998000", "162120.001000", "162120.004000", "162120.006000", "162120.009000", "162120.011000", "162120.014000", "162120.017000", "162120.019000", "162120.022000", "162120.024000", "162120.027000", "162120.029000", "162120.032000", "162120.034000", "162120.037000", "162159.961000", "162159.963000", "162159.966000", "162159.968000", "162159.971000", "162159.973000", "162159.976000", "162159.978000", "162159.981000", "162159.983000", "162159.986000", "162159.988000", "162159.991000", "162159.994000", "162159.996000", "162200.000000", "162200.003000", "162200.006000", "162200.009000", "162200.011000", "162200.013000", "162200.016000", "162200.018000", "162200.021000", "162200.023000", "162200.026000", "162200.029000", "162239.969000", "162239.972000", "162239.975000", "162239.977000", "162239.980000", "162239.982000", "162239.985000", "162239.987000", "162239.990000", "162239.993000", "162239.995000", "162239.998000", "162240.001000", "162240.004000", "162240.006000", "162240.009000", "162240.011000", "162240.014000", "162240.016000", "162240.019000", "162240.021000", "162240.024000", "162240.026000", "162240.029000", "162240.032000", "162240.034000", "162240.037000", "162319.966000", "162319.969000", "162319.972000", "162319.974000", "162319.977000", "162319.979000", "162319.982000", "162319.984000", "162319.987000", "162319.989000", "162319.992000", "162319.994000", "162319.997000", "162320.001000", "162320.003000", "162320.006000", "162320.008000", "162320.011000", "162320.013000", "162320.016000", "162320.018000", "162320.021000", "162320.024000", "162320.026000", "162320.029000", "162320.031000", "162320.034000", "162359.969000", "162359.972000", "162359.975000", "162359.977000", "162359.980000", "162359.983000", "162359.985000", "162359.988000", "162359.990000", "162359.993000", "162359.995000", "162359.998000", "162400.001000", "162400.004000", "162400.007000", "162400.009000", "162400.012000", "162400.014000", "162400.017000", "162400.019000", "162400.022000", "162400.024000", "162400.027000", "162400.029000", "162400.032000", "162400.034000", "162411.633000", "162411.636000", "162411.638000", "162411.641000", "162411.644000", "162411.646000", "162411.649000", "162411.651000"],
