{
  "AcquisitionMatrixPE": 104,
  "AcquisitionNumber": 1,
  "AcquisitionTime": "16:12:47.030000",
  "BandwidthPerPixelPhaseEncode": 17.17,
  "BaseResolution": 104,
  "BodyPartExamined": "BRAIN",
  "CoilCombinationMethod": "Sum of Squares",
  "ConsistencyInfo": "N4_VE11C_LATEST_20160120",
  "ConversionSoftware": "dcm2niix",
  "ConversionSoftwareVersion": "v1.0.20211006",
  "DerivedVendorReportedEchoSpacing": 0.000560011,
  "DeviceSerialNumber": "167006",
  "DwellTime": 2.1e-06,
  "EchoTime": 0.037,
  "EchoTrainLength": 104,
  "EffectiveEchoSpacing": 0.000560011,
  "FlipAngle": 52,
  "HeudiconvVersion": "0.11.3.post9+gc939bf8",
  "ImageComments": "Unaliased MB4/PE3/LB",
  "ImageOrientationPatientDICOM": [0.998237, -0.0585584, 0.00968186, 0.0580825, 0.930202, -0.362423],
  "ImageOrientationText": "Tra>Cor(-21.2)>Sag(-0.7)",
  "ImageType": [
    "ORIGINAL",
    "PRIMARY",
    "M",
    "MB",
    "ND",
    "MOSAIC"
],
  "ImagingFrequency": 123.259,
  "InPlanePhaseEncodingDirectionDICOM": "COL",
  "InstitutionAddress": "Chemin Queen-Mary 4565,Montreal,District,CA,H3W 1W5",
  "InstitutionName": "IUGM",
  "InstitutionalDepartmentName": "Department",
  "MRAcquisitionType": "2D",
  "MagneticFieldStrength": 3,
  "Manufacturer": "Siemens",
  "ManufacturersModelName": "Prisma_fit",
  "MatrixCoilMode": "SENSE",
  "Modality": "MR",
  "MultibandAccelerationFactor": 4,
  "PartialFourier": 1,
  "PatientPosition": "HFS",
  "PercentPhaseFOV": 100,
  "PercentSampling": 100,
  "PhaseEncodingDirection": "j",
  "PhaseEncodingSteps": 104,
  "PhaseResolution": 1,
  "PixelBandwidth": 2290,
  "ProcedureStepDescription": "games^mariostars",
  "ProtocolName": "func_task-mariostars_run-02",
  "PulseSequenceDetails": "%CustomerSeq%\\cmrr_mbep2d_bold",
  "ReceiveCoilActiveElements": "HC1-7;NC1,2",
  "ReceiveCoilName": "HeadNeck_64",
  "ReconMatrixPE": 104,
  "RepetitionTime": 1.49,
  "SAR": 0.0476997,
  "ScanOptions": "FS",
  "ScanningSequence": "EP",
  "SequenceName": "epfid2d1_104",
  "SequenceVariant": "SK\\SS",
  "SeriesDescription": "func_task-mariostars_run-02",
  "SeriesNumber": 14,
  "ShimSetting": [619, -7269, -8819, 565, -6, -242, -105, -3],
  "SliceThickness": 2,
  "SliceTiming": [0, 0.785, 0.0975, 0.8825, 0.1975, 0.98, 0.295, 1.0775, 0.3925, 1.1775, 0.49, 1.275, 0.5875, 1.3725, 0.6875, 0, 0.785, 0.0975, 0.8825, 0.1975, 0.98, 0.295, 1.0775, 0.3925, 1.1775, 0.49, 1.275, 0.5875, 1.3725, 0.6875, 0, 0.785, 0.0975, 0.8825, 0.1975, 0.98, 0.295, 1.0775, 0.3925, 1.1775, 0.49, 1.275, 0.5875, 1.3725, 0.6875, 0, 0.785, 0.0975, 0.8825, 0.1975, 0.98, 0.295, 1.0775, 0.3925, 1.1775, 0.49, 1.275, 0.5875, 1.3725, 0.6875],
  "SoftwareVersions": "syngo MR E11",
  "SpacingBetweenSlices": 2,
  "StationName": "MRC35049",
  "TaskName": "mariostars",
  "TotalReadoutTime": 0.0576811,
  "TxRefAmp": 237.242,
  "WipMemBlock": "4357a4ad-5096-4166-90de-d6084ad58839||Sequence: R017 ve11c/master r/75a17815+; Jun 28 2022 16:32:11 by eja",
  "dcmmeta_affine": [
    [-1.996474027633667, 0.1161649078130722, -0.02443358488380909, 101.34481048583984],
    [0.11711674928665161, 1.8604044914245605, -0.724692165851593, -69.48466491699219],
    [0.019363723695278168, 0.7248453497886658, 1.8639271259307861, -66.55307006835938],
    [0.0, 0.0, 0.0, 1.0]
],
  "dcmmeta_reorient_transform": [
    [0.0, -1.0, 0.0, 103.0],
    [1.0, 0.0, 0.0, 0.0],
    [0.0, 0.0, 1.0, 0.0],
    [0.0, 0.0, 0.0, 1.0]
],
  "dcmmeta_shape": [104, 104, 60, 458],
  "dcmmeta_slice_dim": 2,
  "dcmmeta_version": 0.6,
  "global": {
    "const": {
      "AcquisitionMatrix": [104, 0, 0, 104],
      "AngioFlag": "N",
      "BitsAllocated": 16,
      "BitsStored": 16,
      "BodyPartExamined": "BRAIN",
      "Columns": 832,
      "EchoNumbers": 1,
      "EchoTime": 37.0,
      "EchoTrainLength": 104,
      "FlipAngle": 52.0,
      "HighBit": 15,
      "ImageOrientationPatient": [0.99823703518508, -0.0585583737017, 0.00968186213065, 0.05808245490344, 0.93020225407107, -0.3624226744472],
      "ImagePositionPatient": [-882.31038643045, -756.69374667532, 264.90131150536],
      "ImageType": [
        "ORIGINAL",
        "PRIMARY",
        "M",
        "MB",
        "ND",
        "MOSAIC"
],
      "ImagedNucleus": "1H",
      "ImagingFrequency": 123.258784,
      "InPlanePhaseEncodingDirection": "COL",
      "MRAcquisitionType": "2D",
      "MagneticFieldStrength": 3.0,
      "Manufacturer": "SIEMENS",
      "ManufacturerModelName": "Prisma_fit",
      "Modality": "MR",
      "NumberOfAverages": 1.0,
      "NumberOfPhaseEncodingSteps": 104,
      "PercentPhaseFieldOfView": 100.0,
      "PercentSampling": 100.0,
      "PerformedProcedureStepStartTime": "154508.522000",
      "PhotometricInterpretation": "MONOCHROME2",
      "PixelBandwidth": 2290.0,
      "PixelRepresentation": 0,
      "PixelSpacing": [2.0, 2.0],
      "ProtocolName": "func_task-mariostars_run-02",
      "RepetitionTime": 1490.0,
      "Rows": 832,
      "SAR": 0.04769965446543,
      "SamplesPerPixel": 1,
      "ScanOptions": "FS",
      "ScanningSequence": "EP",
      "SequenceName": "epfid2d1_104",
      "SequenceVariant": [
        "SK",
        "SS"
],
      "SeriesDescription": "func_task-mariostars_run-02",
      "SeriesNumber": 14,
      "SeriesTime": "161339.852000",
      "SliceLocation": -38.085649676789,
      "SliceThickness": 2.0,
      "SmallestImagePixelValue": 0,
      "SoftwareVersions": "syngo MR E11",
      "SpacingBetweenSlices": 2.0000000080947,
      "SpecificCharacterSet": "ISO_IR 100",
      "StudyID": "1",
      "StudyTime": "154508.452000",
      "TransmitCoilName": "Body",
      "VariableFlipAngleFlag": "N",
      "WindowCenterWidthExplanation": "Algo1",
      "dBdt": 0.0},
    "slices": {}
  },
  "time": {
    "samples": {
      "AcquisitionNumber": [1, 2, 3, 4, 5, 6, 7, 8, 9, 10, 11, 12, 13, 14, 15, 16, 17, 18, 19, 20, 21, 22, 23, 24, 25, 26, 27, 28, 29, 30, 31, 32, 33, 34, 35, 36, 37, 38, 39, 40, 41, 42, 43, 44, 45, 46, 47, 48, 49, 50, 51, 52, 53, 54, 55, 56, 57, 58, 59, 60, 61, 62, 63, 64, 65, 66, 67, 68, 69, 70, 71, 72, 73, 74, 75, 76, 77, 78, 79, 80, 81, 82, 83, 84, 85, 86, 87, 88, 89, 90, 91, 92, 93, 94, 95, 96, 97, 98, 99, 100, 101, 102, 103, 104, 105, 106, 107, 108, 109, 110, 111, 112, 113, 114, 115, 116, 117, 118, 119, 120, 121, 122, 123, 124, 125, 126, 127, 128, 129, 130, 131, 132, 133, 134, 135, 136, 137, 138, 139, 140, 141, 142, 143, 144, 145, 146, 147, 148, 149, 150, 151, 152, 153, 154, 155, 156, 157, 158, 159, 160, 161, 162, 163, 164, 165, 166, 167, 168, 169, 170, 171, 172, 173, 174, 175, 176, 177, 178, 179, 180, 181, 182, 183, 184, 185, 186, 187, 188, 189, 190, 191, 192, 193, 194, 195, 196, 197, 198, 199, 200, 201, 202, 203, 204, 205, 206, 207, 208, 209, 210, 211, 212, 213, 214, 215, 216, 217, 218, 219, 220, 221, 222, 223, 224, 225, 226, 227, 228, 229, 230, 231, 232, 233, 234, 235, 236, 237, 238, 239, 240, 241, 242, 243, 244, 245, 246, 247, 248, 249, 250, 251, 252, 253, 254, 255, 256, 257, 258, 259, 260, 261, 262, 263, 264, 265, 266, 267, 268, 269, 270, 271, 272, 273, 274, 275, 276, 277, 278, 279, 280, 281, 282, 283, 284, 285, 286, 287, 288, 289, 290, 291, 292, 293, 294, 295, 296, 297, 298, 299, 300, 301, 302, 303, 304, 305, 306, 307, 308, 309, 310, 311, 312, 313, 314, 315, 316, 317, 318, 319, 320, 321, 322, 323, 324, 325, 326, 327, 328, 329, 330, 331, 332, 333, 334, 335, 336, 337, 338, 339, 340, 341, 342, 343, 344, 345, 346, 347, 348, 349, 350, 351, 352, 353, 354, 355, 356, 357, 358, 359, 360, 361, 362, 363, 364, 365, 366, 367, 368, 369, 370, 371, 372, 373, 374, 375, 376, 377, 378, 379, 380, 381, 382, 383, 384, 385, 386, 387, 388, 389, 390, 391, 392, 393, 394, 395, 396, 397, 398, 399, 400, 401, 402, 403, 404, 405, 406, 407, 408, 409, 410, 411, 412, 413, 414, 415, 416, 417, 418, 419, 420, 421, 422, 423, 424, 425, 426, 427, 428, 429, 430, 431, 432, 433, 434, 435, 436, 437, 438, 439, 440, 441, 442, 443, 444, 445, 446, 447, 448, 449, 450, 451, 452, 453, 454, 455, 456, 457, 458],
      "AcquisitionTime": ["161247.030000", "161248.520000", "161250.010000", "161251.500000", "161252.990000", "161254.480000", "161255.970000", "161257.460000", "161258.950000", "161300.440000", "161301.930000", "161303.420000", "161304.910000", "161306.400000", "161307.890000", "161309.380000", "161310.870000", "161312.360000", "161313.850000", "161315.340000", "161316.830000", "161318.320000", "161319.810000", "161321.300000", "161322.790000", "161324.280000", "161325.770000", "161327.260000", "161328.750000", "161330.240000", "161331.730000", "161333.220000", "161334.710000", "161336.200000", "161337.690000", "161339.180000", "161340.670000", "161342.160000", "161343.650000", "161345.140000", "161346.630000", "161348.120000", "161349.610000", "161351.100000", "161352.590000", "161354.080000", "161355.570000", "161357.060000", "161358.550000", "161400.040000", "161401.530000", "161403.020000", "161404.510000", "161406.000000", "161407.490000", "161408.980000", "161410.470000", "161411.960000", "161413.450000", "161414.940000", "161416.430000", "161417.920000", "161419.410000", "161420.900000", "161422.390000", "161423.880000", "161425.370000", "161426.860000", "161428.350000", "161429.840000", "161431.330000", "161432.820000", "161434.310000", "161435.800000", "161437.290000", "161438.780000", "161440.270000", "161441.760000", "161443.250000", "161444.740000", "161446.230000", "161447.720000", "161449.210000", "161450.700000", "161452.190000", "161453.680000", "161455.170000", "161456.660000", "161458.150000", "161459.640000", "161501.130000", "161502.620000", "161504.110000", "161505.600000", "161507.090000", "161508.580000", "161510.070000", "161511.560000", "161513.050000", "161514.540000", "161516.030000", "161517.520000", "161519.010000", "161520.500000", "161521.990000", "161523.480000", "161524.970000", "161526.460000", "161527.950000", "161529.440000", "161530.930000", "161532.420000", "161533.910000", "161535.400000", "161536.890000", "161538.380000", "161539.870000", "161541.360000", "161542.850000", "161544.340000", "161545.830000", "161547.320000", "161548.810000", "161550.300000", "161551.790000", "161553.280000", "161554.770000", "161556.260000", "161557.750000", "161559.240000", "161600.730000", "161602.220000", "161603.710000", "161605.200000", "161606.690000", "161608.180000", "161609.670000", "161611.160000", "161612.650000", "161614.140000", "161615.630000", "161617.120000", "161618.610000", "161620.100000", "161621.590000", "161623.080000", "161624.570000", "161626.060000", "161627.550000", "161629.040000", "161630.530000", "161632.020000", "161633.510000", "161635.000000", "161636.490000", "161637.980000", "161639.470000", "161640.960000", "161642.450000", "161643.940000", "161645.430000", "161646.920000", "161648.410000", "161649.900000", "161651.390000", "161652.880000", "161654.370000", "161655.860000", "161657.350000", "161658.840000", "161700.330000", "161701.820000", "161703.310000", "161704.800000", "161706.290000", "161707.780000", "161709.270000", "161710.760000", "161712.250000", "161713.740000", "161715.230000", "161716.720000", "161718.210000", "161719.700000", "161721.190000", "161722.680000", "161724.170000", "161725.660000", "161727.150000", "161728.640000", "161730.130000", "161731.620000", "161733.110000", "161734.600000", "161736.090000", "161737.580000", "161739.070000", "161740.560000", "161742.050000", "161743.540000", "161745.030000", "161746.520000", "161748.010000", "161749.500000", "161750.990000", "161752.480000", "161753.970000", "161755.460000", "161756.950000", "161758.440000", "161759.930000", "161801.420000", "161802.910000", "161804.400000", "161805.890000", "161807.380000", "161808.870000", "161810.360000", "161811.850000", "161813.340000", "161814.830000", "161816.320000", "161817.810000", "161819.300000", "161820.790000", "161822.280000", "161823.770000", "161825.260000", "161826.750000", "161828.240000", "161829.730000", "161831.220000", "161832.710000", "161834.200000", "161835.690000", "161837.180000", "161838.670000", "161840.160000", "161841.650000", "161843.140000", "161844.630000", "161846.120000", "161847.610000", "161849.100000", "161850.590000", "161852.080000", "161853.570000", "161855.060000", "161856.550000", "161858.040000", "161859.530000", "161901.020000", "161902.510000", "161904.000000", "161905.490000", "161906.980000", "161908.470000", "161909.960000", "161911.450000", "161912.940000", "161914.430000", "161915.920000", "161917.410000", "161918.900000", "161920.390000", "161921.880000", "161923.370000", "161924.860000", "161926.350000", "161927.840000", "161929.330000", "161930.820000", "161932.310000", "161933.800000", "161935.290000", "161936.780000", "161938.270000", "161939.760000", "161941.250000", "161942.740000", "161944.230000", "161945.720000", "161947.210000", "161948.700000", "161950.190000", "161951.680000", "161953.170000", "161954.660000", "161956.150000", "161957.640000", "161959.130000", "162000.620000", "162002.110000", "162003.600000", "162005.090000", "162006.580000", "162008.070000", "162009.560000", "162011.050000", "162012.540000", "162014.030000", "162015.520000", "162017.010000", "162018.500000", "162019.990000", "162021.480000", "162022.970000", "162024.460000", "162025.950000", "162027.440000", "162028.930000", "162030.420000", "162031.910000", "162033.400000", "162034.890000", "162036.380000", "162037.870000", "162039.360000", "162040.850000", "162042.340000", "162043.830000", "162045.320000", "162046.810000", "162048.300000", "162049.790000", "162051.280000", "162052.770000", "162054.260000", "162055.750000", "162057.240000", "162058.730000", "162100.220000", "162101.710000", "162103.200000", "162104.690000", "162106.180000", "162107.670000", "162109.160000", "162110.650000", "162112.140000", "162113.630000", "162115.120000", "162116.610000", "162118.100000", "162119.590000", "162121.080000", "162122.570000", "162124.060000", "162125.550000", "162127.040000", "162128.530000", "162130.020000", "162131.510000", "162133.000000", "162134.490000", "162135.980000", "162137.470000", "162138.960000", "162140.450000", "162141.940000", "162143.430000", "162144.920000", "162146.410000", "162147.900000", "162149.390000", "162150.880000", "162152.370000", "162153.860000", "162155.350000", "162156.840000", "162158.330000", "162159.820000", "162201.310000", "162202.800000", "162204.290000", "162205.780000", "162207.270000", "162208.760000", "162210.250000", "162211.740000", "162213.230000", "162214.720000", "162216.210000", "162217.700000", "162219.190000", "162220.680000", "162222.170000", "162223.660000", "162225.150000", "162226.640000", "162228.130000", "162229.620000", "162231.110000", "162232.600000", "162234.090000", "162235.580000", "162237.070000", "162238.560000", "162240.050000", "162241.540000", "162243.030000", "162244.520000", "162246.010000", "162247.500000", "162248.990000", "162250.480000", "162251.970000", "162253.460000", "162254.950000", "162256.440000", "162257.930000", "162259.420000", "162300.910000", "162302.400000", "162303.890000", "162305.380000", "162306.870000", "162308.360000", "162309.850000", "162311.340000", "162312.830000", "162314.320000", "162315.810000", "162317.300000", "162318.790000", "162320.280000", "162321.770000", "162323.260000", "162324.750000", "162326.240000", "162327.730000", "162329.220000", "162330.710000", "162332.200000", "162333.690000", "162335.180000", "162336.670000", "162338.160000", "162339.650000", "162341.140000", "162342.630000", "162344.120000", "162345.610000", "162347.100000", "162348.590000", "162350.080000", "162351.570000", "162353.060000", "162354.550000", "162356.040000", "162357.530000", "162359.020000", "162400.510000", "162402.000000", "162403.490000", "162404.980000", "162406.470000", "162407.960000"],
      "ContentTime": ["161339.856000", "161339.861000", "161339.865000", "161359.820000", "161359.824000", "161359.836000", "161359.839000", "161359.843000", "161359.846000", "161359.849000", "161359.853000", "161359.856000", "161359.859000", "161359.862000", "161359.866000", "161359.869000", "161359.872000", "161359.876000", "161359.879000", "161359.882000", "161359.886000", "161359.889000", "161359.892000", "161359.896000", "161419.820000", "161419.824000", "161419.827000", "161419.830000", "161419.834000", "161419.837000", "161419.841000", "161419.844000", "161419.848000", "161419.851000", "161419.854000", "161419.857000", "161419.861000", "161419.864000", "161419.867000", "161419.871000", "161419.874000", "161419.877000", "161419.880000", "161419.884000", "161439.820000", "161439.824000", "161439.827000", "161439.830000", "161439.834000", "161439.837000", "161439.840000", "161439.860000", "161439.863000", "161439.867000", "161439.870000", "161439.873000", "161439.877000", "161439.880000", "161439.883000", "161439.887000", "161439.890000", "161439.893000", "161439.897000", "161439.900000", "161459.820000", "161459.824000", "161459.827000", "161459.830000", "161459.834000", "161459.837000", "161459.840000", "161459.844000", "161459.847000", "161459.850000", "161459.853000", "161459.857000", "161459.860000", "161459.863000", "161459.867000", "161459.870000", "161459.874000", "161459.877000", "161459.881000", "161459.884000", "161539.820000", "161539.824000", "161539.827000", "161539.830000", "161539.834000", "161539.837000", "161539.840000", "161539.844000", "161539.847000", "161539.850000", "161539.860000", "161539.863000", "161539.866000", "161539.869000", "161539.873000", "161539.876000", "161539.879000", "161539.883000", "161539.886000", "161539.889000", "161539.892000", "161539.896000", "161539.899000", "161539.903000", "161539.906000", "161539.909000", "161539.921000", "161539.924000", "161539.927000", "161539.931000", "161539.934000", "161619.820000", "161619.824000", "161619.832000", "161619.835000", "161619.839000", "161619.842000", "161619.846000", "161619.849000", "161619.852000", "161619.856000", "161619.859000", "161619.862000", "161619.866000", "161619.869000", "161619.872000", "161619.876000", "161619.885000", "161619.889000", "161619.892000", "161619.895000", "161619.899000", "161619.902000", "161619.905000", "161619.909000", "161619.912000", "161619.915000", "161619.919000", "161659.820000", "161659.824000", "161659.827000", "161659.830000", "161659.834000", "161659.837000", "161659.844000", "161659.858000", "161659.861000", "161659.865000", "161659.868000", "161659.871000", "161659.875000", "161659.878000", "161659.882000", "161659.885000", "161659.888000", "161659.891000", "161659.895000", "161659.898000", "161659.901000", "161659.905000", "161659.908000", "161659.911000", "161659.915000", "161659.918000", "161659.921000", "161739.820000", "161739.824000", "161739.827000", "161739.831000", "161739.834000", "161739.837000", "161739.841000", "161739.844000", "161739.847000", "161739.851000", "161739.854000", "161739.857000", "161739.861000", "161739.865000", "161739.869000", "161739.873000", "161739.876000", "161739.879000", "161739.883000", "161739.886000", "161739.890000", "161739.893000", "161739.896000", "161739.900000", "161739.903000", "161739.906000", "161819.820000", "161819.824000", "161819.827000", "161819.831000", "161819.834000", "161819.838000", "161819.841000", "161819.844000", "161819.848000", "161819.851000", "161819.854000", "161819.858000", "161819.861000", "161819.864000", "161819.868000", "161819.871000", "161819.874000", "161819.878000", "161819.881000", "161819.890000", "161819.893000", "161819.897000", "161819.900000", "161819.903000", "161819.907000", "161819.910000", "161819.913000", "161859.820000", "161859.824000", "161859.827000", "161859.831000", "161859.834000", "161859.837000", "161859.841000", "161859.844000", "161859.847000", "161859.851000", "161859.854000", "161859.857000", "161859.861000", "161859.864000", "161859.868000", "161859.871000", "161859.874000", "161859.877000", "161859.881000", "161859.884000", "161859.888000", "161859.891000", "161859.894000", "161859.898000", "161859.901000", "161859.904000", "161859.907000", "161919.820000", "161919.824000", "161919.827000", "161919.831000", "161919.834000", "161919.837000", "161919.841000", "161919.844000", "161919.847000", "161919.851000", "161919.854000", "161919.857000", "161919.861000", "161919.864000", "161959.820000", "161959.824000", "161959.827000", "161959.831000", "161959.834000", "161959.837000", "161959.841000", "161959.844000", "161959.847000", "161959.851000", "161959.855000", "161959.858000", "161959.861000", "161959.865000", "161959.868000", "161959.871000", "161959.879000", "161959.882000", "161959.886000", "161959.889000", "161959.892000", "161959.896000", "161959.899000", "161959.903000", "161959.906000", "161959.909000", "162039.820000", "162039.824000", "162039.827000", "162039.831000", "162039.834000", "162039.838000", "162039.841000", "162039.845000", "162039.848000", "162039.851000", "162039.855000", "162039.858000", "162039.862000", "162039.865000", "162039.868000", "162039.872000", "162039.875000", "162039.878000", "162039.882000", "162039.885000", "162039.889000", "162039.892000", "162039.895000", "162039.899000", "162039.902000", "162039.905000", "162039.909000", "162119.821000", "162119.825000", "162119.828000", "162119.832000", "162119.835000", "162119.838000", "162119.842000", "162119.845000", "162119.849000", "162119.852000", "162119.855000", "162119.859000", "162119.862000", "162119.866000", "162119.869000", "162119.872000", "162119.875000", "162119.879000", "162119.882000", "162119.886000", "162119.889000", "162119.892000", "162119.896000", "162119.899000", "162119.916000", "162119.920000", "162119.923000", "162159.820000", "162159.824000", "162159.827000", "162159.831000", "162159.834000", "162159.837000", "162159.841000", "162159.844000", "162159.847000", "162159.851000", "162159.854000", "162159.857000", "162159.861000", "162159.864000", "162159.867000", "162159.871000", "162159.874000", "162159.878000", "162159.881000", "162159.884000", "162159.888000", "162159.891000", "162159.894000", "162159.898000", "162159.901000", "162159.904000", "162159.908000", "162239.820000", "162239.829000", "162239.832000", "162239.835000", "162239.839000", "162239.842000", "162239.845000", "162239.849000", "162239.852000", "162239.856000", "162239.859000", "162239.862000", "162239.866000", "162239.869000", "162239.873000", "162239.876000", "162239.879000", "162239.883000", "162239.886000", "162239.889000", "162239.893000", "162239.896000", "162239.900000", "162239.903000", "162239.906000", "162239.910000", "162239.913000", "162319.820000", "162319.824000", "162319.827000", "162319.831000", "162319.834000", "162319.837000", "162319.841000", "162319.844000", "162319.847000", "162319.851000", "162319.854000", "162319.857000", "162319.860000", "162319.864000", "162319.867000", "162319.871000", "162319.874000", "162319.877000", "162319.881000", "162319.884000", "162319.887000", "162319.891000", "162319.894000", "162319.897000", "162319.901000", "162319.904000", "162319.907000", "162359.821000", "162359.825000", "162359.830000", "162359.834000", "162359.837000", "162359.841000", "162359.845000", "162359.849000", "162359.852000", "162359.855000", "162359.859000", "162359.862000", "162359.866000", "162359.869000", "162359.873000", "162359.876000", "162359.880000", "162359.883000", "162359.886000", "162359.890000", "162359.902000", "162359.906000", "162359.909000", "162359.913000", "162359.916000", "162359.920000", "162411.568000", "162411.572000", "162411.576000", "162411.580000", "162411.584000", "162411.588000", "162411.591000", "162411.595000"],
