{
  "AcquisitionMatrixPE": 104,
  "AcquisitionNumber": 1,
  "AcquisitionTime": "15:51:7.017500",
  "BandwidthPerPixelPhaseEncode": 17.17,
  "BaseResolution": 104,
  "BodyPartExamined": "BRAIN",
  "CoilCombinationMethod": "Sum of Squares",
  "ConsistencyInfo": "N4_VE11C_LATEST_20160120",
  "ConversionSoftware": "dcm2niix",
  "ConversionSoftwareVersion": "v1.0.20211006",
  "DerivedVendorReportedEchoSpacing": 0.000560011,
  "DeviceSerialNumber": "167006",
  "DwellTime": 2.1e-06,
  "EchoTime": 0.037,
  "EchoTrainLength": 104,
  "EffectiveEchoSpacing": 0.000560011,
  "FlipAngle": 52,
  "HeudiconvVersion": "0.11.3.post9+gc939bf8",
  "ImageComments": "Unaliased MB4/PE3/LB",
  "ImageOrientationPatientDICOM": [0.998237, -0.0585584, 0.00968186, 0.0580825, 0.930202, -0.362423],
  "ImageOrientationText": "Tra>Cor(-21.2)>Sag(-0.7)",
  "ImageType": [
    "ORIGINAL",
    "PRIMARY",
    "M",
    "MB",
    "ND",
    "MOSAIC"
],
  "ImagingFrequency": 123.259,
  "InPlanePhaseEncodingDirectionDICOM": "COL",
  "InstitutionAddress": "Chemin Queen-Mary 4565,Montreal,District,CA,H3W 1W5",
  "InstitutionName": "IUGM",
  "InstitutionalDepartmentName": "Department",
  "MRAcquisitionType": "2D",
  "MagneticFieldStrength": 3,
  "Manufacturer": "Siemens",
  "ManufacturersModelName": "Prisma_fit",
  "MatrixCoilMode": "SENSE",
  "Modality": "MR",
  "MultibandAccelerationFactor": 4,
  "PartialFourier": 1,
  "PatientPosition": "HFS",
  "PercentPhaseFOV": 100,
  "PercentSampling": 100,
  "PhaseEncodingDirection": "j",
  "PhaseEncodingSteps": 104,
  "PhaseResolution": 1,
  "PixelBandwidth": 2290,
  "ProcedureStepDescription": "games^mariostars",
  "ProtocolName": "func_task-mariostars_run-01",
  "PulseSequenceDetails": "%CustomerSeq%\\cmrr_mbep2d_bold",
  "ReceiveCoilActiveElements": "HC1-7;NC1,2",
  "ReceiveCoilName": "HeadNeck_64",
  "ReconMatrixPE": 104,
  "RepetitionTime": 1.49,
  "SAR": 0.0476997,
  "ScanOptions": "FS",
  "ScanningSequence": "EP",
  "SequenceName": "epfid2d1_104",
  "SequenceVariant": "SK\\SS",
  "SeriesDescription": "func_task-mariostars_run-01",
  "SeriesNumber": 11,
  "ShimSetting": [619, -7269, -8819, 565, -6, -242, -105, -3],
  "SliceThickness": 2,
  "SliceTiming": [0, 0.7825, 0.0975, 0.88, 0.195, 0.98, 0.2925, 1.0775, 0.39, 1.175, 0.49, 1.2725, 0.5875, 1.37, 0.685, 0, 0.7825, 0.0975, 0.88, 0.195, 0.98, 0.2925, 1.0775, 0.39, 1.175, 0.49, 1.2725, 0.5875, 1.37, 0.685, 0, 0.7825, 0.0975, 0.88, 0.195, 0.98, 0.2925, 1.0775, 0.39, 1.175, 0.49, 1.2725, 0.5875, 1.37, 0.685, 0, 0.7825, 0.0975, 0.88, 0.195, 0.98, 0.2925, 1.0775, 0.39, 1.175, 0.49, 1.2725, 0.5875, 1.37, 0.685],
  "SoftwareVersions": "syngo MR E11",
  "SpacingBetweenSlices": 2,
  "StationName": "MRC35049",
  "TaskName": "mariostars",
  "TotalReadoutTime": 0.0576811,
  "TxRefAmp": 237.242,
  "WipMemBlock": "47d55503-1b61-4db7-be05-9a1ac879b62a||Sequence: R017 ve11c/master r/75a17815+; Jun 28 2022 16:32:11 by eja",
  "dcmmeta_affine": [
    [-1.996474027633667, 0.1161649078130722, -0.02443358488380909, 101.34481048583984],
    [0.11711674928665161, 1.8604044914245605, -0.724692165851593, -69.48466491699219],
    [0.019363723695278168, 0.7248453497886658, 1.8639271259307861, -66.55307006835938],
    [0.0, 0.0, 0.0, 1.0]
],
  "dcmmeta_reorient_transform": [
    [0.0, -1.0, 0.0, 103.0],
    [1.0, 0.0, 0.0, 0.0],
    [0.0, 0.0, 1.0, 0.0],
    [0.0, 0.0, 0.0, 1.0]
],
  "dcmmeta_shape": [104, 104, 60, 482],
  "dcmmeta_slice_dim": 2,
  "dcmmeta_version": 0.6,
  "global": {
    "const": {
      "AcquisitionMatrix": [104, 0, 0, 104],
      "AngioFlag": "N",
      "BitsAllocated": 16,
      "BitsStored": 16,
      "BodyPartExamined": "BRAIN",
      "Columns": 832,
      "EchoNumbers": 1,
      "EchoTime": 37.0,
      "EchoTrainLength": 104,
      "FlipAngle": 52.0,
      "HighBit": 15,
      "ImageOrientationPatient": [0.99823703518508, -0.0585583737017, 0.00968186213065, 0.05808245490344, 0.93020225407107, -0.3624226744472],
      "ImagePositionPatient": [-882.31038643045, -756.69374667532, 264.90131150536],
      "ImageType": [
        "ORIGINAL",
        "PRIMARY",
        "M",
        "MB",
        "ND",
        "MOSAIC"
],
      "ImagedNucleus": "1H",
      "ImagingFrequency": 123.258778,
      "InPlanePhaseEncodingDirection": "COL",
      "MRAcquisitionType": "2D",
      "MagneticFieldStrength": 3.0,
      "Manufacturer": "SIEMENS",
      "ManufacturerModelName": "Prisma_fit",
      "Modality": "MR",
      "NumberOfAverages": 1.0,
      "NumberOfPhaseEncodingSteps": 104,
      "PercentPhaseFieldOfView": 100.0,
      "PercentSampling": 100.0,
      "PerformedProcedureStepStartTime": "154508.522000",
      "PhotometricInterpretation": "MONOCHROME2",
      "PixelBandwidth": 2290.0,
      "PixelRepresentation": 0,
      "PixelSpacing": [2.0, 2.0],
      "ProtocolName": "func_task-mariostars_run-01",
      "RepetitionTime": 1490.0,
      "Rows": 832,
      "SAR": 0.04769965446543,
      "SamplesPerPixel": 1,
      "ScanOptions": "FS",
      "ScanningSequence": "EP",
      "SequenceName": "epfid2d1_104",
      "SequenceVariant": [
        "SK",
        "SS"
],
      "SeriesDescription": "func_task-mariostars_run-01",
      "SeriesNumber": 11,
      "SeriesTime": "155210.323000",
      "SliceLocation": -38.085649676789,
      "SliceThickness": 2.0,
      "SmallestImagePixelValue": 0,
      "SoftwareVersions": "syngo MR E11",
      "SpacingBetweenSlices": 2.0000000080947,
      "SpecificCharacterSet": "ISO_IR 100",
      "StudyID": "1",
      "StudyTime": "154508.452000",
      "TransmitCoilName": "Body",
      "VariableFlipAngleFlag": "N",
      "WindowCenterWidthExplanation": "Algo1",
      "dBdt": 0.0},
    "slices": {}
  },
  "time": {
    "samples": {
      "AcquisitionNumber": [1, 2, 3, 4, 5, 6, 7, 8, 9, 10, 11, 12, 13, 14, 15, 16, 17, 18, 19, 20, 21, 22, 23, 24, 25, 26, 27, 28, 29, 30, 31, 32, 33, 34, 35, 36, 37, 38, 39, 40, 41, 42, 43, 44, 45, 46, 47, 48, 49, 50, 51, 52, 53, 54, 55, 56, 57, 58, 59, 60, 61, 62, 63, 64, 65, 66, 67, 68, 69, 70, 71, 72, 73, 74, 75, 76, 77, 78, 79, 80, 81, 82, 83, 84, 85, 86, 87, 88, 89, 90, 91, 92, 93, 94, 95, 96, 97, 98, 99, 100, 101, 102, 103, 104, 105, 106, 107, 108, 109, 110, 111, 112, 113, 114, 115, 116, 117, 118, 119, 120, 121, 122, 123, 124, 125, 126, 127, 128, 129, 130, 131, 132, 133, 134, 135, 136, 137, 138, 139, 140, 141, 142, 143, 144, 145, 146, 147, 148, 149, 150, 151, 152, 153, 154, 155, 156, 157, 158, 159, 160, 161, 162, 163, 164, 165, 166, 167, 168, 169, 170, 171, 172, 173, 174, 175, 176, 177, 178, 179, 180, 181, 182, 183, 184, 185, 186, 187, 188, 189, 190, 191, 192, 193, 194, 195, 196, 197, 198, 199, 200, 201, 202, 203, 204, 205, 206, 207, 208, 209, 210, 211, 212, 213, 214, 215, 216, 217, 218, 219, 220, 221, 222, 223, 224, 225, 226, 227, 228, 229, 230, 231, 232, 233, 234, 235, 236, 237, 238, 239, 240, 241, 242, 243, 244, 245, 246, 247, 248, 249, 250, 251, 252, 253, 254, 255, 256, 257, 258, 259, 260, 261, 262, 263, 264, 265, 266, 267, 268, 269, 270, 271, 272, 273, 274, 275, 276, 277, 278, 279, 280, 281, 282, 283, 284, 285, 286, 287, 288, 289, 290, 291, 292, 293, 294, 295, 296, 297, 298, 299, 300, 301, 302, 303, 304, 305, 306, 307, 308, 309, 310, 311, 312, 313, 314, 315, 316, 317, 318, 319, 320, 321, 322, 323, 324, 325, 326, 327, 328, 329, 330, 331, 332, 333, 334, 335, 336, 337, 338, 339, 340, 341, 342, 343, 344, 345, 346, 347, 348, 349, 350, 351, 352, 353, 354, 355, 356, 357, 358, 359, 360, 361, 362, 363, 364, 365, 366, 367, 368, 369, 370, 371, 372, 373, 374, 375, 376, 377, 378, 379, 380, 381, 382, 383, 384, 385, 386, 387, 388, 389, 390, 391, 392, 393, 394, 395, 396, 397, 398, 399, 400, 401, 402, 403, 404, 405, 406, 407, 408, 409, 410, 411, 412, 413, 414, 415, 416, 417, 418, 419, 420, 421, 422, 423, 424, 425, 426, 427, 428, 429, 430, 431, 432, 433, 434, 435, 436, 437, 438, 439, 440, 441, 442, 443, 444, 445, 446, 447, 448, 449, 450, 451, 452, 453, 454, 455, 456, 457, 458, 459, 460, 461, 462, 463, 464, 465, 466, 467, 468, 469, 470, 471, 472, 473, 474, 475, 476, 477, 478, 479, 480, 481, 482],
      "AcquisitionTime": ["155107.017500", "155108.507500", "155109.997500", "155111.487500", "155112.977500", "155114.467500", "155115.957500", "155117.447500", "155118.937500", "155120.427500", "155121.917500", "155123.407500", "155124.897500", "155126.387500", "155127.877500", "155129.367500", "155130.857500", "155132.347500", "155133.837500", "155135.327500", "155136.817500", "155138.307500", "155139.797500", "155141.287500", "155142.777500", "155144.267500", "155145.757500", "155147.247500", "155148.737500", "155150.227500", "155151.717500", "155153.207500", "155154.697500", "155156.187500", "155157.677500", "155159.167500", "155200.657500", "155202.147500", "155203.637500", "155205.127500", "155206.617500", "155208.107500", "155209.597500", "155211.087500", "155212.577500", "155214.067500", "155215.557500", "155217.047500", "155218.537500", "155220.027500", "155221.517500", "155223.007500", "155224.497500", "155225.987500", "155227.477500", "155228.967500", "155230.457500", "155231.947500", "155233.437500", "155234.927500", "155236.417500", "155237.907500", "155239.397500", "155240.887500", "155242.377500", "155243.867500", "155245.357500", "155246.847500", "155248.337500", "155249.827500", "155251.317500", "155252.807500", "155254.297500", "155255.787500", "155257.277500", "155258.767500", "155300.257500", "155301.747500", "155303.237500", "155304.727500", "155306.217500", "155307.707500", "155309.197500", "155310.687500", "155312.177500", "155313.667500", "155315.157500", "155316.647500", "155318.137500", "155319.627500", "155321.117500", "155322.607500", "155324.097500", "155325.587500", "155327.077500", "155328.567500", "155330.057500", "155331.547500", "155333.037500", "155334.527500", "155336.017500", "155337.507500", "155338.997500", "155340.487500", "155341.977500", "155343.467500", "155344.957500", "155346.447500", "155347.937500", "155349.427500", "155350.917500", "155352.407500", "155353.897500", "155355.387500", "155356.877500", "155358.367500", "155359.857500", "155401.347500", "155402.837500", "155404.327500", "155405.817500", "155407.307500", "155408.797500", "155410.287500", "155411.777500", "155413.267500", "155414.757500", "155416.247500", "155417.737500", "155419.227500", "155420.717500", "155422.207500", "155423.697500", "155425.187500", "155426.677500", "155428.167500", "155429.657500", "155431.147500", "155432.637500", "155434.127500", "155435.617500", "155437.107500", "155438.597500", "155440.087500", "155441.577500", "155443.067500", "155444.557500", "155446.047500", "155447.537500", "155449.027500", "155450.517500", "155452.007500", "155453.497500", "155454.987500", "155456.477500", "155457.967500", "155459.457500", "155500.947500", "155502.437500", "155503.927500", "155505.417500", "155506.907500", "155508.397500", "155509.887500", "155511.377500", "155512.867500", "155514.357500", "155515.847500", "155517.337500", "155518.827500", "155520.317500", "155521.807500", "155523.297500", "155524.787500", "155526.277500", "155527.767500", "155529.257500", "155530.747500", "155532.237500", "155533.727500", "155535.217500", "155536.707500", "155538.197500", "155539.687500", "155541.177500", "155542.667500", "155544.157500", "155545.647500", "155547.137500", "155548.627500", "155550.117500", "155551.607500", "155553.097500", "155554.587500", "155556.077500", "155557.567500", "155559.057500", "155600.547500", "155602.037500", "155603.527500", "155605.017500", "155606.507500", "155607.997500", "155609.487500", "155610.977500", "155612.467500", "155613.957500", "155615.447500", "155616.937500", "155618.427500", "155619.917500", "155621.407500", "155622.897500", "155624.387500", "155625.877500", "155627.367500", "155628.857500", "155630.347500", "155631.837500", "155633.327500", "155634.817500", "155636.307500", "155637.797500", "155639.287500", "155640.777500", "155642.267500", "155643.757500", "155645.247500", "155646.737500", "155648.227500", "155649.717500", "155651.207500", "155652.697500", "155654.187500", "155655.677500", "155657.167500", "155658.657500", "155700.147500", "155701.637500", "155703.127500", "155704.617500", "155706.107500", "155707.597500", "155709.087500", "155710.577500", "155712.067500", "155713.557500", "155715.047500", "155716.537500", "155718.027500", "155719.517500", "155721.007500", "155722.497500", "155723.987500", "155725.477500", "155726.967500", "155728.457500", "155729.947500", "155731.437500", "155732.927500", "155734.417500", "155735.907500", "155737.397500", "155738.887500", "155740.377500", "155741.867500", "155743.357500", "155744.847500", "155746.337500", "155747.827500", "155749.317500", "155750.807500", "155752.297500", "155753.787500", "155755.277500", "155756.767500", "155758.257500", "155759.747500", "155801.237500", "155802.727500", "155804.217500", "155805.707500", "155807.197500", "155808.687500", "155810.177500", "155811.667500", "155813.157500", "155814.647500", "155816.137500", "155817.627500", "155819.117500", "155820.607500", "155822.097500", "155823.587500", "155825.077500", "155826.567500", "155828.057500", "155829.547500", "155831.037500", "155832.527500", "155834.017500", "155835.507500", "155836.997500", "155838.487500", "155839.977500", "155841.467500", "155842.957500", "155844.447500", "155845.937500", "155847.427500", "155848.917500", "155850.407500", "155851.897500", "155853.387500", "155854.877500", "155856.367500", "155857.857500", "155859.347500", "155900.837500", "155902.327500", "155903.817500", "155905.307500", "155906.797500", "155908.287500", "155909.777500", "155911.267500", "155912.757500", "155914.247500", "155915.737500", "155917.227500", "155918.717500", "155920.207500", "155921.697500", "155923.187500", "155924.677500", "155926.167500", "155927.657500", "155929.147500", "155930.637500", "155932.127500", "155933.617500", "155935.107500", "155936.597500", "155938.087500", "155939.577500", "155941.067500", "155942.557500", "155944.047500", "155945.537500", "155947.027500", "155948.517500", "155950.007500", "155951.497500", "155952.987500", "155954.477500", "155955.967500", "155957.457500", "155958.947500", "160000.437500", "160001.927500", "160003.417500", "160004.907500", "160006.397500", "160007.887500", "160009.377500", "160010.867500", "160012.357500", "160013.847500", "160015.337500", "160016.827500", "160018.317500", "160019.807500", "160021.297500", "160022.787500", "160024.277500", "160025.767500", "160027.257500", "160028.747500", "160030.237500", "160031.727500", "160033.217500", "160034.707500", "160036.197500", "160037.687500", "160039.177500", "160040.667500", "160042.157500", "160043.647500", "160045.137500", "160046.627500", "160048.117500", "160049.607500", "160051.097500", "160052.587500", "160054.077500", "160055.567500", "160057.057500", "160058.547500", "160100.037500", "160101.527500", "160103.017500", "160104.507500", "160105.997500", "160107.487500", "160108.977500", "160110.467500", "160111.957500", "160113.447500", "160114.937500", "160116.427500", "160117.917500", "160119.407500", "160120.897500", "160122.387500", "160123.877500", "160125.367500", "160126.857500", "160128.347500", "160129.837500", "160131.327500", "160132.817500", "160134.307500", "160135.797500", "160137.287500", "160138.777500", "160140.267500", "160141.757500", "160143.247500", "160144.737500", "160146.227500", "160147.717500", "160149.207500", "160150.697500", "160152.187500", "160153.677500", "160155.167500", "160156.657500", "160158.147500", "160159.637500", "160201.127500", "160202.617500", "160204.107500", "160205.597500", "160207.087500", "160208.577500", "160210.067500", "160211.557500", "160213.047500", "160214.537500", "160216.027500", "160217.517500", "160219.007500", "160220.497500", "160221.987500", "160223.477500", "160224.967500", "160226.457500", "160227.947500", "160229.437500", "160230.927500", "160232.417500", "160233.907500", "160235.397500", "160236.887500", "160238.377500", "160239.867500", "160241.357500", "160242.847500", "160244.337500", "160245.827500", "160247.317500", "160248.807500", "160250.297500", "160251.787500", "160253.277500", "160254.767500", "160256.257500", "160257.747500", "160259.237500", "160300.727500", "160302.217500", "160303.707500"],
      "ContentTime": ["155210.326000", "155210.336000", "155210.339000", "155210.343000", "155210.346000", "155210.349000", "155210.353000", "155210.356000", "155210.359000", "155210.363000", "155210.366000", "155210.369000", "155210.372000", "155210.376000", "155210.379000", "155230.277000", "155230.281000", "155230.284000", "155230.288000", "155230.291000", "155230.300000", "155230.303000", "155230.306000", "155230.310000", "155230.313000", "155230.316000", "155230.320000", "155230.323000", "155230.326000", "155230.330000", "155230.333000", "155230.336000", "155230.340000", "155230.343000", "155230.346000", "155250.277000", "155250.281000", "155250.284000", "155250.287000", "155250.291000", "155250.294000", "155250.297000", "155250.301000", "155250.304000", "155250.307000", "155250.311000", "155250.315000", "155250.318000", "155250.322000", "155250.325000", "155250.328000", "155250.332000", "155250.335000", "155250.339000", "155250.342000", "155310.277000", "155310.281000", "155310.285000", "155310.288000", "155310.292000", "155310.296000", "155310.299000", "155310.303000", "155310.306000", "155310.309000", "155310.313000", "155310.323000", "155310.327000", "155310.330000", "155310.334000", "155310.337000", "155310.341000", "155310.344000", "155310.348000", "155310.351000", "155330.277000", "155330.281000", "155330.285000", "155330.288000", "155330.292000", "155330.295000", "155330.298000", "155330.302000", "155330.305000", "155330.309000", "155330.312000", "155330.315000", "155330.319000", "155330.322000", "155330.326000", "155330.329000", "155330.333000", "155330.336000", "155330.339000", "155330.343000", "155410.277000", "155410.281000", "155410.285000", "155410.288000", "155410.291000", "155410.294000", "155410.298000", "155410.301000", "155410.304000", "155410.308000", "155410.312000", "155410.322000", "155410.325000", "155410.328000", "155410.332000", "155410.335000", "155410.339000", "155410.343000", "155410.346000", "155410.350000", "155410.353000", "155410.356000", "155410.360000", "155410.363000", "155410.366000", "155410.370000", "155410.373000", "155450.277000", "155450.281000", "155450.284000", "155450.288000", "155450.291000", "155450.295000", "155450.298000", "155450.301000", "155450.305000", "155450.308000", "155450.312000", "155450.315000", "155450.319000", "155450.322000", "155450.326000", "155450.329000", "155450.333000", "155450.337000", "155450.340000", "155450.344000", "155450.347000", "155450.350000", "155450.354000", "155450.357000", "155450.361000", "155450.364000", "155450.367000", "155530.277000", "155530.281000", "155530.284000", "155530.288000", "155530.291000", "155530.294000", "155530.310000", "155530.314000", "155530.317000", "155530.320000", "155530.324000", "155530.327000", "155530.331000", "155530.334000", "155530.338000", "155530.341000", "155530.345000", "155530.348000", "155530.351000", "155530.355000", "155530.358000", "155530.362000", "155530.365000", "155530.368000", "155530.372000", "155530.375000", "155530.379000", "155610.277000", "155610.281000", "155610.284000", "155610.288000", "155610.291000", "155610.295000", "155610.298000", "155610.301000", "155610.305000", "155610.308000", "155610.312000", "155610.315000", "155610.318000", "155610.322000", "155610.325000", "155610.329000", "155610.332000", "155610.335000", "155610.339000", "155610.342000", "155610.346000", "155610.349000", "155610.352000", "155610.356000", "155610.360000", "155610.363000", "155610.366000", "155650.277000", "155650.281000", "155650.284000", "155650.288000", "155650.291000", "155650.295000", "155650.298000", "155650.302000", "155650.305000", "155650.308000", "155650.312000", "155650.315000", "155650.319000", "155650.322000", "155650.325000", "155650.329000", "155650.332000", "155650.336000", "155650.340000", "155650.344000", "155650.348000", "155650.351000", "155650.355000", "155650.374000", "155650.378000", "155650.381000", "155730.277000", "155730.281000", "155730.285000", "155730.288000", "155730.291000", "155730.295000", "155730.298000", "155730.302000", "155730.305000", "155730.308000", "155730.312000", "155730.315000", "155730.329000", "155730.332000", "155730.335000", "155730.339000", "155730.342000", "155730.345000", "155730.349000", "155730.352000", "155730.355000", "155730.359000", "155730.362000", "155730.366000", "155730.369000", "155730.372000", "155730.376000", "155810.277000", "155810.281000", "155810.285000", "155810.289000", "155810.293000", "155810.297000", "155810.301000", "155810.304000", "155810.316000", "155810.320000", "155810.324000", "155810.327000", "155810.331000", "155810.334000", "155810.338000", "155810.342000", "155810.345000", "155810.349000", "155810.352000", "155810.356000", "155810.360000", "155810.364000", "155810.368000", "155810.371000", "155810.375000", "155810.379000", "155810.382000", "155850.277000", "155850.281000", "155850.285000", "155850.288000", "155850.291000", "155850.295000", "155850.298000", "155850.301000", "155850.305000", "155850.308000", "155850.312000", "155850.315000", "155850.319000", "155850.322000", "155850.325000", "155850.329000", "155850.332000", "155850.336000", "155850.339000", "155850.342000", "155850.346000", "155850.349000", "155850.353000", "155850.356000", "155850.359000", "155850.363000", "155850.366000", "155910.278000", "155910.281000", "155910.285000", "155910.288000", "155910.292000", "155910.295000", "155910.299000", "155910.302000", "155910.305000", "155910.309000", "155910.312000", "155910.316000", "155910.320000", "155950.277000", "155950.281000", "155950.285000", "155950.288000", "155950.291000", "155950.295000", "155950.298000", "155950.302000", "155950.305000", "155950.309000", "155950.312000", "155950.316000", "155950.319000", "155950.322000", "155950.326000", "155950.329000", "155950.333000", "155950.336000", "155950.340000", "155950.343000", "155950.346000", "155950.350000", "155950.353000", "155950.357000", "155950.360000", "155950.364000", "155950.370000", "160030.277000", "160030.281000", "160030.285000", "160030.289000", "160030.292000", "160030.296000", "160030.299000", "160030.303000", "160030.306000", "160030.309000", "160030.313000", "160030.316000", "160030.320000", "160030.323000", "160030.326000", "160030.330000", "160030.333000", "160030.337000", "160030.340000", "160030.343000", "160030.347000", "160030.350000", "160030.354000", "160030.357000", "160030.367000", "160030.370000", "160030.374000", "160110.277000", "160110.281000", "160110.285000", "160110.288000", "160110.291000", "160110.295000", "160110.298000", "160110.302000", "160110.305000", "160110.308000", "160110.312000", "160110.315000", "160110.319000", "160110.322000", "160110.326000", "160110.329000", "160110.332000", "160110.336000", "160110.339000", "160110.343000", "160110.346000", "160110.349000", "160110.353000", "160110.356000", "160110.366000", "160110.369000", "160110.372000", "160150.277000", "160150.281000", "160150.285000", "160150.288000", "160150.291000", "160150.295000", "160150.298000", "160150.302000", "160150.305000", "160150.308000", "160150.312000", "160150.315000", "160150.319000", "160150.322000", "160150.325000", "160150.329000", "160150.332000", "160150.335000", "160150.339000", "160150.342000", "160150.346000", "160150.349000", "160150.352000", "160150.356000", "160150.364000", "160150.367000", "160150.371000", "160230.277000", "160230.281000", "160230.284000", "160230.288000", "160230.291000", "160230.295000", "160230.298000", "160230.301000", "160230.305000", "160230.308000", "160230.311000", "160230.315000", "160230.318000", "160230.321000", "160230.325000", "160230.328000", "160230.332000", "160230.335000", "160230.338000", "160230.342000", "160230.345000", "160230.348000", "160230.352000", "160230.355000", "160230.359000", "160230.362000", "160230.365000", "160306.072000", "160306.076000", "160306.079000", "160306.083000", "160306.086000", "160306.090000", "160306.093000", "160306.097000", "160306.100000", "160306.103000", "160306.107000", "160306.111000", "160306.115000", "160306.118000", "160306.122000", "160306.126000", "160306.129000", "160306.133000", "160306.137000", "160306.141000", "160306.144000", "160306.148000", "160306.151000", "160306.155000"],
