{
  "AcquisitionMatrixPE": 104,
  "AcquisitionNumber": 1,
  "AcquisitionTime": "18:12:24.485000",
  "BandwidthPerPixelPhaseEncode": 17.17,
  "BaseResolution": 104,
  "BodyPartExamined": "BRAIN",
  "CoilCombinationMethod": "Sum of Squares",
  "ConsistencyInfo": "N4_VE11C_LATEST_20160120",
  "ConversionSoftware": "dcm2niix",
  "ConversionSoftwareVersion": "v1.0.20211006",
  "DerivedVendorReportedEchoSpacing": 0.000560011,
  "DeviceSerialNumber": "167006",
  "DwellTime": 2.1e-06,
  "EchoTime": 0.037,
  "EchoTime1": 0.037,
  "EchoTime2": 0.001,
  "EchoTrainLength": 104,
  "EffectiveEchoSpacing": 0.000560011,
  "FlipAngle": 52,
  "HeudiconvVersion": "0.5.3.post569+g418601f",
  "ImageComments": "Unaliased MB4/PE3/LB",
  "ImageOrientationPatientDICOM": [0.992598, 0.119452, 0.0219303, -0.10275, 0.922237, -0.372723],
  "ImageOrientationText": "Tra>Cor(-21.6)>Sag(3.7)",
  "ImageType": [
    "ORIGINAL",
    "PRIMARY",
    "P",
    "MB",
    "ND",
    "MOSAIC",
    "PHASE"
],
  "ImagingFrequency": 123.259,
  "InPlanePhaseEncodingDirectionDICOM": "COL",
  "InstitutionAddress": "Chemin Queen-Mary 4565,Montreal,District,CA,H3W 1W5",
  "InstitutionName": "IUGM",
  "InstitutionalDepartmentName": "Department",
  "MRAcquisitionType": "2D",
  "MagneticFieldStrength": 3,
  "Manufacturer": "Siemens",
  "ManufacturersModelName": "Prisma_fit",
  "MatrixCoilMode": "SENSE",
  "Modality": "MR",
  "MultibandAccelerationFactor": 4,
  "PartialFourier": 1,
  "PatientPosition": "HFS",
  "PercentPhaseFOV": 100,
  "PercentSampling": 100,
  "PhaseEncodingDirection": "j",
  "PhaseEncodingSteps": 104,
  "PhaseResolution": 1,
  "PixelBandwidth": 2290,
  "ProcedureStepDescription": "games^mariostars",
  "ProtocolName": "func_task-mariostars_run-04",
  "PulseSequenceDetails": "%CustomerSeq%\\cmrr_mbep2d_bold",
  "ReceiveCoilActiveElements": "HC1-7;NC1,2",
  "ReceiveCoilName": "HeadNeck_64",
  "ReconMatrixPE": 104,
  "RepetitionTime": 1.49,
  "SAR": 0.0459439,
  "ScanOptions": "FS",
  "ScanningSequence": "EP",
  "SequenceName": "epfid2d1_104",
  "SequenceVariant": "SK\\SS",
  "SeriesDescription": "func_task-mariostars_run-04",
  "SeriesNumber": 23,
  "ShimSetting": [623, -7174, -8855, 635, 93, -4, -101, 16],
  "SliceThickness": 2,
  "SliceTiming": [0, 0.785, 0.1, 0.8825, 0.1975, 0.98, 0.295, 1.0775, 0.3925, 1.1775, 0.49, 1.275, 0.59, 1.3725, 0.6875, 0, 0.785, 0.1, 0.8825, 0.1975, 0.98, 0.295, 1.0775, 0.3925, 1.1775, 0.49, 1.275, 0.59, 1.3725, 0.6875, 0, 0.785, 0.1, 0.8825, 0.1975, 0.98, 0.295, 1.0775, 0.3925, 1.1775, 0.49, 1.275, 0.59, 1.3725, 0.6875, 0, 0.785, 0.1, 0.8825, 0.1975, 0.98, 0.295, 1.0775, 0.3925, 1.1775, 0.49, 1.275, 0.59, 1.3725, 0.6875],
  "SoftwareVersions": "syngo MR E11",
  "SpacingBetweenSlices": 2,
  "StationName": "MRC35049",
  "TaskName": "mariostars",
  "TotalReadoutTime": 0.0576811,
  "TxRefAmp": 257.4,
  "WipMemBlock": "70e4af36-d46a-4254-9583-924b8e1f6a22||Sequence: R016 ve11c/master r/e634e98; Dec 19 2017 11:00:25 by eja",
  "dcmmeta_affine": [
    [-1.9851953983306885, -0.20550008118152618, 0.1294950395822525, 112.49183654785156],
    [-0.23890478909015656, 1.844473123550415, -0.7354204058647156, -45.72905349731445],
    [0.04386058822274208, 0.7454451322555542, 1.8553673028945923, -75.43840026855469],
    [0.0, 0.0, 0.0, 1.0]
],
  "dcmmeta_reorient_transform": [
    [0.0, -1.0, 0.0, 103.0],
    [1.0, 0.0, 0.0, 0.0],
    [0.0, 0.0, 1.0, 0.0],
    [0.0, 0.0, 0.0, 1.0]
],
  "dcmmeta_shape": [104, 104, 60, 440],
  "dcmmeta_slice_dim": 2,
  "dcmmeta_version": 0.6,
  "global": {
    "const": {
      "AcquisitionMatrix": [104, 0, 0, 104],
      "AngioFlag": "N",
      "BitsAllocated": 16,
      "BitsStored": 16,
      "BodyPartExamined": "BRAIN",
      "Columns": 832,
      "EchoNumbers": 1,
      "EchoTime": 37.0,
      "EchoTrainLength": 104,
      "FlipAngle": 52.0,
      "HighBit": 15,
      "ImageOrientationPatient": [0.99259769711535, 0.11945239170764, 0.02193029403866, -0.1027500380397, 0.92223658959664, -0.3727225543108],
      "ImagePositionPatient": [-739.13442474569, -902.60126332895, 256.71921074787],
      "ImageType": [
        "ORIGINAL",
        "PRIMARY",
        "P",
        "MB",
        "ND",
        "MOSAIC"
],
      "ImagedNucleus": "1H",
      "ImagingFrequency": 123.258867,
      "InPlanePhaseEncodingDirection": "COL",
      "LargestImagePixelValue": 4095,
      "MRAcquisitionType": "2D",
      "MagneticFieldStrength": 3.0,
      "Manufacturer": "SIEMENS",
      "ManufacturerModelName": "Prisma_fit",
      "Modality": "MR",
      "NumberOfAverages": 1.0,
      "NumberOfPhaseEncodingSteps": 104,
      "PercentPhaseFieldOfView": 100.0,
      "PercentSampling": 100.0,
      "PerformedProcedureStepStartTime": "165158.091000",
      "PhotometricInterpretation": "MONOCHROME2",
      "PixelBandwidth": 2290.0,
      "PixelRepresentation": 0,
      "PixelSpacing": [2.0, 2.0],
      "ProtocolName": "func_task-mariostars_run-04",
      "RepetitionTime": 1490.0,
      "RescaleIntercept": -4096.0,
      "RescaleSlope": 2.0,
      "RescaleType": "US",
      "Rows": 832,
      "SAR": 0.04594386092004,
      "SamplesPerPixel": 1,
      "ScanOptions": "FS",
      "ScanningSequence": "EP",
      "SequenceName": "epfid2d1_104",
      "SequenceVariant": [
        "SK",
        "SS"
],
      "SeriesDescription": "func_task-mariostars_run-04",
      "SeriesNumber": 23,
      "SeriesTime": "181353.395000",
      "SliceLocation": -45.884364331522,
      "SliceThickness": 2.0,
      "SmallestImagePixelValue": 0,
      "SoftwareVersions": "syngo MR E11",
      "SpacingBetweenSlices": 2.0000000022287,
      "SpecificCharacterSet": "ISO_IR 100",
      "StudyID": "1",
      "StudyTime": "165158.028000",
      "TransmitCoilName": "Body",
      "VariableFlipAngleFlag": "N",
      "WindowCenterWidthExplanation": "Algo1",
      "dBdt": 0.0},
    "slices": {}
  },
  "time": {
    "samples": {
      "AcquisitionNumber": [1, 2, 3, 4, 5, 6, 7, 8, 9, 10, 11, 12, 13, 14, 15, 16, 17, 18, 19, 20, 21, 22, 23, 24, 25, 26, 27, 28, 29, 30, 31, 32, 33, 34, 35, 36, 37, 38, 39, 40, 41, 42, 43, 44, 45, 46, 47, 48, 49, 50, 51, 52, 53, 54, 55, 56, 57, 58, 59, 60, 61, 62, 63, 64, 65, 66, 67, 68, 69, 70, 71, 72, 73, 74, 75, 76, 77, 78, 79, 80, 81, 82, 83, 84, 85, 86, 87, 88, 89, 90, 91, 92, 93, 94, 95, 96, 97, 98, 99, 100, 101, 102, 103, 104, 105, 106, 107, 108, 109, 110, 111, 112, 113, 114, 115, 116, 117, 118, 119, 120, 121, 122, 123, 124, 125, 126, 127, 128, 129, 130, 131, 132, 133, 134, 135, 136, 137, 138, 139, 140, 141, 142, 143, 144, 145, 146, 147, 148, 149, 150, 151, 152, 153, 154, 155, 156, 157, 158, 159, 160, 161, 162, 163, 164, 165, 166, 167, 168, 169, 170, 171, 172, 173, 174, 175, 176, 177, 178, 179, 180, 181, 182, 183, 184, 185, 186, 187, 188, 189, 190, 191, 192, 193, 194, 195, 196, 197, 198, 199, 200, 201, 202, 203, 204, 205, 206, 207, 208, 209, 210, 211, 212, 213, 214, 215, 216, 217, 218, 219, 220, 221, 222, 223, 224, 225, 226, 227, 228, 229, 230, 231, 232, 233, 234, 235, 236, 237, 238, 239, 240, 241, 242, 243, 244, 245, 246, 247, 248, 249, 250, 251, 252, 253, 254, 255, 256, 257, 258, 259, 260, 261, 262, 263, 264, 265, 266, 267, 268, 269, 270, 271, 272, 273, 274, 275, 276, 277, 278, 279, 280, 281, 282, 283, 284, 285, 286, 287, 288, 289, 290, 291, 292, 293, 294, 295, 296, 297, 298, 299, 300, 301, 302, 303, 304, 305, 306, 307, 308, 309, 310, 311, 312, 313, 314, 315, 316, 317, 318, 319, 320, 321, 322, 323, 324, 325, 326, 327, 328, 329, 330, 331, 332, 333, 334, 335, 336, 337, 338, 339, 340, 341, 342, 343, 344, 345, 346, 347, 348, 349, 350, 351, 352, 353, 354, 355, 356, 357, 358, 359, 360, 361, 362, 363, 364, 365, 366, 367, 368, 369, 370, 371, 372, 373, 374, 375, 376, 377, 378, 379, 380, 381, 382, 383, 384, 385, 386, 387, 388, 389, 390, 391, 392, 393, 394, 395, 396, 397, 398, 399, 400, 401, 402, 403, 404, 405, 406, 407, 408, 409, 410, 411, 412, 413, 414, 415, 416, 417, 418, 419, 420, 421, 422, 423, 424, 425, 426, 427, 428, 429, 430, 431, 432, 433, 434, 435, 436, 437, 438, 439, 440],
      "AcquisitionTime": ["181224.485000", "181225.975000", "181227.465000", "181228.955000", "181230.445000", "181231.935000", "181233.425000", "181234.915000", "181236.405000", "181237.895000", "181239.385000", "181240.875000", "181242.365000", "181243.855000", "181245.345000", "181246.835000", "181248.325000", "181249.815000", "181251.305000", "181252.795000", "181254.285000", "181255.775000", "181257.265000", "181258.755000", "181300.245000", "181301.735000", "181303.225000", "181304.715000", "181306.205000", "181307.695000", "181309.185000", "181310.675000", "181312.165000", "181313.655000", "181315.145000", "181316.635000", "181318.125000", "181319.615000", "181321.105000", "181322.595000", "181324.085000", "181325.575000", "181327.065000", "181328.555000", "181330.045000", "181331.535000", "181333.025000", "181334.515000", "181336.005000", "181337.495000", "181338.985000", "181340.475000", "181341.965000", "181343.455000", "181344.945000", "181346.435000", "181347.925000", "181349.415000", "181350.905000", "181352.395000", "181353.885000", "181355.375000", "181356.865000", "181358.355000", "181359.845000", "181401.335000", "181402.825000", "181404.315000", "181405.805000", "181407.295000", "181408.785000", "181410.275000", "181411.765000", "181413.255000", "181414.745000", "181416.235000", "181417.725000", "181419.215000", "181420.705000", "181422.195000", "181423.685000", "181425.175000", "181426.665000", "181428.155000", "181429.645000", "181431.135000", "181432.625000", "181434.115000", "181435.605000", "181437.095000", "181438.585000", "181440.075000", "181441.565000", "181443.055000", "181444.545000", "181446.035000", "181447.525000", "181449.015000", "181450.505000", "181451.995000", "181453.485000", "181454.975000", "181456.465000", "181457.955000", "181459.445000", "181500.935000", "181502.425000", "181503.915000", "181505.405000", "181506.895000", "181508.385000", "181509.875000", "181511.365000", "181512.855000", "181514.345000", "181515.835000", "181517.325000", "181518.815000", "181520.305000", "181521.795000", "181523.285000", "181524.775000", "181526.265000", "181527.755000", "181529.245000", "181530.735000", "181532.225000", "181533.715000", "181535.205000", "181536.695000", "181538.185000", "181539.675000", "181541.165000", "181542.655000", "181544.145000", "181545.635000", "181547.125000", "181548.615000", "181550.105000", "181551.595000", "181553.085000", "181554.575000", "181556.065000", "181557.555000", "181559.045000", "181600.535000", "181602.025000", "181603.515000", "181605.005000", "181606.495000", "181607.985000", "181609.475000", "181610.965000", "181612.455000", "181613.945000", "181615.435000", "181616.925000", "181618.415000", "181619.905000", "181621.395000", "181622.885000", "181624.375000", "181625.865000", "181627.355000", "181628.845000", "181630.335000", "181631.825000", "181633.315000", "181634.805000", "181636.295000", "181637.785000", "181639.275000", "181640.765000", "181642.255000", "181643.745000", "181645.235000", "181646.725000", "181648.215000", "181649.705000", "181651.195000", "181652.685000", "181654.175000", "181655.665000", "181657.155000", "181658.645000", "181700.135000", "181701.625000", "181703.115000", "181704.605000", "181706.095000", "181707.585000", "181709.075000", "181710.565000", "181712.055000", "181713.545000", "181715.035000", "181716.525000", "181718.015000", "181719.505000", "181720.995000", "181722.485000", "181723.975000", "181725.465000", "181726.955000", "181728.445000", "181729.935000", "181731.425000", "181732.915000", "181734.405000", "181735.895000", "181737.385000", "181738.875000", "181740.365000", "181741.855000", "181743.345000", "181744.835000", "181746.325000", "181747.815000", "181749.305000", "181750.795000", "181752.285000", "181753.775000", "181755.265000", "181756.755000", "181758.245000", "181759.735000", "181801.225000", "181802.715000", "181804.205000", "181805.695000", "181807.185000", "181808.675000", "181810.165000", "181811.655000", "181813.145000", "181814.635000", "181816.125000", "181817.615000", "181819.105000", "181820.595000", "181822.085000", "181823.575000", "181825.065000", "181826.555000", "181828.045000", "181829.535000", "181831.025000", "181832.515000", "181834.005000", "181835.495000", "181836.985000", "181838.475000", "181839.965000", "181841.455000", "181842.945000", "181844.435000", "181845.925000", "181847.415000", "181848.905000", "181850.395000", "181851.885000", "181853.375000", "181854.865000", "181856.355000", "181857.845000", "181859.335000", "181900.825000", "181902.315000", "181903.805000", "181905.295000", "181906.785000", "181908.275000", "181909.765000", "181911.255000", "181912.745000", "181914.235000", "181915.725000", "181917.215000", "181918.705000", "181920.195000", "181921.685000", "181923.175000", "181924.665000", "181926.155000", "181927.645000", "181929.135000", "181930.625000", "181932.115000", "181933.605000", "181935.095000", "181936.585000", "181938.075000", "181939.565000", "181941.055000", "181942.545000", "181944.035000", "181945.525000", "181947.015000", "181948.505000", "181949.995000", "181951.485000", "181952.975000", "181954.465000", "181955.955000", "181957.445000", "181958.935000", "182000.425000", "182001.915000", "182003.405000", "182004.895000", "182006.385000", "182007.875000", "182009.365000", "182010.855000", "182012.345000", "182013.835000", "182015.325000", "182016.815000", "182018.305000", "182019.795000", "182021.285000", "182022.775000", "182024.265000", "182025.755000", "182027.245000", "182028.735000", "182030.225000", "182031.715000", "182033.205000", "182034.695000", "182036.185000", "182037.675000", "182039.165000", "182040.655000", "182042.145000", "182043.635000", "182045.125000", "182046.615000", "182048.105000", "182049.595000", "182051.085000", "182052.575000", "182054.065000", "182055.555000", "182057.045000", "182058.535000", "182100.025000", "182101.515000", "182103.005000", "182104.495000", "182105.985000", "182107.475000", "182108.965000", "182110.455000", "182111.945000", "182113.435000", "182114.925000", "182116.415000", "182117.905000", "182119.395000", "182120.885000", "182122.375000", "182123.865000", "182125.355000", "182126.845000", "182128.335000", "182129.825000", "182131.315000", "182132.805000", "182134.295000", "182135.785000", "182137.275000", "182138.765000", "182140.255000", "182141.745000", "182143.235000", "182144.725000", "182146.215000", "182147.705000", "182149.195000", "182150.685000", "182152.175000", "182153.665000", "182155.155000", "182156.645000", "182158.135000", "182159.625000", "182201.115000", "182202.605000", "182204.095000", "182205.585000", "182207.075000", "182208.565000", "182210.055000", "182211.545000", "182213.035000", "182214.525000", "182216.015000", "182217.505000", "182218.995000", "182220.485000", "182221.975000", "182223.465000", "182224.955000", "182226.445000", "182227.935000", "182229.425000", "182230.915000", "182232.405000", "182233.895000", "182235.385000", "182236.875000", "182238.365000", "182239.855000", "182241.345000", "182242.835000", "182244.325000", "182245.815000", "182247.305000", "182248.795000", "182250.285000", "182251.775000", "182253.265000", "182254.755000", "182256.245000", "182257.735000", "182259.225000", "182300.715000", "182302.205000", "182303.695000", "182305.185000", "182306.675000", "182308.165000", "182309.655000", "182311.145000", "182312.635000", "182314.125000", "182315.615000", "182317.105000", "182318.595000"],
      "ContentTime": ["181353.397000", "181353.400000", "181353.402000", "181353.405000", "181353.411000", "181353.414000", "181353.416000", "181353.419000", "181353.422000", "181353.424000", "181353.427000", "181353.429000", "181353.432000", "181353.435000", "181353.437000", "181353.440000", "181353.442000", "181353.445000", "181353.447000", "181353.450000", "181353.452000", "181353.455000", "181353.457000", "181353.460000", "181353.463000", "181353.465000", "181353.468000", "181353.470000", "181353.473000", "181353.475000", "181353.478000", "181353.480000", "181353.483000", "181353.485000", "181353.488000", "181413.262000", "181413.265000", "181413.267000", "181413.270000", "181413.272000", "181413.275000", "181413.277000", "181413.280000", "181413.282000", "181413.285000", "181413.287000", "181413.290000", "181413.292000", "181413.295000", "181413.302000", "181413.305000", "181413.307000", "181413.310000", "181413.312000", "181413.315000", "181433.266000", "181433.269000", "181433.272000", "181433.274000", "181433.277000", "181433.280000", "181433.282000", "181433.285000", "181433.287000", "181433.290000", "181433.292000", "181433.295000", "181433.297000", "181433.300000", "181433.302000", "181433.305000", "181433.308000", "181433.310000", "181433.313000", "181433.315000", "181453.323000", "181453.325000", "181453.328000", "181453.331000", "181453.333000", "181453.336000", "181453.338000", "181453.341000", "181453.343000", "181453.346000", "181453.348000", "181453.351000", "181453.353000", "181453.356000", "181453.359000", "181453.361000", "181453.364000", "181453.366000", "181453.369000", "181453.371000", "181533.308000", "181533.311000", "181533.313000", "181533.316000", "181533.318000", "181533.321000", "181533.324000", "181533.326000", "181533.329000", "181533.331000", "181533.334000", "181533.336000", "181533.339000", "181533.342000", "181533.344000", "181533.347000", "181533.350000", "181533.352000", "181533.355000", "181533.357000", "181533.360000", "181533.363000", "181533.374000", "181533.377000", "181533.380000", "181533.382000", "181533.385000", "181533.387000", "181533.390000", "181533.392000", "181613.322000", "181613.325000", "181613.327000", "181613.330000", "181613.332000", "181613.335000", "181613.337000", "181613.340000", "181613.343000", "181613.345000", "181613.348000", "181613.350000", "181613.353000", "181613.355000", "181613.358000", "181613.361000", "181613.363000", "181613.366000", "181613.368000", "181613.371000", "181613.373000", "181613.376000", "181613.379000", "181613.381000", "181613.384000", "181613.386000", "181613.389000", "181653.300000", "181653.303000", "181653.306000", "181653.308000", "181653.311000", "181653.313000", "181653.316000", "181653.319000", "181653.321000", "181653.324000", "181653.326000", "181653.329000", "181653.331000", "181653.334000", "181653.337000", "181653.339000", "181653.342000", "181653.344000", "181653.347000", "181653.349000", "181653.352000", "181653.355000", "181653.357000", "181653.360000", "181653.362000", "181653.365000", "181653.367000", "181733.319000", "181733.322000", "181733.325000", "181733.327000", "181733.330000", "181733.332000", "181733.335000", "181733.337000", "181733.340000", "181733.343000", "181733.345000", "181733.348000", "181733.350000", "181733.353000", "181733.355000", "181733.358000", "181733.360000", "181733.367000", "181733.370000", "181733.372000", "181733.375000", "181733.378000", "181733.380000", "181733.383000", "181733.385000", "181733.388000", "181733.391000", "181813.304000", "181813.307000", "181813.310000", "181813.312000", "181813.315000", "181813.317000", "181813.320000", "181813.322000", "181813.325000", "181813.327000", "181813.330000", "181813.333000", "181813.335000", "181813.338000", "181813.340000", "181813.343000", "181813.346000", "181813.348000", "181813.351000", "181813.353000", "181813.356000", "181813.358000", "181813.361000", "181813.364000", "181813.366000", "181813.369000", "181813.371000", "181853.301000", "181853.304000", "181853.307000", "181853.309000", "181853.312000", "181853.315000", "181853.317000", "181853.320000", "181853.322000", "181853.325000", "181853.328000", "181853.330000", "181853.333000", "181853.335000", "181853.338000", "181853.340000", "181853.343000", "181853.346000", "181853.348000", "181853.351000", "181853.353000", "181853.356000", "181853.359000", "181853.361000", "181853.364000", "181853.366000", "181853.369000", "181933.320000", "181933.323000", "181933.326000", "181933.328000", "181933.331000", "181933.334000", "181933.336000", "181933.339000", "181933.341000", "181933.344000", "181933.346000", "181933.349000", "181933.351000", "181933.354000", "181933.357000", "181933.359000", "181933.362000", "181933.364000", "181933.367000", "181933.369000", "181933.372000", "181933.375000", "181933.377000", "181933.380000", "181933.382000", "181933.385000", "182013.300000", "182013.303000", "182013.305000", "182013.308000", "182013.310000", "182013.313000", "182013.316000", "182013.319000", "182013.322000", "182013.324000", "182013.327000", "182013.329000", "182013.332000", "182013.335000", "182013.337000", "182013.340000", "182013.342000", "182013.345000", "182013.347000", "182013.350000", "182013.353000", "182013.355000", "182013.358000", "182013.360000", "182013.363000", "182013.365000", "182013.368000", "182053.309000", "182053.311000", "182053.314000", "182053.317000", "182053.319000", "182053.322000", "182053.324000", "182053.327000", "182053.329000", "182053.332000", "182053.334000", "182053.337000", "182053.340000", "182053.342000", "182053.345000", "182053.347000", "182053.350000", "182053.353000", "182053.355000", "182053.358000", "182053.360000", "182053.363000", "182053.366000", "182053.368000", "182053.371000", "182053.373000", "182053.376000", "182133.305000", "182133.308000", "182133.310000", "182133.313000", "182133.316000", "182133.318000", "182133.321000", "182133.323000", "182133.326000", "182133.328000", "182133.331000", "182133.333000", "182133.336000", "182133.339000", "182133.341000", "182133.344000", "182133.347000", "182133.349000", "182133.352000", "182133.354000", "182133.357000", "182133.360000", "182133.362000", "182133.365000", "182133.367000", "182133.370000", "182133.372000", "182213.325000", "182213.327000", "182213.330000", "182213.333000", "182213.335000", "182213.338000", "182213.341000", "182213.343000", "182213.346000", "182213.348000", "182213.351000", "182213.353000", "182213.356000", "182213.359000", "182213.361000", "182213.364000", "182213.366000", "182213.369000", "182213.371000", "182213.374000", "182213.377000", "182213.379000", "182213.382000", "182213.384000", "182213.387000", "182213.389000", "182213.392000", "182253.305000", "182253.307000", "182253.310000", "182253.313000", "182253.315000", "182253.318000", "182253.320000", "182253.323000", "182253.325000", "182253.328000", "182253.330000", "182253.333000", "182253.336000", "182253.338000", "182253.341000", "182253.343000", "182253.346000", "182253.348000", "182253.351000", "182253.354000", "182253.356000", "182253.359000", "182253.361000", "182253.364000", "182253.366000", "182253.369000", "182253.372000", "182321.579000", "182321.582000", "182321.585000", "182321.587000", "182321.590000", "182321.593000", "182321.595000", "182321.598000", "182321.601000", "182321.604000", "182321.613000", "182321.616000", "182321.618000", "182321.621000", "182321.624000", "182321.626000", "182321.629000", "182321.632000", "182321.635000"],
