{
  "AcquisitionMatrixPE": 104,
  "AcquisitionNumber": 1,
  "AcquisitionTime": "17:58:46.932500",
  "BandwidthPerPixelPhaseEncode": 17.17,
  "BaseResolution": 104,
  "BodyPartExamined": "BRAIN",
  "CoilCombinationMethod": "Sum of Squares",
  "ConsistencyInfo": "N4_VE11C_LATEST_20160120",
  "ConversionSoftware": "dcm2niix",
  "ConversionSoftwareVersion": "v1.0.20211006",
  "DerivedVendorReportedEchoSpacing": 0.000560011,
  "DeviceSerialNumber": "167006",
  "DwellTime": 2.1e-06,
  "EchoTime": 0.037,
  "EchoTrainLength": 104,
  "EffectiveEchoSpacing": 0.000560011,
  "FlipAngle": 52,
  "HeudiconvVersion": "0.5.3.post569+g418601f",
  "ImageComments": "Unaliased MB4/PE3/LB",
  "ImageOrientationPatientDICOM": [0.992598, 0.119452, 0.0219303, -0.10275, 0.922237, -0.372723],
  "ImageOrientationText": "Tra>Cor(-21.6)>Sag(3.7)",
  "ImageType": [
    "ORIGINAL",
    "PRIMARY",
    "M",
    "MB",
    "ND",
    "MOSAIC"
],
  "ImagingFrequency": 123.259,
  "InPlanePhaseEncodingDirectionDICOM": "COL",
  "InstitutionAddress": "Chemin Queen-Mary 4565,Montreal,District,CA,H3W 1W5",
  "InstitutionName": "IUGM",
  "InstitutionalDepartmentName": "Department",
  "MRAcquisitionType": "2D",
  "MagneticFieldStrength": 3,
  "Manufacturer": "Siemens",
  "ManufacturersModelName": "Prisma_fit",
  "MatrixCoilMode": "SENSE",
  "Modality": "MR",
  "MultibandAccelerationFactor": 4,
  "PartialFourier": 1,
  "PatientPosition": "HFS",
  "PercentPhaseFOV": 100,
  "PercentSampling": 100,
  "PhaseEncodingDirection": "j",
  "PhaseEncodingSteps": 104,
  "PhaseResolution": 1,
  "PixelBandwidth": 2290,
  "ProcedureStepDescription": "games^mariostars",
  "ProtocolName": "func_task-mariostars_run-03",
  "PulseSequenceDetails": "%CustomerSeq%\\cmrr_mbep2d_bold",
  "ReceiveCoilActiveElements": "HC1-7;NC1,2",
  "ReceiveCoilName": "HeadNeck_64",
  "ReconMatrixPE": 104,
  "RepetitionTime": 1.49,
  "SAR": 0.0459439,
  "ScanOptions": "FS",
  "ScanningSequence": "EP",
  "SequenceName": "epfid2d1_104",
  "SequenceVariant": "SK\\SS",
  "SeriesDescription": "func_task-mariostars_run-03",
  "SeriesNumber": 19,
  "ShimSetting": [623, -7174, -8855, 635, 93, -4, -101, 16],
  "SliceThickness": 2,
  "SliceTiming": [0, 0.785, 0.0975, 0.8825, 0.195, 0.98, 0.295, 1.0775, 0.3925, 1.175, 0.49, 1.275, 0.5875, 1.3725, 0.685, 0, 0.785, 0.0975, 0.8825, 0.195, 0.98, 0.295, 1.0775, 0.3925, 1.175, 0.49, 1.275, 0.5875, 1.3725, 0.685, 0, 0.785, 0.0975, 0.8825, 0.195, 0.98, 0.295, 1.0775, 0.3925, 1.175, 0.49, 1.275, 0.5875, 1.3725, 0.685, 0, 0.785, 0.0975, 0.8825, 0.195, 0.98, 0.295, 1.0775, 0.3925, 1.175, 0.49, 1.275, 0.5875, 1.3725, 0.685],
  "SoftwareVersions": "syngo MR E11",
  "SpacingBetweenSlices": 2,
  "StationName": "MRC35049",
  "TaskName": "mariostars",
  "TotalReadoutTime": 0.0576811,
  "TxRefAmp": 257.4,
  "WipMemBlock": "85f87cb1-8514-4c5e-9afd-8ccadb2301ba||Sequence: R016 ve11c/master r/e634e98; Dec 19 2017 11:00:25 by eja",
  "dcmmeta_affine": [
    [-1.9851953983306885, -0.20550008118152618, 0.1294950395822525, 112.49183654785156],
    [-0.23890478909015656, 1.844473123550415, -0.7354204058647156, -45.72905349731445],
    [0.04386058822274208, 0.7454451322555542, 1.8553673028945923, -75.43840026855469],
    [0.0, 0.0, 0.0, 1.0]
],
  "dcmmeta_reorient_transform": [
    [0.0, -1.0, 0.0, 103.0],
    [1.0, 0.0, 0.0, 0.0],
    [0.0, 0.0, 1.0, 0.0],
    [0.0, 0.0, 0.0, 1.0]
],
  "dcmmeta_shape": [104, 104, 60, 470],
  "dcmmeta_slice_dim": 2,
  "dcmmeta_version": 0.6,
  "global": {
    "const": {
      "AcquisitionMatrix": [104, 0, 0, 104],
      "AngioFlag": "N",
      "BitsAllocated": 16,
      "BitsStored": 16,
      "BodyPartExamined": "BRAIN",
      "Columns": 832,
      "EchoNumbers": 1,
      "EchoTime": 37.0,
      "EchoTrainLength": 104,
      "FlipAngle": 52.0,
      "HighBit": 15,
      "ImageOrientationPatient": [0.99259769711535, 0.11945239170764, 0.02193029403866, -0.1027500380397, 0.92223658959664, -0.3727225543108],
      "ImagePositionPatient": [-739.13442474569, -902.60126332895, 256.71921074787],
      "ImageType": [
        "ORIGINAL",
        "PRIMARY",
        "M",
        "MB",
        "ND",
        "MOSAIC"
],
      "ImagedNucleus": "1H",
      "ImagingFrequency": 123.258862,
      "InPlanePhaseEncodingDirection": "COL",
      "MRAcquisitionType": "2D",
      "MagneticFieldStrength": 3.0,
      "Manufacturer": "SIEMENS",
      "ManufacturerModelName": "Prisma_fit",
      "Modality": "MR",
      "NumberOfAverages": 1.0,
      "NumberOfPhaseEncodingSteps": 104,
      "PercentPhaseFieldOfView": 100.0,
      "PercentSampling": 100.0,
      "PerformedProcedureStepStartTime": "165158.091000",
      "PhotometricInterpretation": "MONOCHROME2",
      "PixelBandwidth": 2290.0,
      "PixelRepresentation": 0,
      "PixelSpacing": [2.0, 2.0],
      "ProtocolName": "func_task-mariostars_run-03",
      "RepetitionTime": 1490.0,
      "Rows": 832,
      "SAR": 0.04594386092004,
      "SamplesPerPixel": 1,
      "ScanOptions": "FS",
      "ScanningSequence": "EP",
      "SequenceName": "epfid2d1_104",
      "SequenceVariant": [
        "SK",
        "SS"
],
      "SeriesDescription": "func_task-mariostars_run-03",
      "SeriesNumber": 19,
      "SeriesTime": "180009.274000",
      "SliceLocation": -45.884364331522,
      "SliceThickness": 2.0,
      "SmallestImagePixelValue": 0,
      "SoftwareVersions": "syngo MR E11",
      "SpacingBetweenSlices": 2.0000000022287,
      "SpecificCharacterSet": "ISO_IR 100",
      "StudyID": "1",
      "StudyTime": "165158.028000",
      "TransmitCoilName": "Body",
      "VariableFlipAngleFlag": "N",
      "WindowCenterWidthExplanation": "Algo1",
      "dBdt": 0.0},
    "slices": {}
  },
  "time": {
    "samples": {
      "AcquisitionNumber": [1, 2, 3, 4, 5, 6, 7, 8, 9, 10, 11, 12, 13, 14, 15, 16, 17, 18, 19, 20, 21, 22, 23, 24, 25, 26, 27, 28, 29, 30, 31, 32, 33, 34, 35, 36, 37, 38, 39, 40, 41, 42, 43, 44, 45, 46, 47, 48, 49, 50, 51, 52, 53, 54, 55, 56, 57, 58, 59, 60, 61, 62, 63, 64, 65, 66, 67, 68, 69, 70, 71, 72, 73, 74, 75, 76, 77, 78, 79, 80, 81, 82, 83, 84, 85, 86, 87, 88, 89, 90, 91, 92, 93, 94, 95, 96, 97, 98, 99, 100, 101, 102, 103, 104, 105, 106, 107, 108, 109, 110, 111, 112, 113, 114, 115, 116, 117, 118, 119, 120, 121, 122, 123, 124, 125, 126, 127, 128, 129, 130, 131, 132, 133, 134, 135, 136, 137, 138, 139, 140, 141, 142, 143, 144, 145, 146, 147, 148, 149, 150, 151, 152, 153, 154, 155, 156, 157, 158, 159, 160, 161, 162, 163, 164, 165, 166, 167, 168, 169, 170, 171, 172, 173, 174, 175, 176, 177, 178, 179, 180, 181, 182, 183, 184, 185, 186, 187, 188, 189, 190, 191, 192, 193, 194, 195, 196, 197, 198, 199, 200, 201, 202, 203, 204, 205, 206, 207, 208, 209, 210, 211, 212, 213, 214, 215, 216, 217, 218, 219, 220, 221, 222, 223, 224, 225, 226, 227, 228, 229, 230, 231, 232, 233, 234, 235, 236, 237, 238, 239, 240, 241, 242, 243, 244, 245, 246, 247, 248, 249, 250, 251, 252, 253, 254, 255, 256, 257, 258, 259, 260, 261, 262, 263, 264, 265, 266, 267, 268, 269, 270, 271, 272, 273, 274, 275, 276, 277, 278, 279, 280, 281, 282, 283, 284, 285, 286, 287, 288, 289, 290, 291, 292, 293, 294, 295, 296, 297, 298, 299, 300, 301, 302, 303, 304, 305, 306, 307, 308, 309, 310, 311, 312, 313, 314, 315, 316, 317, 318, 319, 320, 321, 322, 323, 324, 325, 326, 327, 328, 329, 330, 331, 332, 333, 334, 335, 336, 337, 338, 339, 340, 341, 342, 343, 344, 345, 346, 347, 348, 349, 350, 351, 352, 353, 354, 355, 356, 357, 358, 359, 360, 361, 362, 363, 364, 365, 366, 367, 368, 369, 370, 371, 372, 373, 374, 375, 376, 377, 378, 379, 380, 381, 382, 383, 384, 385, 386, 387, 388, 389, 390, 391, 392, 393, 394, 395, 396, 397, 398, 399, 400, 401, 402, 403, 404, 405, 406, 407, 408, 409, 410, 411, 412, 413, 414, 415, 416, 417, 418, 419, 420, 421, 422, 423, 424, 425, 426, 427, 428, 429, 430, 431, 432, 433, 434, 435, 436, 437, 438, 439, 440, 441, 442, 443, 444, 445, 446, 447, 448, 449, 450, 451, 452, 453, 454, 455, 456, 457, 458, 459, 460, 461, 462, 463, 464, 465, 466, 467, 468, 469, 470],
      "AcquisitionTime": ["175846.932500", "175848.422500", "175849.912500", "175851.402500", "175852.892500", "175854.382500", "175855.872500", "175857.362500", "175858.852500", "175900.342500", "175901.832500", "175903.322500", "175904.812500", "175906.302500", "175907.792500", "175909.282500", "175910.772500", "175912.262500", "175913.752500", "175915.242500", "175916.732500", "175918.222500", "175919.712500", "175921.202500", "175922.692500", "175924.182500", "175925.672500", "175927.162500", "175928.652500", "175930.142500", "175931.632500", "175933.122500", "175934.612500", "175936.102500", "175937.592500", "175939.082500", "175940.572500", "175942.062500", "175943.552500", "175945.042500", "175946.532500", "175948.022500", "175949.512500", "175951.002500", "175952.492500", "175953.982500", "175955.472500", "175956.962500", "175958.452500", "175959.942500", "180001.432500", "180002.922500", "180004.412500", "180005.902500", "180007.392500", "180008.882500", "180010.372500", "180011.862500", "180013.352500", "180014.842500", "180016.332500", "180017.822500", "180019.312500", "180020.802500", "180022.292500", "180023.782500", "180025.272500", "180026.762500", "180028.252500", "180029.742500", "180031.232500", "180032.722500", "180034.212500", "180035.702500", "180037.192500", "180038.682500", "180040.172500", "180041.662500", "180043.152500", "180044.642500", "180046.132500", "180047.622500", "180049.112500", "180050.602500", "180052.092500", "180053.582500", "180055.072500", "180056.562500", "180058.052500", "180059.542500", "180101.032500", "180102.522500", "180104.012500", "180105.502500", "180106.992500", "180108.482500", "180109.972500", "180111.462500", "180112.952500", "180114.442500", "180115.932500", "180117.422500", "180118.912500", "180120.402500", "180121.892500", "180123.382500", "180124.872500", "180126.362500", "180127.852500", "180129.342500", "180130.832500", "180132.322500", "180133.812500", "180135.302500", "180136.792500", "180138.282500", "180139.772500", "180141.262500", "180142.752500", "180144.242500", "180145.732500", "180147.222500", "180148.712500", "180150.202500", "180151.692500", "180153.182500", "180154.672500", "180156.162500", "180157.652500", "180159.142500", "180200.632500", "180202.122500", "180203.612500", "180205.102500", "180206.592500", "180208.082500", "180209.572500", "180211.062500", "180212.552500", "180214.042500", "180215.532500", "180217.022500", "180218.512500", "180220.002500", "180221.492500", "180222.982500", "180224.472500", "180225.962500", "180227.452500", "180228.942500", "180230.432500", "180231.922500", "180233.412500", "180234.902500", "180236.392500", "180237.882500", "180239.372500", "180240.862500", "180242.352500", "180243.842500", "180245.332500", "180246.822500", "180248.312500", "180249.802500", "180251.292500", "180252.782500", "180254.272500", "180255.762500", "180257.252500", "180258.742500", "180300.232500", "180301.722500", "180303.212500", "180304.702500", "180306.192500", "180307.682500", "180309.172500", "180310.662500", "180312.152500", "180313.642500", "180315.132500", "180316.622500", "180318.112500", "180319.602500", "180321.092500", "180322.582500", "180324.072500", "180325.562500", "180327.052500", "180328.542500", "180330.032500", "180331.522500", "180333.012500", "180334.502500", "180335.992500", "180337.482500", "180338.972500", "180340.462500", "180341.952500", "180343.442500", "180344.932500", "180346.422500", "180347.912500", "180349.402500", "180350.892500", "180352.382500", "180353.872500", "180355.362500", "180356.852500", "180358.342500", "180359.832500", "180401.322500", "180402.812500", "180404.302500", "180405.792500", "180407.282500", "180408.772500", "180410.262500", "180411.752500", "180413.242500", "180414.732500", "180416.222500", "180417.712500", "180419.202500", "180420.692500", "180422.182500", "180423.672500", "180425.162500", "180426.652500", "180428.142500", "180429.632500", "180431.122500", "180432.612500", "180434.102500", "180435.592500", "180437.082500", "180438.572500", "180440.062500", "180441.552500", "180443.042500", "180444.532500", "180446.022500", "180447.512500", "180449.002500", "180450.492500", "180451.982500", "180453.472500", "180454.962500", "180456.452500", "180457.942500", "180459.432500", "180500.922500", "180502.412500", "180503.902500", "180505.392500", "180506.882500", "180508.372500", "180509.862500", "180511.352500", "180512.842500", "180514.332500", "180515.822500", "180517.312500", "180518.802500", "180520.292500", "180521.782500", "180523.272500", "180524.762500", "180526.252500", "180527.742500", "180529.232500", "180530.722500", "180532.212500", "180533.702500", "180535.192500", "180536.682500", "180538.172500", "180539.662500", "180541.152500", "180542.642500", "180544.132500", "180545.622500", "180547.112500", "180548.602500", "180550.092500", "180551.582500", "180553.072500", "180554.562500", "180556.052500", "180557.542500", "180559.032500", "180600.522500", "180602.012500", "180603.502500", "180604.992500", "180606.482500", "180607.972500", "180609.462500", "180610.952500", "180612.442500", "180613.932500", "180615.422500", "180616.912500", "180618.402500", "180619.892500", "180621.382500", "180622.872500", "180624.362500", "180625.852500", "180627.342500", "180628.832500", "180630.322500", "180631.812500", "180633.302500", "180634.792500", "180636.282500", "180637.772500", "180639.262500", "180640.752500", "180642.242500", "180643.732500", "180645.222500", "180646.712500", "180648.202500", "180649.692500", "180651.182500", "180652.672500", "180654.162500", "180655.652500", "180657.142500", "180658.632500", "180700.122500", "180701.612500", "180703.102500", "180704.592500", "180706.082500", "180707.572500", "180709.062500", "180710.552500", "180712.042500", "180713.532500", "180715.022500", "180716.512500", "180718.002500", "180719.492500", "180720.982500", "180722.472500", "180723.962500", "180725.452500", "180726.942500", "180728.432500", "180729.922500", "180731.412500", "180732.902500", "180734.392500", "180735.882500", "180737.372500", "180738.862500", "180740.352500", "180741.842500", "180743.332500", "180744.822500", "180746.312500", "180747.802500", "180749.292500", "180750.782500", "180752.272500", "180753.762500", "180755.252500", "180756.742500", "180758.232500", "180759.722500", "180801.212500", "180802.702500", "180804.192500", "180805.682500", "180807.172500", "180808.662500", "180810.152500", "180811.642500", "180813.132500", "180814.622500", "180816.112500", "180817.602500", "180819.092500", "180820.582500", "180822.072500", "180823.562500", "180825.052500", "180826.542500", "180828.032500", "180829.522500", "180831.012500", "180832.502500", "180833.992500", "180835.482500", "180836.972500", "180838.462500", "180839.952500", "180841.442500", "180842.932500", "180844.422500", "180845.912500", "180847.402500", "180848.892500", "180850.382500", "180851.872500", "180853.362500", "180854.852500", "180856.342500", "180857.832500", "180859.322500", "180900.812500", "180902.302500", "180903.792500", "180905.282500", "180906.772500", "180908.262500", "180909.752500", "180911.242500", "180912.732500", "180914.222500", "180915.712500", "180917.202500", "180918.692500", "180920.182500", "180921.672500", "180923.162500", "180924.652500", "180926.142500", "180927.632500", "180929.122500", "180930.612500", "180932.102500", "180933.592500", "180935.082500", "180936.572500", "180938.062500", "180939.552500", "180941.042500", "180942.532500", "180944.022500", "180945.512500", "180947.002500", "180948.492500", "180949.982500", "180951.472500", "180952.962500", "180954.452500", "180955.942500", "180957.432500", "180958.922500", "181000.412500", "181001.902500", "181003.392500", "181004.882500", "181006.372500", "181007.862500", "181009.352500", "181010.842500", "181012.332500", "181013.822500", "181015.312500", "181016.802500", "181018.292500", "181019.782500", "181021.272500", "181022.762500", "181024.252500", "181025.742500"],
      "ContentTime": ["180009.278000", "180009.282000", "180009.285000", "180009.297000", "180009.300000", "180009.303000", "180009.307000", "180009.310000", "180009.314000", "180009.317000", "180009.320000", "180009.324000", "180009.327000", "180009.331000", "180009.334000", "180009.338000", "180009.341000", "180009.344000", "180009.348000", "180009.351000", "180009.354000", "180009.358000", "180009.365000", "180009.368000", "180009.372000", "180009.375000", "180009.378000", "180009.382000", "180009.385000", "180009.389000", "180029.237000", "180029.241000", "180029.245000", "180029.254000", "180029.257000", "180029.261000", "180029.264000", "180029.268000", "180029.271000", "180029.274000", "180029.278000", "180029.281000", "180029.284000", "180029.288000", "180029.291000", "180029.295000", "180029.298000", "180029.302000", "180029.305000", "180029.308000", "180049.237000", "180049.241000", "180049.244000", "180049.248000", "180049.251000", "180049.255000", "180049.258000", "180049.261000", "180049.265000", "180049.268000", "180049.272000", "180049.275000", "180049.279000", "180049.282000", "180049.285000", "180049.289000", "180049.292000", "180049.296000", "180049.299000", "180049.302000", "180109.237000", "180109.241000", "180109.245000", "180109.248000", "180109.251000", "180109.255000", "180109.258000", "180109.262000", "180109.265000", "180109.268000", "180109.272000", "180109.284000", "180109.288000", "180109.291000", "180109.295000", "180109.298000", "180109.301000", "180109.305000", "180109.308000", "180109.312000", "180149.236000", "180149.240000", "180149.254000", "180149.257000", "180149.261000", "180149.264000", "180149.268000", "180149.271000", "180149.274000", "180149.278000", "180149.281000", "180149.285000", "180149.288000", "180149.292000", "180149.295000", "180149.298000", "180149.302000", "180149.305000", "180149.309000", "180149.312000", "180149.316000", "180149.319000", "180149.322000", "180149.326000", "180149.329000", "180149.333000", "180149.336000", "180149.340000", "180149.343000", "180149.347000", "180149.351000", "180149.354000", "180229.236000", "180229.240000", "180229.243000", "180229.247000", "180229.251000", "180229.254000", "180229.257000", "180229.261000", "180229.264000", "180229.268000", "180229.271000", "180229.274000", "180229.278000", "180229.281000", "180229.285000", "180229.288000", "180229.291000", "180229.295000", "180229.298000", "180229.302000", "180229.305000", "180229.308000", "180229.312000", "180229.315000", "180229.319000", "180229.322000", "180309.237000", "180309.241000", "180309.245000", "180309.248000", "180309.251000", "180309.255000", "180309.258000", "180309.261000", "180309.265000", "180309.268000", "180309.272000", "180309.275000", "180309.278000", "180309.282000", "180309.285000", "180309.289000", "180309.292000", "180309.295000", "180309.299000", "180309.302000", "180309.306000", "180309.309000", "180309.312000", "180309.316000", "180309.319000", "180309.322000", "180309.326000", "180349.236000", "180349.240000", "180349.244000", "180349.247000", "180349.250000", "180349.254000", "180349.257000", "180349.261000", "180349.264000", "180349.268000", "180349.271000", "180349.274000", "180349.278000", "180349.281000", "180349.285000", "180349.288000", "180349.291000", "180349.295000", "180349.298000", "180349.317000", "180349.321000", "180349.324000", "180349.327000", "180349.331000", "180349.334000", "180349.337000", "180349.341000", "180429.236000", "180429.240000", "180429.243000", "180429.247000", "180429.250000", "180429.254000", "180429.257000", "180429.260000", "180429.264000", "180429.267000", "180429.271000", "180429.274000", "180429.277000", "180429.281000", "180429.284000", "180429.287000", "180429.291000", "180429.294000", "180429.298000", "180429.301000", "180429.304000", "180429.308000", "180429.311000", "180429.315000", "180429.318000", "180429.321000", "180429.325000", "180509.237000", "180509.241000", "180509.245000", "180509.248000", "180509.251000", "180509.255000", "180509.258000", "180509.262000", "180509.265000", "180509.268000", "180509.272000", "180509.275000", "180509.279000", "180509.282000", "180509.285000", "180509.289000", "180509.292000", "180509.296000", "180509.299000", "180509.302000", "180509.306000", "180509.309000", "180509.313000", "180509.316000", "180509.319000", "180509.323000", "180509.326000", "180549.237000", "180549.248000", "180549.251000", "180549.254000", "180549.258000", "180549.261000", "180549.265000", "180549.268000", "180549.272000", "180549.275000", "180549.279000", "180549.282000", "180549.286000", "180549.289000", "180549.293000", "180549.296000", "180549.299000", "180549.303000", "180549.306000", "180549.310000", "180549.313000", "180549.317000", "180549.320000", "180549.323000", "180549.327000", "180549.330000", "180549.334000", "180629.236000", "180629.240000", "180629.243000", "180629.264000", "180629.267000", "180629.270000", "180629.274000", "180629.277000", "180629.281000", "180629.284000", "180629.287000", "180629.291000", "180629.294000", "180629.298000", "180629.301000", "180629.304000", "180629.308000", "180629.311000", "180629.315000", "180629.318000", "180629.321000", "180629.325000", "180629.328000", "180629.332000", "180629.335000", "180629.338000", "180629.342000", "180709.237000", "180709.241000", "180709.245000", "180709.248000", "180709.251000", "180709.255000", "180709.270000", "180709.273000", "180709.276000", "180709.280000", "180709.283000", "180709.287000", "180709.290000", "180709.293000", "180709.297000", "180709.300000", "180709.304000", "180709.308000", "180709.311000", "180709.315000", "180709.318000", "180709.322000", "180709.325000", "180709.328000", "180709.332000", "180709.335000", "180749.237000", "180749.241000", "180749.245000", "180749.248000", "180749.251000", "180749.255000", "180749.258000", "180749.262000", "180749.265000", "180749.268000", "180749.272000", "180749.275000", "180749.279000", "180749.282000", "180749.285000", "180749.289000", "180749.292000", "180749.296000", "180749.299000", "180749.303000", "180749.306000", "180749.309000", "180749.313000", "180749.316000", "180749.319000", "180749.323000", "180749.326000", "180829.236000", "180829.240000", "180829.244000", "180829.247000", "180829.250000", "180829.254000", "180829.257000", "180829.261000", "180829.264000", "180829.269000", "180829.272000", "180829.276000", "180829.279000", "180829.283000", "180829.286000", "180829.290000", "180829.293000", "180829.296000", "180829.311000", "180829.314000", "180829.318000", "180829.321000", "180829.324000", "180829.328000", "180829.332000", "180829.336000", "180829.339000", "180909.236000", "180909.240000", "180909.243000", "180909.247000", "180909.250000", "180909.254000", "180909.257000", "180909.260000", "180909.264000", "180909.267000", "180909.271000", "180909.274000", "180909.278000", "180909.281000", "180909.284000", "180909.288000", "180909.291000", "180909.294000", "180909.298000", "180909.301000", "180909.305000", "180909.308000", "180909.311000", "180909.315000", "180909.318000", "180909.321000", "180909.325000", "180949.237000", "180949.241000", "180949.245000", "180949.248000", "180949.251000", "180949.255000", "180949.258000", "180949.262000", "180949.265000", "180949.268000", "180949.272000", "180949.275000", "180949.278000", "180949.282000", "180949.285000", "180949.289000", "180949.292000", "180949.295000", "180949.299000", "180949.302000", "180949.306000", "180949.309000", "180949.312000", "180949.316000", "180949.319000", "180949.323000", "180949.326000", "181009.237000", "181009.241000", "181009.245000", "181009.248000", "181009.251000", "181009.255000", "181009.258000", "181009.262000", "181009.265000", "181009.268000", "181009.272000", "181009.275000", "181009.278000", "181028.036000", "181028.040000", "181028.044000", "181028.047000", "181028.050000", "181028.054000", "181028.057000", "181028.061000", "181028.064000", "181028.067000", "181028.078000", "181028.081000", "181028.085000"],
