{
  "AcquisitionMatrixPE": 104,
  "AcquisitionNumber": 1,
  "AcquisitionTime": "17:46:15.867500",
  "BandwidthPerPixelPhaseEncode": 17.17,
  "BaseResolution": 104,
  "BodyPartExamined": "BRAIN",
  "CoilCombinationMethod": "Sum of Squares",
  "ConsistencyInfo": "N4_VE11C_LATEST_20160120",
  "ConversionSoftware": "dcm2niix",
  "ConversionSoftwareVersion": "v1.0.20211006",
  "DerivedVendorReportedEchoSpacing": 0.000560011,
  "DeviceSerialNumber": "167006",
  "DwellTime": 2.1e-06,
  "EchoTime": 0.037,
  "EchoTime1": 0.037,
  "EchoTime2": 0.001,
  "EchoTrainLength": 104,
  "EffectiveEchoSpacing": 0.000560011,
  "FlipAngle": 52,
  "HeudiconvVersion": "0.5.3.post569+g418601f",
  "ImageComments": "Unaliased MB4/PE3/LB",
  "ImageOrientationPatientDICOM": [0.992598, 0.119452, 0.0219303, -0.10275, 0.922237, -0.372723],
  "ImageOrientationText": "Tra>Cor(-21.6)>Sag(3.7)",
  "ImageType": [
    "ORIGINAL",
    "PRIMARY",
    "P",
    "MB",
    "ND",
    "MOSAIC",
    "PHASE"
],
  "ImagingFrequency": 123.259,
  "InPlanePhaseEncodingDirectionDICOM": "COL",
  "InstitutionAddress": "Chemin Queen-Mary 4565,Montreal,District,CA,H3W 1W5",
  "InstitutionName": "IUGM",
  "InstitutionalDepartmentName": "Department",
  "MRAcquisitionType": "2D",
  "MagneticFieldStrength": 3,
  "Manufacturer": "Siemens",
  "ManufacturersModelName": "Prisma_fit",
  "MatrixCoilMode": "SENSE",
  "Modality": "MR",
  "MultibandAccelerationFactor": 4,
  "PartialFourier": 1,
  "PatientPosition": "HFS",
  "PercentPhaseFOV": 100,
  "PercentSampling": 100,
  "PhaseEncodingDirection": "j",
  "PhaseEncodingSteps": 104,
  "PhaseResolution": 1,
  "PixelBandwidth": 2290,
  "ProcedureStepDescription": "games^mariostars",
  "ProtocolName": "func_task-mariostars_run-02",
  "PulseSequenceDetails": "%CustomerSeq%\\cmrr_mbep2d_bold",
  "ReceiveCoilActiveElements": "HC1-7;NC1,2",
  "ReceiveCoilName": "HeadNeck_64",
  "ReconMatrixPE": 104,
  "RepetitionTime": 1.49,
  "SAR": 0.0459439,
  "ScanOptions": "FS",
  "ScanningSequence": "EP",
  "SequenceName": "epfid2d1_104",
  "SequenceVariant": "SK\\SS",
  "SeriesDescription": "func_task-mariostars_run-02",
  "SeriesNumber": 17,
  "ShimSetting": [623, -7174, -8855, 635, 93, -4, -101, 16],
  "SliceThickness": 2,
  "SliceTiming": [0, 0.785, 0.0975, 0.8825, 0.1975, 0.98, 0.295, 1.0775, 0.3925, 1.1775, 0.49, 1.275, 0.5875, 1.3725, 0.6875, 0, 0.785, 0.0975, 0.8825, 0.1975, 0.98, 0.295, 1.0775, 0.3925, 1.1775, 0.49, 1.275, 0.5875, 1.3725, 0.6875, 0, 0.785, 0.0975, 0.8825, 0.1975, 0.98, 0.295, 1.0775, 0.3925, 1.1775, 0.49, 1.275, 0.5875, 1.3725, 0.6875, 0, 0.785, 0.0975, 0.8825, 0.1975, 0.98, 0.295, 1.0775, 0.3925, 1.1775, 0.49, 1.275, 0.5875, 1.3725, 0.6875],
  "SoftwareVersions": "syngo MR E11",
  "SpacingBetweenSlices": 2,
  "StationName": "MRC35049",
  "TaskName": "mariostars",
  "TotalReadoutTime": 0.0576811,
  "TxRefAmp": 257.4,
  "WipMemBlock": "0f3cc2d5-8a77-4ab6-b5de-437f15a70e87||Sequence: R016 ve11c/master r/e634e98; Dec 19 2017 11:00:25 by eja",
  "dcmmeta_affine": [
    [-1.9851953983306885, -0.20550008118152618, 0.1294950395822525, 112.49183654785156],
    [-0.23890478909015656, 1.844473123550415, -0.7354204058647156, -45.72905349731445],
    [0.04386058822274208, 0.7454451322555542, 1.8553673028945923, -75.43840026855469],
    [0.0, 0.0, 0.0, 1.0]
],
  "dcmmeta_reorient_transform": [
    [0.0, -1.0, 0.0, 103.0],
    [1.0, 0.0, 0.0, 0.0],
    [0.0, 0.0, 1.0, 0.0],
    [0.0, 0.0, 0.0, 1.0]
],
  "dcmmeta_shape": [104, 104, 60, 445],
  "dcmmeta_slice_dim": 2,
  "dcmmeta_version": 0.6,
  "global": {
    "const": {
      "AcquisitionMatrix": [104, 0, 0, 104],
      "AngioFlag": "N",
      "BitsAllocated": 16,
      "BitsStored": 16,
      "BodyPartExamined": "BRAIN",
      "Columns": 832,
      "EchoNumbers": 1,
      "EchoTime": 37.0,
      "EchoTrainLength": 104,
      "FlipAngle": 52.0,
      "HighBit": 15,
      "ImageOrientationPatient": [0.99259769711535, 0.11945239170764, 0.02193029403866, -0.1027500380397, 0.92223658959664, -0.3727225543108],
      "ImagePositionPatient": [-739.13442474569, -902.60126332895, 256.71921074787],
      "ImageType": [
        "ORIGINAL",
        "PRIMARY",
        "P",
        "MB",
        "ND",
        "MOSAIC"
],
      "ImagedNucleus": "1H",
      "ImagingFrequency": 123.258854,
      "InPlanePhaseEncodingDirection": "COL",
      "LargestImagePixelValue": 4095,
      "MRAcquisitionType": "2D",
      "MagneticFieldStrength": 3.0,
      "Manufacturer": "SIEMENS",
      "ManufacturerModelName": "Prisma_fit",
      "Modality": "MR",
      "NumberOfAverages": 1.0,
      "NumberOfPhaseEncodingSteps": 104,
      "PercentPhaseFieldOfView": 100.0,
      "PercentSampling": 100.0,
      "PerformedProcedureStepStartTime": "165158.091000",
      "PhotometricInterpretation": "MONOCHROME2",
      "PixelBandwidth": 2290.0,
      "PixelRepresentation": 0,
      "PixelSpacing": [2.0, 2.0],
      "ProtocolName": "func_task-mariostars_run-02",
      "RepetitionTime": 1490.0,
      "RescaleIntercept": -4096.0,
      "RescaleSlope": 2.0,
      "RescaleType": "US",
      "Rows": 832,
      "SAR": 0.04594386092004,
      "SamplesPerPixel": 1,
      "ScanOptions": "FS",
      "ScanningSequence": "EP",
      "SequenceName": "epfid2d1_104",
      "SequenceVariant": [
        "SK",
        "SS"
],
      "SeriesDescription": "func_task-mariostars_run-02",
      "SeriesNumber": 17,
      "SeriesTime": "174738.032000",
      "SliceLocation": -45.884364331522,
      "SliceThickness": 2.0,
      "SmallestImagePixelValue": 0,
      "SoftwareVersions": "syngo MR E11",
      "SpacingBetweenSlices": 2.0000000022287,
      "SpecificCharacterSet": "ISO_IR 100",
      "StudyID": "1",
      "StudyTime": "165158.028000",
      "TransmitCoilName": "Body",
      "VariableFlipAngleFlag": "N",
      "WindowCenterWidthExplanation": "Algo1",
      "dBdt": 0.0},
    "slices": {}
  },
  "time": {
    "samples": {
      "AcquisitionNumber": [1, 2, 3, 4, 5, 6, 7, 8, 9, 10, 11, 12, 13, 14, 15, 16, 17, 18, 19, 20, 21, 22, 23, 24, 25, 26, 27, 28, 29, 30, 31, 32, 33, 34, 35, 36, 37, 38, 39, 40, 41, 42, 43, 44, 45, 46, 47, 48, 49, 50, 51, 52, 53, 54, 55, 56, 57, 58, 59, 60, 61, 62, 63, 64, 65, 66, 67, 68, 69, 70, 71, 72, 73, 74, 75, 76, 77, 78, 79, 80, 81, 82, 83, 84, 85, 86, 87, 88, 89, 90, 91, 92, 93, 94, 95, 96, 97, 98, 99, 100, 101, 102, 103, 104, 105, 106, 107, 108, 109, 110, 111, 112, 113, 114, 115, 116, 117, 118, 119, 120, 121, 122, 123, 124, 125, 126, 127, 128, 129, 130, 131, 132, 133, 134, 135, 136, 137, 138, 139, 140, 141, 142, 143, 144, 145, 146, 147, 148, 149, 150, 151, 152, 153, 154, 155, 156, 157, 158, 159, 160, 161, 162, 163, 164, 165, 166, 167, 168, 169, 170, 171, 172, 173, 174, 175, 176, 177, 178, 179, 180, 181, 182, 183, 184, 185, 186, 187, 188, 189, 190, 191, 192, 193, 194, 195, 196, 197, 198, 199, 200, 201, 202, 203, 204, 205, 206, 207, 208, 209, 210, 211, 212, 213, 214, 215, 216, 217, 218, 219, 220, 221, 222, 223, 224, 225, 226, 227, 228, 229, 230, 231, 232, 233, 234, 235, 236, 237, 238, 239, 240, 241, 242, 243, 244, 245, 246, 247, 248, 249, 250, 251, 252, 253, 254, 255, 256, 257, 258, 259, 260, 261, 262, 263, 264, 265, 266, 267, 268, 269, 270, 271, 272, 273, 274, 275, 276, 277, 278, 279, 280, 281, 282, 283, 284, 285, 286, 287, 288, 289, 290, 291, 292, 293, 294, 295, 296, 297, 298, 299, 300, 301, 302, 303, 304, 305, 306, 307, 308, 309, 310, 311, 312, 313, 314, 315, 316, 317, 318, 319, 320, 321, 322, 323, 324, 325, 326, 327, 328, 329, 330, 331, 332, 333, 334, 335, 336, 337, 338, 339, 340, 341, 342, 343, 344, 345, 346, 347, 348, 349, 350, 351, 352, 353, 354, 355, 356, 357, 358, 359, 360, 361, 362, 363, 364, 365, 366, 367, 368, 369, 370, 371, 372, 373, 374, 375, 376, 377, 378, 379, 380, 381, 382, 383, 384, 385, 386, 387, 388, 389, 390, 391, 392, 393, 394, 395, 396, 397, 398, 399, 400, 401, 402, 403, 404, 405, 406, 407, 408, 409, 410, 411, 412, 413, 414, 415, 416, 417, 418, 419, 420, 421, 422, 423, 424, 425, 426, 427, 428, 429, 430, 431, 432, 433, 434, 435, 436, 437, 438, 439, 440, 441, 442, 443, 444, 445],
      "AcquisitionTime": ["174615.867500", "174617.357500", "174618.847500", "174620.337500", "174621.827500", "174623.317500", "174624.807500", "174626.297500", "174627.787500", "174629.277500", "174630.767500", "174632.257500", "174633.747500", "174635.237500", "174636.727500", "174638.217500", "174639.707500", "174641.197500", "174642.687500", "174644.177500", "174645.667500", "174647.157500", "174648.647500", "174650.137500", "174651.627500", "174653.117500", "174654.607500", "174656.097500", "174657.587500", "174659.077500", "174700.567500", "174702.057500", "174703.547500", "174705.037500", "174706.527500", "174708.017500", "174709.507500", "174710.997500", "174712.487500", "174713.977500", "174715.467500", "174716.957500", "174718.447500", "174719.937500", "174721.427500", "174722.917500", "174724.407500", "174725.897500", "174727.387500", "174728.877500", "174730.367500", "174731.857500", "174733.347500", "174734.837500", "174736.327500", "174737.817500", "174739.307500", "174740.797500", "174742.287500", "174743.777500", "174745.267500", "174746.757500", "174748.247500", "174749.737500", "174751.227500", "174752.717500", "174754.207500", "174755.697500", "174757.187500", "174758.677500", "174800.167500", "174801.657500", "174803.147500", "174804.637500", "174806.127500", "174807.617500", "174809.107500", "174810.597500", "174812.087500", "174813.577500", "174815.067500", "174816.557500", "174818.047500", "174819.537500", "174821.027500", "174822.517500", "174824.007500", "174825.497500", "174826.987500", "174828.477500", "174829.967500", "174831.457500", "174832.947500", "174834.437500", "174835.927500", "174837.417500", "174838.907500", "174840.397500", "174841.887500", "174843.377500", "174844.867500", "174846.357500", "174847.847500", "174849.337500", "174850.827500", "174852.317500", "174853.807500", "174855.297500", "174856.787500", "174858.277500", "174859.767500", "174901.257500", "174902.747500", "174904.237500", "174905.727500", "174907.217500", "174908.707500", "174910.197500", "174911.687500", "174913.177500", "174914.667500", "174916.157500", "174917.647500", "174919.137500", "174920.627500", "174922.117500", "174923.607500", "174925.097500", "174926.587500", "174928.077500", "174929.567500", "174931.057500", "174932.547500", "174934.037500", "174935.527500", "174937.017500", "174938.507500", "174939.997500", "174941.487500", "174942.977500", "174944.467500", "174945.957500", "174947.447500", "174948.937500", "174950.427500", "174951.917500", "174953.407500", "174954.897500", "174956.387500", "174957.877500", "174959.367500", "175000.857500", "175002.347500", "175003.837500", "175005.327500", "175006.817500", "175008.307500", "175009.797500", "175011.287500", "175012.777500", "175014.267500", "175015.757500", "175017.247500", "175018.737500", "175020.227500", "175021.717500", "175023.207500", "175024.697500", "175026.187500", "175027.677500", "175029.167500", "175030.657500", "175032.147500", "175033.637500", "175035.127500", "175036.617500", "175038.107500", "175039.597500", "175041.087500", "175042.577500", "175044.067500", "175045.557500", "175047.047500", "175048.537500", "175050.027500", "175051.517500", "175053.007500", "175054.497500", "175055.987500", "175057.477500", "175058.967500", "175100.457500", "175101.947500", "175103.437500", "175104.927500", "175106.417500", "175107.907500", "175109.397500", "175110.887500", "175112.377500", "175113.867500", "175115.357500", "175116.847500", "175118.337500", "175119.827500", "175121.317500", "175122.807500", "175124.297500", "175125.787500", "175127.277500", "175128.767500", "175130.257500", "175131.747500", "175133.237500", "175134.727500", "175136.217500", "175137.707500", "175139.197500", "175140.687500", "175142.177500", "175143.667500", "175145.157500", "175146.647500", "175148.137500", "175149.627500", "175151.117500", "175152.607500", "175154.097500", "175155.587500", "175157.077500", "175158.567500", "175200.057500", "175201.547500", "175203.037500", "175204.527500", "175206.017500", "175207.507500", "175208.997500", "175210.487500", "175211.977500", "175213.467500", "175214.957500", "175216.447500", "175217.937500", "175219.427500", "175220.917500", "175222.407500", "175223.897500", "175225.387500", "175226.877500", "175228.367500", "175229.857500", "175231.347500", "175232.837500", "175234.327500", "175235.817500", "175237.307500", "175238.797500", "175240.287500", "175241.777500", "175243.267500", "175244.757500", "175246.247500", "175247.737500", "175249.227500", "175250.717500", "175252.207500", "175253.697500", "175255.187500", "175256.677500", "175258.167500", "175259.657500", "175301.147500", "175302.637500", "175304.127500", "175305.617500", "175307.107500", "175308.597500", "175310.087500", "175311.577500", "175313.067500", "175314.557500", "175316.047500", "175317.537500", "175319.027500", "175320.517500", "175322.007500", "175323.497500", "175324.987500", "175326.477500", "175327.967500", "175329.457500", "175330.947500", "175332.437500", "175333.927500", "175335.417500", "175336.907500", "175338.397500", "175339.887500", "175341.377500", "175342.867500", "175344.357500", "175345.847500", "175347.337500", "175348.827500", "175350.317500", "175351.807500", "175353.297500", "175354.787500", "175356.277500", "175357.767500", "175359.257500", "175400.747500", "175402.237500", "175403.727500", "175405.217500", "175406.707500", "175408.197500", "175409.687500", "175411.177500", "175412.667500", "175414.157500", "175415.647500", "175417.137500", "175418.627500", "175420.117500", "175421.607500", "175423.097500", "175424.587500", "175426.077500", "175427.567500", "175429.057500", "175430.547500", "175432.037500", "175433.527500", "175435.017500", "175436.507500", "175437.997500", "175439.487500", "175440.977500", "175442.467500", "175443.957500", "175445.447500", "175446.937500", "175448.427500", "175449.917500", "175451.407500", "175452.897500", "175454.387500", "175455.877500", "175457.367500", "175458.857500", "175500.347500", "175501.837500", "175503.327500", "175504.817500", "175506.307500", "175507.797500", "175509.287500", "175510.777500", "175512.267500", "175513.757500", "175515.247500", "175516.737500", "175518.227500", "175519.717500", "175521.207500", "175522.697500", "175524.187500", "175525.677500", "175527.167500", "175528.657500", "175530.147500", "175531.637500", "175533.127500", "175534.617500", "175536.107500", "175537.597500", "175539.087500", "175540.577500", "175542.067500", "175543.557500", "175545.047500", "175546.537500", "175548.027500", "175549.517500", "175551.007500", "175552.497500", "175553.987500", "175555.477500", "175556.967500", "175558.457500", "175559.947500", "175601.437500", "175602.927500", "175604.417500", "175605.907500", "175607.397500", "175608.887500", "175610.377500", "175611.867500", "175613.357500", "175614.847500", "175616.337500", "175617.827500", "175619.317500", "175620.807500", "175622.297500", "175623.787500", "175625.277500", "175626.767500", "175628.257500", "175629.747500", "175631.237500", "175632.727500", "175634.217500", "175635.707500", "175637.197500", "175638.687500", "175640.177500", "175641.667500", "175643.157500", "175644.647500", "175646.137500", "175647.627500", "175649.117500", "175650.607500", "175652.097500", "175653.587500", "175655.077500", "175656.567500", "175658.057500", "175659.547500", "175701.037500", "175702.527500", "175704.017500", "175705.507500", "175706.997500", "175708.487500", "175709.977500", "175711.467500", "175712.957500", "175714.447500", "175715.937500", "175717.427500"],
      "ContentTime": ["174738.034000", "174738.039000", "174738.041000", "174738.044000", "174738.046000", "174738.049000", "174738.051000", "174738.054000", "174738.056000", "174738.059000", "174738.061000", "174738.064000", "174738.067000", "174738.069000", "174738.072000", "174738.074000", "174738.077000", "174738.086000", "174738.089000", "174738.092000", "174738.094000", "174738.097000", "174738.099000", "174738.102000", "174738.104000", "174738.107000", "174738.110000", "174738.112000", "174738.115000", "174757.957000", "174757.960000", "174757.963000", "174757.965000", "174757.968000", "174757.970000", "174757.973000", "174757.975000", "174757.978000", "174757.980000", "174757.983000", "174757.985000", "174757.988000", "174757.990000", "174757.993000", "174757.995000", "174757.998000", "174758.001000", "174758.004000", "174758.006000", "174817.956000", "174817.959000", "174817.961000", "174817.964000", "174817.966000", "174817.969000", "174817.972000", "174817.974000", "174817.977000", "174817.979000", "174817.982000", "174817.984000", "174817.987000", "174817.989000", "174817.992000", "174817.994000", "174817.997000", "174818.001000", "174818.003000", "174818.006000", "174837.961000", "174837.963000", "174837.966000", "174837.969000", "174837.971000", "174837.974000", "174837.984000", "174837.986000", "174837.989000", "174837.992000", "174837.994000", "174837.997000", "174838.000000", "174838.003000", "174838.005000", "174838.008000", "174838.010000", "174838.013000", "174838.016000", "174838.018000", "174918.012000", "174918.015000", "174918.017000", "174918.020000", "174918.022000", "174918.025000", "174918.027000", "174918.030000", "174918.033000", "174918.035000", "174918.038000", "174918.040000", "174918.043000", "174918.045000", "174918.048000", "174918.050000", "174918.053000", "174918.056000", "174918.058000", "174918.061000", "174918.063000", "174918.066000", "174918.068000", "174918.071000", "174918.073000", "174918.076000", "174918.078000", "174918.081000", "174918.084000", "174918.086000", "174918.089000", "174918.091000", "174957.971000", "174957.974000", "174957.977000", "174957.979000", "174957.982000", "174957.985000", "174957.987000", "174957.990000", "174957.992000", "174957.995000", "174957.997000", "174958.000000", "174958.003000", "174958.005000", "174958.008000", "174958.010000", "174958.013000", "174958.015000", "174958.018000", "174958.020000", "174958.023000", "174958.025000", "174958.028000", "174958.031000", "174958.033000", "174958.036000", "174958.038000", "175038.003000", "175038.006000", "175038.008000", "175038.011000", "175038.013000", "175038.016000", "175038.018000", "175038.021000", "175038.023000", "175038.026000", "175038.029000", "175038.031000", "175038.034000", "175038.036000", "175038.039000", "175038.041000", "175038.044000", "175038.046000", "175038.049000", "175038.052000", "175038.054000", "175038.057000", "175038.059000", "175038.062000", "175038.064000", "175038.067000", "175038.069000", "175117.975000", "175117.978000", "175117.980000", "175117.983000", "175117.986000", "175117.988000", "175117.991000", "175117.993000", "175117.996000", "175117.998000", "175118.002000", "175118.005000", "175118.007000", "175118.010000", "175118.012000", "175118.015000", "175118.017000", "175118.020000", "175118.022000", "175118.025000", "175118.028000", "175118.036000", "175118.039000", "175118.041000", "175118.044000", "175118.047000", "175118.049000", "175157.977000", "175157.980000", "175157.982000", "175157.985000", "175157.988000", "175157.990000", "175157.993000", "175157.995000", "175157.998000", "175158.001000", "175158.004000", "175158.006000", "175158.009000", "175158.012000", "175158.014000", "175158.017000", "175158.019000", "175158.022000", "175158.024000", "175158.027000", "175158.030000", "175158.032000", "175158.035000", "175158.037000", "175158.040000", "175158.042000", "175158.045000", "175237.985000", "175237.988000", "175237.991000", "175237.993000", "175237.996000", "175237.998000", "175238.002000", "175238.005000", "175238.007000", "175238.010000", "175238.012000", "175238.015000", "175238.018000", "175238.020000", "175238.023000", "175238.025000", "175238.028000", "175238.030000", "175238.033000", "175238.035000", "175238.038000", "175238.041000", "175238.043000", "175238.046000", "175238.048000", "175238.051000", "175238.053000", "175317.982000", "175317.984000", "175317.987000", "175317.990000", "175317.992000", "175317.995000", "175317.997000", "175318.001000", "175318.003000", "175318.006000", "175318.009000", "175318.011000", "175318.014000", "175318.016000", "175318.019000", "175318.021000", "175318.024000", "175318.026000", "175318.029000", "175318.032000", "175318.034000", "175318.037000", "175318.039000", "175318.042000", "175318.044000", "175318.047000", "175357.978000", "175357.981000", "175357.983000", "175357.986000", "175357.989000", "175357.992000", "175357.994000", "175357.997000", "175358.001000", "175358.003000", "175358.006000", "175358.008000", "175358.011000", "175358.013000", "175358.016000", "175358.018000", "175358.021000", "175358.024000", "175358.026000", "175358.029000", "175358.031000", "175358.034000", "175358.036000", "175358.039000", "175358.042000", "175358.044000", "175358.047000", "175437.981000", "175437.984000", "175437.987000", "175437.989000", "175437.992000", "175437.994000", "175437.997000", "175437.999000", "175438.002000", "175438.005000", "175438.007000", "175438.010000", "175438.012000", "175438.015000", "175438.017000", "175438.020000", "175438.022000", "175438.025000", "175438.028000", "175438.030000", "175438.033000", "175438.035000", "175438.038000", "175438.040000", "175438.043000", "175438.045000", "175438.048000", "175517.995000", "175517.998000", "175518.001000", "175518.004000", "175518.007000", "175518.009000", "175518.012000", "175518.014000", "175518.017000", "175518.020000", "175518.030000", "175518.033000", "175518.035000", "175518.038000", "175518.040000", "175518.043000", "175518.046000", "175518.048000", "175518.051000", "175518.054000", "175518.056000", "175518.059000", "175518.061000", "175518.064000", "175518.066000", "175518.069000", "175518.072000", "175557.986000", "175557.989000", "175557.991000", "175557.994000", "175557.996000", "175558.000000", "175558.003000", "175558.005000", "175558.008000", "175558.010000", "175558.013000", "175558.015000", "175558.018000", "175558.020000", "175558.023000", "175558.025000", "175558.028000", "175558.031000", "175558.033000", "175558.036000", "175558.038000", "175558.041000", "175558.043000", "175558.046000", "175558.049000", "175558.051000", "175558.054000", "175637.982000", "175637.985000", "175637.988000", "175637.991000", "175637.993000", "175637.996000", "175637.998000", "175638.002000", "175638.005000", "175638.007000", "175638.010000", "175638.012000", "175638.015000", "175638.017000", "175638.020000", "175638.023000", "175638.025000", "175638.028000", "175638.030000", "175638.033000", "175638.035000", "175638.038000", "175638.041000", "175638.043000", "175638.046000", "175638.048000", "175638.051000", "175717.986000", "175717.989000", "175717.991000", "175717.994000", "175717.997000", "175718.000000", "175718.003000", "175718.005000", "175718.008000", "175718.010000", "175718.013000", "175718.016000", "175718.018000", "175718.021000", "175718.023000", "175718.026000", "175718.028000", "175718.031000", "175718.033000", "175718.036000", "175718.039000", "175718.041000", "175718.044000", "175718.046000", "175718.049000", "175718.051000", "175718.054000", "175720.303000"],
