{
  "AcquisitionMatrixPE": 104,
  "AcquisitionNumber": 1,
  "AcquisitionTime": "13:57:14.852500",
  "BandwidthPerPixelPhaseEncode": 17.17,
  "BaseResolution": 104,
  "BodyPartExamined": "BRAIN",
  "CoilCombinationMethod": "Sum of Squares",
  "ConsistencyInfo": "N4_VE11C_LATEST_20160120",
  "ConversionSoftware": "dcm2niix",
  "ConversionSoftwareVersion": "v1.0.20211006",
  "DerivedVendorReportedEchoSpacing": 0.000560011,
  "DeviceSerialNumber": "167006",
  "DwellTime": 2.1e-06,
  "EchoTime": 0.037,
  "EchoTime1": 0.037,
  "EchoTime2": 0.001,
  "EchoTrainLength": 104,
  "EffectiveEchoSpacing": 0.000560011,
  "FlipAngle": 52,
  "HeudiconvVersion": "0.11.3.post9+gc939bf8",
  "ImageComments": "Unaliased MB4/PE3/LB",
  "ImageOrientationPatientDICOM": [0.999875, 0.0116115, 0.0107764, -0.0078532, 0.9541, -0.299385],
  "ImageOrientationText": "Tra>Cor(-17.4)>Sag(0.8)",
  "ImageType": [
    "ORIGINAL",
    "PRIMARY",
    "P",
    "MB",
    "ND",
    "MOSAIC",
    "PHASE"
],
  "ImagingFrequency": 123.259,
  "InPlanePhaseEncodingDirectionDICOM": "COL",
  "InstitutionAddress": "Chemin Queen-Mary 4565,Montreal,District,CA,H3W 1W5",
  "InstitutionName": "IUGM",
  "InstitutionalDepartmentName": "Department",
  "MRAcquisitionType": "2D",
  "MagneticFieldStrength": 3,
  "Manufacturer": "Siemens",
  "ManufacturersModelName": "Prisma_fit",
  "MatrixCoilMode": "SENSE",
  "Modality": "MR",
  "MultibandAccelerationFactor": 4,
  "PartialFourier": 1,
  "PatientPosition": "HFS",
  "PercentPhaseFOV": 100,
  "PercentSampling": 100,
  "PhaseEncodingDirection": "j",
  "PhaseEncodingSteps": 104,
  "PhaseResolution": 1,
  "PixelBandwidth": 2290,
  "ProcedureStepDescription": "games^mariostars",
  "ProtocolName": "func_task-mariostars_run-01",
  "PulseSequenceDetails": "%CustomerSeq%\\cmrr_mbep2d_bold",
  "ReceiveCoilActiveElements": "HC1-7;NC1,2",
  "ReceiveCoilName": "HeadNeck_64",
  "ReconMatrixPE": 104,
  "RepetitionTime": 1.49,
  "SAR": 0.0681195,
  "ScanOptions": "FS",
  "ScanningSequence": "EP",
  "SequenceName": "epfid2d1_104",
  "SequenceVariant": "SK\\SS",
  "SeriesDescription": "func_task-mariostars_run-01",
  "SeriesNumber": 12,
  "ShimSetting": [636, -7215, -8765, 706, 59, 0, -9, -18],
  "SliceThickness": 2,
  "SliceTiming": [0, 0.785, 0.0975, 0.8825, 0.195, 0.98, 0.295, 1.0775, 0.3925, 1.175, 0.49, 1.275, 0.5875, 1.3725, 0.685, 0, 0.785, 0.0975, 0.8825, 0.195, 0.98, 0.295, 1.0775, 0.3925, 1.175, 0.49, 1.275, 0.5875, 1.3725, 0.685, 0, 0.785, 0.0975, 0.8825, 0.195, 0.98, 0.295, 1.0775, 0.3925, 1.175, 0.49, 1.275, 0.5875, 1.3725, 0.685, 0, 0.785, 0.0975, 0.8825, 0.195, 0.98, 0.295, 1.0775, 0.3925, 1.175, 0.49, 1.275, 0.5875, 1.3725, 0.685],
  "SoftwareVersions": "syngo MR E11",
  "SpacingBetweenSlices": 2,
  "StationName": "MRC35049",
  "TaskName": "mariostars",
  "TotalReadoutTime": 0.0576811,
  "TxRefAmp": 237.445,
  "WipMemBlock": "fac9f900-9dfa-402a-9527-067630adb8cc||Sequence: R017 ve11c/master r/75a17815+; Jun 28 2022 16:32:11 by eja",
  "dcmmeta_affine": [
    [-1.9997490644454956, -0.01570640131831169, 0.027516229078173637, 108.78218841552734],
    [-0.02322298102080822, 1.9082000255584717, -0.5985260605812073, -69.91364288330078],
    [0.021552888676524162, 0.5987704396247864, 1.9081429243087769, -59.9366569519043],
    [0.0, 0.0, 0.0, 1.0]
],
  "dcmmeta_reorient_transform": [
    [0.0, -1.0, 0.0, 103.0],
    [1.0, 0.0, 0.0, 0.0],
    [0.0, 0.0, 1.0, 0.0],
    [0.0, 0.0, 0.0, 1.0]
],
  "dcmmeta_shape": [104, 104, 60, 437],
  "dcmmeta_slice_dim": 2,
  "dcmmeta_version": 0.6,
  "global": {
    "const": {
      "AcquisitionMatrix": [104, 0, 0, 104],
      "AngioFlag": "N",
      "BitsAllocated": 16,
      "BitsStored": 16,
      "BodyPartExamined": "BRAIN",
      "Columns": 832,
      "EchoNumbers": 1,
      "EchoTime": 37.0,
      "EchoTrainLength": 104,
      "FlipAngle": 52.0,
      "HighBit": 15,
      "ImageOrientationPatient": [0.99987451289494, 0.01161149057815, 0.01077644420321, -0.0078532004826, 0.95410000209606, -0.2993852254913],
      "ImagePositionPatient": [-829.35594741552, -829.66892235416, 211.8438919875],
      "ImageType": [
        "ORIGINAL",
        "PRIMARY",
        "P",
        "MB",
        "ND",
        "MOSAIC"
],
      "ImagedNucleus": "1H",
      "ImagingFrequency": 123.258799,
      "InPlanePhaseEncodingDirection": "COL",
      "LargestImagePixelValue": 4095,
      "MRAcquisitionType": "2D",
      "MagneticFieldStrength": 3.0,
      "Manufacturer": "SIEMENS",
      "ManufacturerModelName": "Prisma_fit",
      "Modality": "MR",
      "NumberOfAverages": 1.0,
      "NumberOfPhaseEncodingSteps": 104,
      "PercentPhaseFieldOfView": 100.0,
      "PercentSampling": 100.0,
      "PerformedProcedureStepStartTime": "135300.590000",
      "PhotometricInterpretation": "MONOCHROME2",
      "PixelBandwidth": 2290.0,
      "PixelRepresentation": 0,
      "PixelSpacing": [2.0, 2.0],
      "ProtocolName": "func_task-mariostars_run-01",
      "RepetitionTime": 1490.0,
      "RescaleIntercept": -4096.0,
      "RescaleSlope": 2.0,
      "RescaleType": "US",
      "Rows": 832,
      "SAR": 0.0681195472971,
      "SamplesPerPixel": 1,
      "ScanOptions": "FS",
      "ScanningSequence": "EP",
      "SequenceName": "epfid2d1_104",
      "SequenceVariant": [
        "SK",
        "SS"
],
      "SeriesDescription": "func_task-mariostars_run-01",
      "SeriesNumber": 12,
      "SeriesTime": "135840.090000",
      "SliceLocation": -34.764647458178,
      "SliceThickness": 2.0,
      "SmallestImagePixelValue": 0,
      "SoftwareVersions": "syngo MR E11",
      "SpacingBetweenSlices": 1.9999999994012,
      "SpecificCharacterSet": "ISO_IR 100",
      "StudyID": "1",
      "StudyTime": "135300.513000",
      "TransmitCoilName": "Body",
      "VariableFlipAngleFlag": "N",
      "WindowCenterWidthExplanation": "Algo1",
      "dBdt": 0.0},
    "slices": {}
  },
  "time": {
    "samples": {
      "AcquisitionNumber": [1, 2, 3, 4, 5, 6, 7, 8, 9, 10, 11, 12, 13, 14, 15, 16, 17, 18, 19, 20, 21, 22, 23, 24, 25, 26, 27, 28, 29, 30, 31, 32, 33, 34, 35, 36, 37, 38, 39, 40, 41, 42, 43, 44, 45, 46, 47, 48, 49, 50, 51, 52, 53, 54, 55, 56, 57, 58, 59, 60, 61, 62, 63, 64, 65, 66, 67, 68, 69, 70, 71, 72, 73, 74, 75, 76, 77, 78, 79, 80, 81, 82, 83, 84, 85, 86, 87, 88, 89, 90, 91, 92, 93, 94, 95, 96, 97, 98, 99, 100, 101, 102, 103, 104, 105, 106, 107, 108, 109, 110, 111, 112, 113, 114, 115, 116, 117, 118, 119, 120, 121, 122, 123, 124, 125, 126, 127, 128, 129, 130, 131, 132, 133, 134, 135, 136, 137, 138, 139, 140, 141, 142, 143, 144, 145, 146, 147, 148, 149, 150, 151, 152, 153, 154, 155, 156, 157, 158, 159, 160, 161, 162, 163, 164, 165, 166, 167, 168, 169, 170, 171, 172, 173, 174, 175, 176, 177, 178, 179, 180, 181, 182, 183, 184, 185, 186, 187, 188, 189, 190, 191, 192, 193, 194, 195, 196, 197, 198, 199, 200, 201, 202, 203, 204, 205, 206, 207, 208, 209, 210, 211, 212, 213, 214, 215, 216, 217, 218, 219, 220, 221, 222, 223, 224, 225, 226, 227, 228, 229, 230, 231, 232, 233, 234, 235, 236, 237, 238, 239, 240, 241, 242, 243, 244, 245, 246, 247, 248, 249, 250, 251, 252, 253, 254, 255, 256, 257, 258, 259, 260, 261, 262, 263, 264, 265, 266, 267, 268, 269, 270, 271, 272, 273, 274, 275, 276, 277, 278, 279, 280, 281, 282, 283, 284, 285, 286, 287, 288, 289, 290, 291, 292, 293, 294, 295, 296, 297, 298, 299, 300, 301, 302, 303, 304, 305, 306, 307, 308, 309, 310, 311, 312, 313, 314, 315, 316, 317, 318, 319, 320, 321, 322, 323, 324, 325, 326, 327, 328, 329, 330, 331, 332, 333, 334, 335, 336, 337, 338, 339, 340, 341, 342, 343, 344, 345, 346, 347, 348, 349, 350, 351, 352, 353, 354, 355, 356, 357, 358, 359, 360, 361, 362, 363, 364, 365, 366, 367, 368, 369, 370, 371, 372, 373, 374, 375, 376, 377, 378, 379, 380, 381, 382, 383, 384, 385, 386, 387, 388, 389, 390, 391, 392, 393, 394, 395, 396, 397, 398, 399, 400, 401, 402, 403, 404, 405, 406, 407, 408, 409, 410, 411, 412, 413, 414, 415, 416, 417, 418, 419, 420, 421, 422, 423, 424, 425, 426, 427, 428, 429, 430, 431, 432, 433, 434, 435, 436, 437],
      "AcquisitionTime": ["135714.852500", "135716.342500", "135717.832500", "135719.322500", "135720.812500", "135722.302500", "135723.792500", "135725.282500", "135726.772500", "135728.262500", "135729.752500", "135731.242500", "135732.732500", "135734.222500", "135735.712500", "135737.202500", "135738.692500", "135740.182500", "135741.672500", "135743.162500", "135744.652500", "135746.142500", "135747.632500", "135749.122500", "135750.612500", "135752.102500", "135753.592500", "135755.082500", "135756.572500", "135758.062500", "135759.552500", "135801.042500", "135802.532500", "135804.022500", "135805.512500", "135807.002500", "135808.492500", "135809.982500", "135811.472500", "135812.962500", "135814.452500", "135815.942500", "135817.432500", "135818.922500", "135820.412500", "135821.902500", "135823.392500", "135824.882500", "135826.372500", "135827.862500", "135829.352500", "135830.842500", "135832.332500", "135833.822500", "135835.312500", "135836.802500", "135838.292500", "135839.782500", "135841.272500", "135842.762500", "135844.252500", "135845.742500", "135847.232500", "135848.722500", "135850.212500", "135851.702500", "135853.192500", "135854.682500", "135856.172500", "135857.662500", "135859.152500", "135900.642500", "135902.132500", "135903.622500", "135905.112500", "135906.602500", "135908.092500", "135909.582500", "135911.072500", "135912.562500", "135914.052500", "135915.542500", "135917.032500", "135918.522500", "135920.012500", "135921.502500", "135922.992500", "135924.482500", "135925.972500", "135927.462500", "135928.952500", "135930.442500", "135931.932500", "135933.422500", "135934.912500", "135936.402500", "135937.892500", "135939.382500", "135940.872500", "135942.362500", "135943.852500", "135945.342500", "135946.832500", "135948.322500", "135949.812500", "135951.302500", "135952.792500", "135954.282500", "135955.772500", "135957.262500", "135958.752500", "140000.242500", "140001.732500", "140003.222500", "140004.712500", "140006.202500", "140007.692500", "140009.182500", "140010.672500", "140012.162500", "140013.652500", "140015.142500", "140016.632500", "140018.122500", "140019.612500", "140021.102500", "140022.592500", "140024.082500", "140025.572500", "140027.062500", "140028.552500", "140030.042500", "140031.532500", "140033.022500", "140034.512500", "140036.002500", "140037.492500", "140038.982500", "140040.472500", "140041.962500", "140043.452500", "140044.942500", "140046.432500", "140047.922500", "140049.412500", "140050.902500", "140052.392500", "140053.882500", "140055.372500", "140056.862500", "140058.352500", "140059.842500", "140101.332500", "140102.822500", "140104.312500", "140105.802500", "140107.292500", "140108.782500", "140110.272500", "140111.762500", "140113.252500", "140114.742500", "140116.232500", "140117.722500", "140119.212500", "140120.702500", "140122.192500", "140123.682500", "140125.172500", "140126.662500", "140128.152500", "140129.642500", "140131.132500", "140132.622500", "140134.112500", "140135.602500", "140137.092500", "140138.582500", "140140.072500", "140141.562500", "140143.052500", "140144.542500", "140146.032500", "140147.522500", "140149.012500", "140150.502500", "140151.992500", "140153.482500", "140154.972500", "140156.462500", "140157.952500", "140159.442500", "140200.932500", "140202.422500", "140203.912500", "140205.402500", "140206.892500", "140208.382500", "140209.872500", "140211.362500", "140212.852500", "140214.342500", "140215.832500", "140217.322500", "140218.812500", "140220.302500", "140221.792500", "140223.282500", "140224.772500", "140226.262500", "140227.752500", "140229.242500", "140230.732500", "140232.222500", "140233.712500", "140235.202500", "140236.692500", "140238.182500", "140239.672500", "140241.162500", "140242.652500", "140244.142500", "140245.632500", "140247.122500", "140248.612500", "140250.102500", "140251.592500", "140253.082500", "140254.572500", "140256.062500", "140257.552500", "140259.042500", "140300.532500", "140302.022500", "140303.512500", "140305.002500", "140306.492500", "140307.982500", "140309.472500", "140310.962500", "140312.452500", "140313.942500", "140315.432500", "140316.922500", "140318.412500", "140319.902500", "140321.392500", "140322.882500", "140324.372500", "140325.862500", "140327.352500", "140328.842500", "140330.332500", "140331.822500", "140333.312500", "140334.802500", "140336.292500", "140337.782500", "140339.272500", "140340.762500", "140342.252500", "140343.742500", "140345.232500", "140346.722500", "140348.212500", "140349.702500", "140351.192500", "140352.682500", "140354.172500", "140355.662500", "140357.152500", "140358.642500", "140400.132500", "140401.622500", "140403.112500", "140404.602500", "140406.092500", "140407.582500", "140409.072500", "140410.562500", "140412.052500", "140413.542500", "140415.032500", "140416.522500", "140418.012500", "140419.502500", "140420.992500", "140422.482500", "140423.972500", "140425.462500", "140426.952500", "140428.442500", "140429.932500", "140431.422500", "140432.912500", "140434.402500", "140435.892500", "140437.382500", "140438.872500", "140440.362500", "140441.852500", "140443.342500", "140444.832500", "140446.322500", "140447.812500", "140449.302500", "140450.792500", "140452.282500", "140453.772500", "140455.262500", "140456.752500", "140458.242500", "140459.732500", "140501.222500", "140502.712500", "140504.202500", "140505.692500", "140507.182500", "140508.672500", "140510.162500", "140511.652500", "140513.142500", "140514.632500", "140516.122500", "140517.612500", "140519.102500", "140520.592500", "140522.082500", "140523.572500", "140525.062500", "140526.552500", "140528.042500", "140529.532500", "140531.022500", "140532.512500", "140534.002500", "140535.492500", "140536.982500", "140538.472500", "140539.962500", "140541.452500", "140542.942500", "140544.432500", "140545.922500", "140547.412500", "140548.902500", "140550.392500", "140551.882500", "140553.372500", "140554.862500", "140556.352500", "140557.842500", "140559.332500", "140600.822500", "140602.312500", "140603.802500", "140605.292500", "140606.782500", "140608.272500", "140609.762500", "140611.252500", "140612.742500", "140614.232500", "140615.722500", "140617.212500", "140618.702500", "140620.192500", "140621.682500", "140623.172500", "140624.662500", "140626.152500", "140627.642500", "140629.132500", "140630.622500", "140632.112500", "140633.602500", "140635.092500", "140636.582500", "140638.072500", "140639.562500", "140641.052500", "140642.542500", "140644.032500", "140645.522500", "140647.012500", "140648.502500", "140649.992500", "140651.482500", "140652.972500", "140654.462500", "140655.952500", "140657.442500", "140658.932500", "140700.422500", "140701.912500", "140703.402500", "140704.892500", "140706.382500", "140707.872500", "140709.362500", "140710.852500", "140712.342500", "140713.832500", "140715.322500", "140716.812500", "140718.302500", "140719.792500", "140721.282500", "140722.772500", "140724.262500", "140725.752500", "140727.242500", "140728.732500", "140730.222500", "140731.712500", "140733.202500", "140734.692500", "140736.182500", "140737.672500", "140739.162500", "140740.652500", "140742.142500", "140743.632500", "140745.122500", "140746.612500", "140748.102500", "140749.592500", "140751.082500", "140752.572500", "140754.062500", "140755.552500", "140757.042500", "140758.532500", "140800.022500", "140801.512500", "140803.002500", "140804.492500"],
      "ContentTime": ["135840.092000", "135840.094000", "135840.097000", "135840.099000", "135840.102000", "135840.104000", "135840.107000", "135840.109000", "135840.112000", "135840.114000", "135840.116000", "135840.119000", "135840.122000", "135840.124000", "135840.127000", "135840.129000", "135840.131000", "135840.134000", "135840.136000", "135840.139000", "135840.141000", "135840.144000", "135840.146000", "135840.149000", "135840.151000", "135840.154000", "135840.156000", "135840.159000", "135840.161000", "135840.164000", "135840.166000", "135840.169000", "135840.171000", "135840.174000", "135840.176000", "135840.179000", "135859.957000", "135859.960000", "135859.962000", "135859.965000", "135859.967000", "135859.970000", "135859.972000", "135859.975000", "135859.977000", "135859.980000", "135859.982000", "135859.984000", "135859.987000", "135859.990000", "135859.992000", "135900.001000", "135900.003000", "135900.006000", "135900.008000", "135900.011000", "135900.013000", "135919.945000", "135919.947000", "135919.950000", "135919.952000", "135919.955000", "135919.957000", "135919.960000", "135919.963000", "135919.965000", "135919.967000", "135919.970000", "135919.973000", "135919.975000", "135919.978000", "135919.980000", "135919.983000", "135919.985000", "135919.988000", "135919.990000", "135919.993000", "140000.000000", "140000.003000", "140000.005000", "140000.008000", "140000.010000", "140000.013000", "140000.015000", "140000.018000", "140000.020000", "140000.023000", "140000.025000", "140000.028000", "140000.038000", "140000.040000", "140000.043000", "140000.045000", "140000.048000", "140000.050000", "140000.053000", "140000.055000", "140000.058000", "140000.061000", "140000.063000", "140000.065000", "140000.068000", "140000.071000", "140000.073000", "140000.076000", "140000.078000", "140000.081000", "140000.083000", "140000.086000", "140000.088000", "140039.983000", "140039.986000", "140039.988000", "140039.991000", "140039.993000", "140039.996000", "140039.998000", "140040.002000", "140040.004000", "140040.007000", "140040.009000", "140040.012000", "140040.014000", "140040.017000", "140040.019000", "140040.022000", "140040.024000", "140040.027000", "140040.029000", "140040.032000", "140040.034000", "140040.037000", "140040.039000", "140040.042000", "140040.044000", "140040.047000", "140040.049000", "140120.517000", "140120.519000", "140120.522000", "140120.524000", "140120.527000", "140120.529000", "140120.532000", "140120.534000", "140120.537000", "140120.540000", "140120.542000", "140120.557000", "140120.560000", "140120.562000", "140120.565000", "140120.567000", "140120.570000", "140120.572000", "140120.575000", "140120.577000", "140120.580000", "140120.582000", "140120.585000", "140120.587000", "140120.590000", "140120.592000", "140159.982000", "140159.985000", "140159.987000", "140159.990000", "140159.992000", "140159.995000", "140159.997000", "140200.001000", "140200.003000", "140200.006000", "140200.009000", "140200.011000", "140200.013000", "140200.016000", "140200.018000", "140200.021000", "140200.024000", "140200.026000", "140200.029000", "140200.031000", "140200.034000", "140200.036000", "140200.039000", "140200.041000", "140200.044000", "140200.046000", "140200.050000", "140239.966000", "140239.969000", "140239.977000", "140239.980000", "140239.982000", "140239.985000", "140239.987000", "140239.990000", "140239.993000", "140239.995000", "140239.997000", "140240.001000", "140240.004000", "140240.006000", "140240.009000", "140240.011000", "140240.013000", "140240.016000", "140240.018000", "140240.021000", "140240.023000", "140240.026000", "140240.028000", "140240.031000", "140240.033000", "140240.036000", "140240.038000", "140319.991000", "140319.994000", "140319.996000", "140320.000000", "140320.002000", "140320.005000", "140320.007000", "140320.010000", "140320.012000", "140320.015000", "140320.017000", "140320.020000", "140320.023000", "140320.025000", "140320.028000", "140320.030000", "140320.032000", "140320.035000", "140320.038000", "140320.040000", "140320.050000", "140320.052000", "140320.055000", "140320.057000", "140320.060000", "140320.062000", "140320.065000", "140359.953000", "140359.956000", "140359.958000", "140359.961000", "140359.963000", "140359.966000", "140359.968000", "140359.971000", "140359.973000", "140359.976000", "140359.978000", "140359.981000", "140359.983000", "140359.986000", "140359.988000", "140359.991000", "140359.993000", "140359.996000", "140359.998000", "140400.002000", "140400.004000", "140400.007000", "140400.009000", "140400.012000", "140400.014000", "140400.017000", "140400.019000", "140439.972000", "140439.975000", "140439.978000", "140439.980000", "140439.982000", "140439.985000", "140439.987000", "140439.990000", "140439.992000", "140439.995000", "140439.997000", "140440.001000", "140440.004000", "140440.006000", "140440.009000", "140440.011000", "140440.013000", "140440.016000", "140440.019000", "140440.021000", "140440.024000", "140440.026000", "140440.028000", "140440.031000", "140440.033000", "140440.036000", "140440.039000", "140519.974000", "140519.977000", "140519.980000", "140519.982000", "140519.985000", "140519.987000", "140519.990000", "140519.992000", "140519.995000", "140519.997000", "140520.001000", "140520.003000", "140520.006000", "140520.008000", "140520.010000", "140520.013000", "140520.015000", "140520.018000", "140520.020000", "140520.023000", "140520.025000", "140520.028000", "140520.030000", "140520.033000", "140520.035000", "140520.038000", "140520.040000", "140559.944000", "140559.948000", "140559.951000", "140559.953000", "140559.956000", "140559.958000", "140559.961000", "140559.964000", "140559.966000", "140559.968000", "140559.971000", "140559.973000", "140559.976000", "140559.978000", "140559.981000", "140559.983000", "140559.986000", "140559.988000", "140559.991000", "140559.993000", "140559.996000", "140600.000000", "140600.002000", "140600.005000", "140600.007000", "140600.010000", "140639.957000", "140639.959000", "140639.962000", "140639.965000", "140639.967000", "140639.970000", "140639.972000", "140639.975000", "140639.977000", "140639.980000", "140639.983000", "140639.985000", "140639.987000", "140639.990000", "140639.993000", "140639.995000", "140639.998000", "140640.001000", "140640.004000", "140640.006000", "140640.009000", "140640.011000", "140640.014000", "140640.016000", "140640.019000", "140640.021000", "140640.024000", "140719.965000", "140719.968000", "140719.970000", "140719.973000", "140719.975000", "140719.978000", "140719.980000", "140719.983000", "140719.985000", "140719.988000", "140719.990000", "140719.993000", "140719.995000", "140719.998000", "140720.001000", "140720.004000", "140720.006000", "140720.009000", "140720.011000", "140720.014000", "140720.016000", "140720.019000", "140720.021000", "140720.024000", "140720.026000", "140720.029000", "140720.031000", "140759.997000", "140800.001000", "140800.003000", "140800.006000", "140800.008000", "140800.011000", "140800.013000", "140800.016000", "140800.018000", "140800.020000", "140800.023000", "140800.025000", "140800.028000", "140800.030000", "140800.033000", "140800.035000", "140800.038000", "140800.040000", "140800.043000", "140800.046000", "140800.048000", "140800.050000", "140800.053000", "140800.056000", "140800.058000", "140800.061000", "140800.064000", "140807.475000", "140807.478000", "140807.480000", "140807.483000", "140807.486000"],
