{
  "AcquisitionMatrixPE": 104,
  "AcquisitionNumber": 1,
  "AcquisitionTime": "14:09:25.502500",
  "BandwidthPerPixelPhaseEncode": 17.17,
  "BaseResolution": 104,
  "BodyPartExamined": "BRAIN",
  "CoilCombinationMethod": "Sum of Squares",
  "ConsistencyInfo": "N4_VE11C_LATEST_20160120",
  "ConversionSoftware": "dcm2niix",
  "ConversionSoftwareVersion": "v1.0.20211006",
  "DerivedVendorReportedEchoSpacing": 0.000560011,
  "DeviceSerialNumber": "167006",
  "DwellTime": 2.1e-06,
  "EchoTime": 0.037,
  "EchoTime1": 0.037,
  "EchoTime2": 0.001,
  "EchoTrainLength": 104,
  "EffectiveEchoSpacing": 0.000560011,
  "FlipAngle": 52,
  "HeudiconvVersion": "0.11.3.post9+gc939bf8",
  "ImageComments": "Unaliased MB4/PE3/LB",
  "ImageOrientationPatientDICOM": [0.999875, 0.0116115, 0.0107764, -0.0078532, 0.9541, -0.299385],
  "ImageOrientationText": "Tra>Cor(-17.4)>Sag(0.8)",
  "ImageType": [
    "ORIGINAL",
    "PRIMARY",
    "P",
    "MB",
    "ND",
    "MOSAIC",
    "PHASE"
],
  "ImagingFrequency": 123.259,
  "InPlanePhaseEncodingDirectionDICOM": "COL",
  "InstitutionAddress": "Chemin Queen-Mary 4565,Montreal,District,CA,H3W 1W5",
  "InstitutionName": "IUGM",
  "InstitutionalDepartmentName": "Department",
  "MRAcquisitionType": "2D",
  "MagneticFieldStrength": 3,
  "Manufacturer": "Siemens",
  "ManufacturersModelName": "Prisma_fit",
  "MatrixCoilMode": "SENSE",
  "Modality": "MR",
  "MultibandAccelerationFactor": 4,
  "PartialFourier": 1,
  "PatientPosition": "HFS",
  "PercentPhaseFOV": 100,
  "PercentSampling": 100,
  "PhaseEncodingDirection": "j",
  "PhaseEncodingSteps": 104,
  "PhaseResolution": 1,
  "PixelBandwidth": 2290,
  "ProcedureStepDescription": "games^mariostars",
  "ProtocolName": "func_task-mariostars_run-02",
  "PulseSequenceDetails": "%CustomerSeq%\\cmrr_mbep2d_bold",
  "ReceiveCoilActiveElements": "HC1-7;NC1,2",
  "ReceiveCoilName": "HeadNeck_64",
  "ReconMatrixPE": 104,
  "RepetitionTime": 1.49,
  "SAR": 0.0681195,
  "ScanOptions": "FS",
  "ScanningSequence": "EP",
  "SequenceName": "epfid2d1_104",
  "SequenceVariant": "SK\\SS",
  "SeriesDescription": "func_task-mariostars_run-02",
  "SeriesNumber": 15,
  "ShimSetting": [636, -7215, -8765, 706, 59, 0, -9, -18],
  "SliceThickness": 2,
  "SliceTiming": [0, 0.7825, 0.0975, 0.88, 0.195, 0.98, 0.2925, 1.0775, 0.39, 1.175, 0.49, 1.2725, 0.5875, 1.37, 0.685, 0, 0.7825, 0.0975, 0.88, 0.195, 0.98, 0.2925, 1.0775, 0.39, 1.175, 0.49, 1.2725, 0.5875, 1.37, 0.685, 0, 0.7825, 0.0975, 0.88, 0.195, 0.98, 0.2925, 1.0775, 0.39, 1.175, 0.49, 1.2725, 0.5875, 1.37, 0.685, 0, 0.7825, 0.0975, 0.88, 0.195, 0.98, 0.2925, 1.0775, 0.39, 1.175, 0.49, 1.2725, 0.5875, 1.37, 0.685],
  "SoftwareVersions": "syngo MR E11",
  "SpacingBetweenSlices": 2,
  "StationName": "MRC35049",
  "TaskName": "mariostars",
  "TotalReadoutTime": 0.0576811,
  "TxRefAmp": 237.445,
  "WipMemBlock": "5d14fadd-3990-48c1-8441-be5479017b2b||Sequence: R017 ve11c/master r/75a17815+; Jun 28 2022 16:32:11 by eja",
  "dcmmeta_affine": [
    [-1.9997490644454956, -0.01570640131831169, 0.027516229078173637, 108.78218841552734],
    [-0.02322298102080822, 1.9082000255584717, -0.5985260605812073, -69.91364288330078],
    [0.021552888676524162, 0.5987704396247864, 1.9081429243087769, -59.9366569519043],
    [0.0, 0.0, 0.0, 1.0]
],
  "dcmmeta_reorient_transform": [
    [0.0, -1.0, 0.0, 103.0],
    [1.0, 0.0, 0.0, 0.0],
    [0.0, 0.0, 1.0, 0.0],
    [0.0, 0.0, 0.0, 1.0]
],
  "dcmmeta_shape": [104, 104, 60, 457],
  "dcmmeta_slice_dim": 2,
  "dcmmeta_version": 0.6,
  "global": {
    "const": {
      "AcquisitionMatrix": [104, 0, 0, 104],
      "AngioFlag": "N",
      "BitsAllocated": 16,
      "BitsStored": 16,
      "BodyPartExamined": "BRAIN",
      "Columns": 832,
      "EchoNumbers": 1,
      "EchoTime": 37.0,
      "EchoTrainLength": 104,
      "FlipAngle": 52.0,
      "HighBit": 15,
      "ImageOrientationPatient": [0.99987451289494, 0.01161149057815, 0.01077644420321, -0.0078532004826, 0.95410000209606, -0.2993852254913],
      "ImagePositionPatient": [-829.35594741552, -829.66892235416, 211.8438919875],
      "ImageType": [
        "ORIGINAL",
        "PRIMARY",
        "P",
        "MB",
        "ND",
        "MOSAIC"
],
      "ImagedNucleus": "1H",
      "ImagingFrequency": 123.258806,
      "InPlanePhaseEncodingDirection": "COL",
      "LargestImagePixelValue": 4095,
      "MRAcquisitionType": "2D",
      "MagneticFieldStrength": 3.0,
      "Manufacturer": "SIEMENS",
      "ManufacturerModelName": "Prisma_fit",
      "Modality": "MR",
      "NumberOfAverages": 1.0,
      "NumberOfPhaseEncodingSteps": 104,
      "PercentPhaseFieldOfView": 100.0,
      "PercentSampling": 100.0,
      "PerformedProcedureStepStartTime": "135300.590000",
      "PhotometricInterpretation": "MONOCHROME2",
      "PixelBandwidth": 2290.0,
      "PixelRepresentation": 0,
      "PixelSpacing": [2.0, 2.0],
      "ProtocolName": "func_task-mariostars_run-02",
      "RepetitionTime": 1490.0,
      "RescaleIntercept": -4096.0,
      "RescaleSlope": 2.0,
      "RescaleType": "US",
      "Rows": 832,
      "SAR": 0.0681195472971,
      "SamplesPerPixel": 1,
      "ScanOptions": "FS",
      "ScanningSequence": "EP",
      "SequenceName": "epfid2d1_104",
      "SequenceVariant": [
        "SK",
        "SS"
],
      "SeriesDescription": "func_task-mariostars_run-02",
      "SeriesNumber": 15,
      "SeriesTime": "141024.731000",
      "SliceLocation": -34.764647458178,
      "SliceThickness": 2.0,
      "SmallestImagePixelValue": 0,
      "SoftwareVersions": "syngo MR E11",
      "SpacingBetweenSlices": 1.9999999994012,
      "SpecificCharacterSet": "ISO_IR 100",
      "StudyID": "1",
      "StudyTime": "135300.513000",
      "TransmitCoilName": "Body",
      "VariableFlipAngleFlag": "N",
      "WindowCenterWidthExplanation": "Algo1",
      "dBdt": 0.0},
    "slices": {}
  },
  "time": {
    "samples": {
      "AcquisitionNumber": [1, 2, 3, 4, 5, 6, 7, 8, 9, 10, 11, 12, 13, 14, 15, 16, 17, 18, 19, 20, 21, 22, 23, 24, 25, 26, 27, 28, 29, 30, 31, 32, 33, 34, 35, 36, 37, 38, 39, 40, 41, 42, 43, 44, 45, 46, 47, 48, 49, 50, 51, 52, 53, 54, 55, 56, 57, 58, 59, 60, 61, 62, 63, 64, 65, 66, 67, 68, 69, 70, 71, 72, 73, 74, 75, 76, 77, 78, 79, 80, 81, 82, 83, 84, 85, 86, 87, 88, 89, 90, 91, 92, 93, 94, 95, 96, 97, 98, 99, 100, 101, 102, 103, 104, 105, 106, 107, 108, 109, 110, 111, 112, 113, 114, 115, 116, 117, 118, 119, 120, 121, 122, 123, 124, 125, 126, 127, 128, 129, 130, 131, 132, 133, 134, 135, 136, 137, 138, 139, 140, 141, 142, 143, 144, 145, 146, 147, 148, 149, 150, 151, 152, 153, 154, 155, 156, 157, 158, 159, 160, 161, 162, 163, 164, 165, 166, 167, 168, 169, 170, 171, 172, 173, 174, 175, 176, 177, 178, 179, 180, 181, 182, 183, 184, 185, 186, 187, 188, 189, 190, 191, 192, 193, 194, 195, 196, 197, 198, 199, 200, 201, 202, 203, 204, 205, 206, 207, 208, 209, 210, 211, 212, 213, 214, 215, 216, 217, 218, 219, 220, 221, 222, 223, 224, 225, 226, 227, 228, 229, 230, 231, 232, 233, 234, 235, 236, 237, 238, 239, 240, 241, 242, 243, 244, 245, 246, 247, 248, 249, 250, 251, 252, 253, 254, 255, 256, 257, 258, 259, 260, 261, 262, 263, 264, 265, 266, 267, 268, 269, 270, 271, 272, 273, 274, 275, 276, 277, 278, 279, 280, 281, 282, 283, 284, 285, 286, 287, 288, 289, 290, 291, 292, 293, 294, 295, 296, 297, 298, 299, 300, 301, 302, 303, 304, 305, 306, 307, 308, 309, 310, 311, 312, 313, 314, 315, 316, 317, 318, 319, 320, 321, 322, 323, 324, 325, 326, 327, 328, 329, 330, 331, 332, 333, 334, 335, 336, 337, 338, 339, 340, 341, 342, 343, 344, 345, 346, 347, 348, 349, 350, 351, 352, 353, 354, 355, 356, 357, 358, 359, 360, 361, 362, 363, 364, 365, 366, 367, 368, 369, 370, 371, 372, 373, 374, 375, 376, 377, 378, 379, 380, 381, 382, 383, 384, 385, 386, 387, 388, 389, 390, 391, 392, 393, 394, 395, 396, 397, 398, 399, 400, 401, 402, 403, 404, 405, 406, 407, 408, 409, 410, 411, 412, 413, 414, 415, 416, 417, 418, 419, 420, 421, 422, 423, 424, 425, 426, 427, 428, 429, 430, 431, 432, 433, 434, 435, 436, 437, 438, 439, 440, 441, 442, 443, 444, 445, 446, 447, 448, 449, 450, 451, 452, 453, 454, 455, 456, 457],
      "AcquisitionTime": ["140925.502500", "140926.992500", "140928.482500", "140929.972500", "140931.462500", "140932.952500", "140934.442500", "140935.932500", "140937.422500", "140938.912500", "140940.402500", "140941.892500", "140943.382500", "140944.872500", "140946.362500", "140947.852500", "140949.342500", "140950.832500", "140952.322500", "140953.812500", "140955.302500", "140956.792500", "140958.282500", "140959.772500", "141001.262500", "141002.752500", "141004.242500", "141005.732500", "141007.222500", "141008.712500", "141010.202500", "141011.692500", "141013.182500", "141014.672500", "141016.162500", "141017.652500", "141019.142500", "141020.632500", "141022.122500", "141023.612500", "141025.102500", "141026.592500", "141028.082500", "141029.572500", "141031.062500", "141032.552500", "141034.042500", "141035.532500", "141037.022500", "141038.512500", "141040.002500", "141041.492500", "141042.982500", "141044.472500", "141045.962500", "141047.452500", "141048.942500", "141050.432500", "141051.922500", "141053.412500", "141054.902500", "141056.392500", "141057.882500", "141059.372500", "141100.862500", "141102.352500", "141103.842500", "141105.332500", "141106.822500", "141108.312500", "141109.802500", "141111.292500", "141112.782500", "141114.272500", "141115.762500", "141117.252500", "141118.742500", "141120.232500", "141121.722500", "141123.212500", "141124.702500", "141126.192500", "141127.682500", "141129.172500", "141130.662500", "141132.152500", "141133.642500", "141135.132500", "141136.622500", "141138.112500", "141139.602500", "141141.092500", "141142.582500", "141144.072500", "141145.562500", "141147.052500", "141148.542500", "141150.032500", "141151.522500", "141153.012500", "141154.502500", "141155.992500", "141157.482500", "141158.972500", "141200.462500", "141201.952500", "141203.442500", "141204.932500", "141206.422500", "141207.912500", "141209.402500", "141210.892500", "141212.382500", "141213.872500", "141215.362500", "141216.852500", "141218.342500", "141219.832500", "141221.322500", "141222.812500", "141224.302500", "141225.792500", "141227.282500", "141228.772500", "141230.262500", "141231.752500", "141233.242500", "141234.732500", "141236.222500", "141237.712500", "141239.202500", "141240.692500", "141242.182500", "141243.672500", "141245.162500", "141246.652500", "141248.142500", "141249.632500", "141251.122500", "141252.612500", "141254.102500", "141255.592500", "141257.082500", "141258.572500", "141300.062500", "141301.552500", "141303.042500", "141304.532500", "141306.022500", "141307.512500", "141309.002500", "141310.492500", "141311.982500", "141313.472500", "141314.962500", "141316.452500", "141317.942500", "141319.432500", "141320.922500", "141322.412500", "141323.902500", "141325.392500", "141326.882500", "141328.372500", "141329.862500", "141331.352500", "141332.842500", "141334.332500", "141335.822500", "141337.312500", "141338.802500", "141340.292500", "141341.782500", "141343.272500", "141344.762500", "141346.252500", "141347.742500", "141349.232500", "141350.722500", "141352.212500", "141353.702500", "141355.192500", "141356.682500", "141358.172500", "141359.662500", "141401.152500", "141402.642500", "141404.132500", "141405.622500", "141407.112500", "141408.602500", "141410.092500", "141411.582500", "141413.072500", "141414.562500", "141416.052500", "141417.542500", "141419.032500", "141420.522500", "141422.012500", "141423.502500", "141424.992500", "141426.482500", "141427.972500", "141429.462500", "141430.952500", "141432.442500", "141433.932500", "141435.422500", "141436.912500", "141438.402500", "141439.892500", "141441.382500", "141442.872500", "141444.362500", "141445.852500", "141447.342500", "141448.832500", "141450.322500", "141451.812500", "141453.302500", "141454.792500", "141456.282500", "141457.772500", "141459.262500", "141500.752500", "141502.242500", "141503.732500", "141505.222500", "141506.712500", "141508.202500", "141509.692500", "141511.182500", "141512.672500", "141514.162500", "141515.652500", "141517.142500", "141518.632500", "141520.122500", "141521.612500", "141523.102500", "141524.592500", "141526.082500", "141527.572500", "141529.062500", "141530.552500", "141532.042500", "141533.532500", "141535.022500", "141536.512500", "141538.002500", "141539.492500", "141540.982500", "141542.472500", "141543.962500", "141545.452500", "141546.942500", "141548.432500", "141549.922500", "141551.412500", "141552.902500", "141554.392500", "141555.882500", "141557.372500", "141558.862500", "141600.352500", "141601.842500", "141603.332500", "141604.822500", "141606.312500", "141607.802500", "141609.292500", "141610.782500", "141612.272500", "141613.762500", "141615.252500", "141616.742500", "141618.232500", "141619.722500", "141621.212500", "141622.702500", "141624.192500", "141625.682500", "141627.172500", "141628.662500", "141630.152500", "141631.642500", "141633.132500", "141634.622500", "141636.112500", "141637.602500", "141639.092500", "141640.582500", "141642.072500", "141643.562500", "141645.052500", "141646.542500", "141648.032500", "141649.522500", "141651.012500", "141652.502500", "141653.992500", "141655.482500", "141656.972500", "141658.462500", "141659.952500", "141701.442500", "141702.932500", "141704.422500", "141705.912500", "141707.402500", "141708.892500", "141710.382500", "141711.872500", "141713.362500", "141714.852500", "141716.342500", "141717.832500", "141719.322500", "141720.812500", "141722.302500", "141723.792500", "141725.282500", "141726.772500", "141728.262500", "141729.752500", "141731.242500", "141732.732500", "141734.222500", "141735.712500", "141737.202500", "141738.692500", "141740.182500", "141741.672500", "141743.162500", "141744.652500", "141746.142500", "141747.632500", "141749.122500", "141750.612500", "141752.102500", "141753.592500", "141755.082500", "141756.572500", "141758.062500", "141759.552500", "141801.042500", "141802.532500", "141804.022500", "141805.512500", "141807.002500", "141808.492500", "141809.982500", "141811.472500", "141812.962500", "141814.452500", "141815.942500", "141817.432500", "141818.922500", "141820.412500", "141821.902500", "141823.392500", "141824.882500", "141826.372500", "141827.862500", "141829.352500", "141830.842500", "141832.332500", "141833.822500", "141835.312500", "141836.802500", "141838.292500", "141839.782500", "141841.272500", "141842.762500", "141844.252500", "141845.742500", "141847.232500", "141848.722500", "141850.212500", "141851.702500", "141853.192500", "141854.682500", "141856.172500", "141857.662500", "141859.152500", "141900.642500", "141902.132500", "141903.622500", "141905.112500", "141906.602500", "141908.092500", "141909.582500", "141911.072500", "141912.562500", "141914.052500", "141915.542500", "141917.032500", "141918.522500", "141920.012500", "141921.502500", "141922.992500", "141924.482500", "141925.972500", "141927.462500", "141928.952500", "141930.442500", "141931.932500", "141933.422500", "141934.912500", "141936.402500", "141937.892500", "141939.382500", "141940.872500", "141942.362500", "141943.852500", "141945.342500", "141946.832500", "141948.322500", "141949.812500", "141951.302500", "141952.792500", "141954.282500", "141955.772500", "141957.262500", "141958.752500", "142000.242500", "142001.732500", "142003.222500", "142004.712500", "142006.202500", "142007.692500", "142009.182500", "142010.672500", "142012.162500", "142013.652500", "142015.142500", "142016.632500", "142018.122500", "142019.612500", "142021.102500", "142022.592500", "142024.082500", "142025.572500", "142027.062500", "142028.552500", "142030.042500", "142031.532500", "142033.022500", "142034.512500", "142036.002500", "142037.492500", "142038.982500", "142040.472500", "142041.962500", "142043.452500", "142044.942500"],
      "ContentTime": ["141024.733000", "141024.736000", "141024.738000", "141024.741000", "141024.743000", "141024.746000", "141024.748000", "141024.751000", "141024.753000", "141024.756000", "141044.716000", "141044.719000", "141044.722000", "141044.724000", "141044.726000", "141044.729000", "141044.731000", "141044.734000", "141044.736000", "141044.739000", "141044.741000", "141044.744000", "141044.746000", "141044.749000", "141044.751000", "141044.754000", "141044.756000", "141044.759000", "141044.761000", "141044.764000", "141104.710000", "141104.712000", "141104.715000", "141104.717000", "141104.720000", "141104.722000", "141104.732000", "141104.735000", "141104.737000", "141104.740000", "141104.742000", "141104.745000", "141104.747000", "141104.750000", "141104.752000", "141104.755000", "141104.757000", "141104.760000", "141104.762000", "141104.765000", "141124.714000", "141124.717000", "141124.719000", "141124.722000", "141124.724000", "141124.727000", "141124.729000", "141124.733000", "141124.736000", "141124.740000", "141124.743000", "141124.746000", "141124.748000", "141124.751000", "141124.753000", "141124.756000", "141124.759000", "141124.762000", "141124.764000", "141124.767000", "141144.730000", "141144.733000", "141144.736000", "141144.738000", "141144.741000", "141144.743000", "141144.746000", "141144.752000", "141144.755000", "141144.757000", "141144.760000", "141144.763000", "141144.765000", "141144.768000", "141144.770000", "141144.773000", "141144.775000", "141144.778000", "141144.780000", "141144.783000", "141224.756000", "141224.759000", "141224.761000", "141224.764000", "141224.766000", "141224.769000", "141224.771000", "141224.774000", "141224.776000", "141224.779000", "141224.781000", "141224.783000", "141224.786000", "141224.789000", "141224.791000", "141224.795000", "141224.797000", "141224.800000", "141224.802000", "141224.805000", "141224.807000", "141224.810000", "141224.812000", "141224.815000", "141224.817000", "141224.820000", "141224.822000", "141224.825000", "141224.827000", "141305.180000", "141305.183000", "141305.186000", "141305.188000", "141305.191000", "141305.193000", "141305.196000", "141305.199000", "141305.201000", "141305.204000", "141305.206000", "141305.209000", "141305.211000", "141305.214000", "141305.216000", "141305.219000", "141305.221000", "141305.224000", "141305.226000", "141305.229000", "141305.231000", "141305.234000", "141305.237000", "141305.239000", "141305.241000", "141305.244000", "141305.247000", "141344.782000", "141344.785000", "141344.787000", "141344.790000", "141344.792000", "141344.795000", "141344.797000", "141344.800000", "141344.802000", "141344.805000", "141344.807000", "141344.810000", "141344.813000", "141344.815000", "141344.818000", "141344.820000", "141344.823000", "141344.825000", "141344.828000", "141344.831000", "141344.833000", "141344.836000", "141344.838000", "141344.841000", "141344.843000", "141344.846000", "141344.848000", "141424.756000", "141424.759000", "141424.761000", "141424.764000", "141424.766000", "141424.769000", "141424.771000", "141424.774000", "141424.776000", "141424.779000", "141424.781000", "141424.784000", "141424.786000", "141424.789000", "141424.791000", "141424.794000", "141424.796000", "141424.799000", "141424.801000", "141424.804000", "141424.807000", "141424.809000", "141424.812000", "141424.814000", "141424.817000", "141424.819000", "141424.822000", "141504.747000", "141504.750000", "141504.752000", "141504.755000", "141504.757000", "141504.760000", "141504.762000", "141504.765000", "141504.767000", "141504.770000", "141504.772000", "141504.775000", "141504.777000", "141504.780000", "141504.782000", "141504.785000", "141504.787000", "141504.790000", "141504.792000", "141504.795000", "141504.797000", "141504.800000", "141504.802000", "141504.805000", "141504.807000", "141504.810000", "141504.812000", "141544.736000", "141544.739000", "141544.742000", "141544.744000", "141544.747000", "141544.749000", "141544.752000", "141544.754000", "141544.757000", "141544.759000", "141544.762000", "141544.764000", "141544.767000", "141544.769000", "141544.772000", "141544.774000", "141544.777000", "141544.779000", "141544.782000", "141544.785000", "141544.787000", "141544.789000", "141544.792000", "141544.795000", "141544.797000", "141544.800000", "141624.762000", "141624.765000", "141624.767000", "141624.770000", "141624.772000", "141624.780000", "141624.783000", "141624.786000", "141624.788000", "141624.791000", "141624.793000", "141624.796000", "141624.798000", "141624.801000", "141624.803000", "141624.806000", "141624.808000", "141624.811000", "141624.814000", "141624.816000", "141624.819000", "141624.822000", "141624.825000", "141624.828000", "141624.830000", "141624.833000", "141624.836000", "141704.741000", "141704.744000", "141704.747000", "141704.749000", "141704.752000", "141704.754000", "141704.757000", "141704.759000", "141704.762000", "141704.764000", "141704.767000", "141704.769000", "141704.772000", "141704.775000", "141704.777000", "141704.780000", "141704.782000", "141704.785000", "141704.787000", "141704.790000", "141704.793000", "141704.795000", "141704.798000", "141704.800000", "141704.803000", "141704.805000", "141704.808000", "141744.749000", "141744.752000", "141744.755000", "141744.757000", "141744.769000", "141744.771000", "141744.774000", "141744.776000", "141744.779000", "141744.781000", "141744.784000", "141744.787000", "141744.789000", "141744.792000", "141744.795000", "141744.797000", "141744.800000", "141744.802000", "141744.805000", "141744.807000", "141744.810000", "141744.812000", "141744.815000", "141744.818000", "141744.820000", "141744.822000", "141744.825000", "141824.763000", "141824.766000", "141824.768000", "141824.771000", "141824.773000", "141824.776000", "141824.779000", "141824.781000", "141824.784000", "141824.786000", "141824.789000", "141824.791000", "141824.794000", "141824.796000", "141824.799000", "141824.802000", "141824.804000", "141824.807000", "141824.809000", "141824.812000", "141824.814000", "141824.817000", "141824.819000", "141824.822000", "141824.825000", "141824.827000", "141824.830000", "141904.743000", "141904.746000", "141904.748000", "141904.751000", "141904.754000", "141904.756000", "141904.759000", "141904.761000", "141904.764000", "141904.766000", "141904.769000", "141904.771000", "141904.774000", "141904.777000", "141904.779000", "141904.782000", "141904.785000", "141904.787000", "141904.790000", "141904.792000", "141904.795000", "141904.797000", "141904.800000", "141904.802000", "141904.805000", "141904.823000", "141904.825000", "141944.740000", "141944.742000", "141944.745000", "141944.748000", "141944.750000", "141944.753000", "141944.755000", "141944.758000", "141944.760000", "141944.763000", "141944.766000", "141944.768000", "141944.771000", "141944.773000", "141944.776000", "141944.779000", "141944.781000", "141944.784000", "141944.786000", "141944.789000", "141944.791000", "141944.794000", "141944.796000", "141944.799000", "141944.801000", "141944.804000", "141944.807000", "142024.737000", "142024.739000", "142024.753000", "142024.755000", "142024.758000", "142024.760000", "142024.763000", "142024.765000", "142024.768000", "142024.771000", "142024.773000", "142024.776000", "142024.778000", "142024.781000", "142024.783000", "142024.786000", "142024.788000", "142024.791000", "142024.794000", "142024.796000", "142024.799000", "142024.801000", "142024.804000", "142024.806000", "142024.809000", "142024.812000", "142048.461000", "142048.464000", "142048.466000", "142048.469000", "142048.471000", "142048.474000", "142048.476000", "142048.484000", "142048.487000", "142048.489000", "142048.492000", "142048.494000", "142048.497000", "142048.499000", "142048.502000", "142048.505000"],
