{
  "AcquisitionMatrixPE": 104,
  "AcquisitionNumber": 1,
  "AcquisitionTime": "17:45:42.555000",
  "BandwidthPerPixelPhaseEncode": 17.17,
  "BaseResolution": 104,
  "BodyPartExamined": "BRAIN",
  "CoilCombinationMethod": "Sum of Squares",
  "ConsistencyInfo": "N4_VE11C_LATEST_20160120",
  "ConversionSoftware": "dcm2niix",
  "ConversionSoftwareVersion": "v1.0.20211006",
  "DerivedVendorReportedEchoSpacing": 0.000560011,
  "DeviceSerialNumber": "167006",
  "DwellTime": 2.1e-06,
  "EchoTime": 0.037,
  "EchoTime1": 0.037,
  "EchoTime2": 0.001,
  "EchoTrainLength": 104,
  "EffectiveEchoSpacing": 0.000560011,
  "FlipAngle": 52,
  "HeudiconvVersion": "0.11.3.post9+gc939bf8",
  "ImageComments": "Unaliased MB4/PE3/LB",
  "ImageOrientationPatientDICOM": [0.995638, 0.0892962, 0.0270489, -0.0755614, 0.941758, -0.327691],
  "ImageOrientationText": "Tra>Cor(-18.9)>Sag(3.1)",
  "ImageType": [
    "ORIGINAL",
    "PRIMARY",
    "P",
    "MB",
    "ND",
    "MOSAIC",
    "PHASE"
],
  "ImagingFrequency": 123.259,
  "InPlanePhaseEncodingDirectionDICOM": "COL",
  "InstitutionAddress": "Chemin Queen-Mary 4565,Montreal,District,CA,H3W 1W5",
  "InstitutionName": "IUGM",
  "InstitutionalDepartmentName": "Department",
  "MRAcquisitionType": "2D",
  "MagneticFieldStrength": 3,
  "Manufacturer": "Siemens",
  "ManufacturersModelName": "Prisma_fit",
  "MatrixCoilMode": "SENSE",
  "Modality": "MR",
  "MultibandAccelerationFactor": 4,
  "PartialFourier": 1,
  "PatientPosition": "HFS",
  "PercentPhaseFOV": 100,
  "PercentSampling": 100,
  "PhaseEncodingDirection": "j",
  "PhaseEncodingSteps": 104,
  "PhaseResolution": 1,
  "PixelBandwidth": 2290,
  "ProcedureStepDescription": "games^mariostars",
  "ProtocolName": "func_task-mariostars_run-02",
  "PulseSequenceDetails": "%CustomerSeq%\\cmrr_mbep2d_bold",
  "ReceiveCoilActiveElements": "HC1-7;NC1,2",
  "ReceiveCoilName": "HeadNeck_64",
  "ReconMatrixPE": 104,
  "RepetitionTime": 1.49,
  "SAR": 0.0643365,
  "ScanOptions": "FS",
  "ScanningSequence": "EP",
  "SequenceName": "epfid2d1_104",
  "SequenceVariant": "SK\\SS",
  "SeriesDescription": "func_task-mariostars_run-02",
  "SeriesNumber": 15,
  "ShimSetting": [625, -7188, -8794, 674, 89, 21, -18, -19],
  "SliceThickness": 2,
  "SliceTiming": [0, 0.785, 0.1, 0.8825, 0.1975, 0.98, 0.295, 1.08, 0.3925, 1.1775, 0.49, 1.275, 0.59, 1.3725, 0.6875, 0, 0.785, 0.1, 0.8825, 0.1975, 0.98, 0.295, 1.08, 0.3925, 1.1775, 0.49, 1.275, 0.59, 1.3725, 0.6875, 0, 0.785, 0.1, 0.8825, 0.1975, 0.98, 0.295, 1.08, 0.3925, 1.1775, 0.49, 1.275, 0.59, 1.3725, 0.6875, 0, 0.785, 0.1, 0.8825, 0.1975, 0.98, 0.295, 1.08, 0.3925, 1.1775, 0.49, 1.275, 0.59, 1.3725, 0.6875],
  "SoftwareVersions": "syngo MR E11",
  "SpacingBetweenSlices": 2,
  "StationName": "MRC35049",
  "TaskName": "mariostars",
  "TotalReadoutTime": 0.0576811,
  "TxRefAmp": 315.048,
  "WipMemBlock": "ed1dec63-7841-48f5-b423-64475c6f0c38||Sequence: R016 ve11c/master r/e634e98; Dec 19 2017 11:00:25 by eja",
  "dcmmeta_affine": [
    [-1.9912755489349365, -0.15112271904945374, 0.1094701886177063, 111.00481414794922],
    [-0.17859235405921936, 1.8835169076919556, -0.648435652256012, -52.67473602294922],
    [0.054097793996334076, 0.6553822755813599, 1.888795256614685, -56.83750915527344],
    [0.0, 0.0, 0.0, 1.0]
],
  "dcmmeta_reorient_transform": [
    [0.0, -1.0, 0.0, 103.0],
    [1.0, 0.0, 0.0, 0.0],
    [0.0, 0.0, 1.0, 0.0],
    [0.0, 0.0, 0.0, 1.0]
],
  "dcmmeta_shape": [104, 104, 60, 434],
  "dcmmeta_slice_dim": 2,
  "dcmmeta_version": 0.6,
  "global": {
    "const": {
      "AcquisitionMatrix": [104, 0, 0, 104],
      "AngioFlag": "N",
      "BitsAllocated": 16,
      "BitsStored": 16,
      "BodyPartExamined": "BRAIN",
      "Columns": 832,
      "EchoNumbers": 1,
      "EchoTime": 37.0,
      "EchoTrainLength": 104,
      "FlipAngle": 52.0,
      "HighBit": 15,
      "ImageOrientationPatient": [0.99563776069229, 0.08929617354413, 0.0270488978339, -0.0755613597693, 0.94175846209717, -0.3276911350314],
      "ImagePositionPatient": [-765.25479607604, -891.93528095024, 229.53441153878],
      "ImageType": [
        "ORIGINAL",
        "PRIMARY",
        "P",
        "MB",
        "ND",
        "MOSAIC"
],
      "ImagedNucleus": "1H",
      "ImagingFrequency": 123.258817,
      "InPlanePhaseEncodingDirection": "COL",
      "LargestImagePixelValue": 4095,
      "MRAcquisitionType": "2D",
      "MagneticFieldStrength": 3.0,
      "Manufacturer": "SIEMENS",
      "ManufacturerModelName": "Prisma_fit",
      "Modality": "MR",
      "NumberOfAverages": 1.0,
      "NumberOfPhaseEncodingSteps": 104,
      "PercentPhaseFieldOfView": 100.0,
      "PercentSampling": 100.0,
      "PerformedProcedureStepStartTime": "170655.534000",
      "PhotometricInterpretation": "MONOCHROME2",
      "PixelBandwidth": 2290.0,
      "PixelRepresentation": 0,
      "PixelSpacing": [2.0, 2.0],
      "ProtocolName": "func_task-mariostars_run-02",
      "RepetitionTime": 1490.0,
      "RescaleIntercept": -4096.0,
      "RescaleSlope": 2.0,
      "RescaleType": "US",
      "Rows": 832,
      "SAR": 0.06433646581157,
      "SamplesPerPixel": 1,
      "ScanOptions": "FS",
      "ScanningSequence": "EP",
      "SequenceName": "epfid2d1_104",
      "SequenceVariant": [
        "SK",
        "SS"
],
      "SeriesDescription": "func_task-mariostars_run-02",
      "SeriesNumber": 15,
      "SeriesTime": "174713.776000",
      "SliceLocation": -30.523263313714,
      "SliceThickness": 2.0,
      "SmallestImagePixelValue": 0,
      "SoftwareVersions": "syngo MR E11",
      "SpacingBetweenSlices": 1.9999999847973,
      "SpecificCharacterSet": "ISO_IR 100",
      "StudyID": "1",
      "StudyTime": "170655.400000",
      "TransmitCoilName": "Body",
      "VariableFlipAngleFlag": "N",
      "WindowCenterWidthExplanation": "Algo1",
      "dBdt": 0.0},
    "slices": {}
  },
  "time": {
    "samples": {
      "AcquisitionNumber": [1, 2, 3, 4, 5, 6, 7, 8, 9, 10, 11, 12, 13, 14, 15, 16, 17, 18, 19, 20, 21, 22, 23, 24, 25, 26, 27, 28, 29, 30, 31, 32, 33, 34, 35, 36, 37, 38, 39, 40, 41, 42, 43, 44, 45, 46, 47, 48, 49, 50, 51, 52, 53, 54, 55, 56, 57, 58, 59, 60, 61, 62, 63, 64, 65, 66, 67, 68, 69, 70, 71, 72, 73, 74, 75, 76, 77, 78, 79, 80, 81, 82, 83, 84, 85, 86, 87, 88, 89, 90, 91, 92, 93, 94, 95, 96, 97, 98, 99, 100, 101, 102, 103, 104, 105, 106, 107, 108, 109, 110, 111, 112, 113, 114, 115, 116, 117, 118, 119, 120, 121, 122, 123, 124, 125, 126, 127, 128, 129, 130, 131, 132, 133, 134, 135, 136, 137, 138, 139, 140, 141, 142, 143, 144, 145, 146, 147, 148, 149, 150, 151, 152, 153, 154, 155, 156, 157, 158, 159, 160, 161, 162, 163, 164, 165, 166, 167, 168, 169, 170, 171, 172, 173, 174, 175, 176, 177, 178, 179, 180, 181, 182, 183, 184, 185, 186, 187, 188, 189, 190, 191, 192, 193, 194, 195, 196, 197, 198, 199, 200, 201, 202, 203, 204, 205, 206, 207, 208, 209, 210, 211, 212, 213, 214, 215, 216, 217, 218, 219, 220, 221, 222, 223, 224, 225, 226, 227, 228, 229, 230, 231, 232, 233, 234, 235, 236, 237, 238, 239, 240, 241, 242, 243, 244, 245, 246, 247, 248, 249, 250, 251, 252, 253, 254, 255, 256, 257, 258, 259, 260, 261, 262, 263, 264, 265, 266, 267, 268, 269, 270, 271, 272, 273, 274, 275, 276, 277, 278, 279, 280, 281, 282, 283, 284, 285, 286, 287, 288, 289, 290, 291, 292, 293, 294, 295, 296, 297, 298, 299, 300, 301, 302, 303, 304, 305, 306, 307, 308, 309, 310, 311, 312, 313, 314, 315, 316, 317, 318, 319, 320, 321, 322, 323, 324, 325, 326, 327, 328, 329, 330, 331, 332, 333, 334, 335, 336, 337, 338, 339, 340, 341, 342, 343, 344, 345, 346, 347, 348, 349, 350, 351, 352, 353, 354, 355, 356, 357, 358, 359, 360, 361, 362, 363, 364, 365, 366, 367, 368, 369, 370, 371, 372, 373, 374, 375, 376, 377, 378, 379, 380, 381, 382, 383, 384, 385, 386, 387, 388, 389, 390, 391, 392, 393, 394, 395, 396, 397, 398, 399, 400, 401, 402, 403, 404, 405, 406, 407, 408, 409, 410, 411, 412, 413, 414, 415, 416, 417, 418, 419, 420, 421, 422, 423, 424, 425, 426, 427, 428, 429, 430, 431, 432, 433, 434],
      "AcquisitionTime": ["174542.555000", "174544.045000", "174545.535000", "174547.025000", "174548.515000", "174550.005000", "174551.495000", "174552.985000", "174554.475000", "174555.965000", "174557.455000", "174558.945000", "174600.435000", "174601.925000", "174603.415000", "174604.905000", "174606.395000", "174607.885000", "174609.375000", "174610.865000", "174612.355000", "174613.845000", "174615.335000", "174616.825000", "174618.315000", "174619.805000", "174621.295000", "174622.785000", "174624.275000", "174625.765000", "174627.255000", "174628.745000", "174630.235000", "174631.725000", "174633.215000", "174634.705000", "174636.195000", "174637.685000", "174639.175000", "174640.665000", "174642.155000", "174643.645000", "174645.135000", "174646.625000", "174648.115000", "174649.605000", "174651.095000", "174652.585000", "174654.075000", "174655.565000", "174657.055000", "174658.545000", "174700.035000", "174701.525000", "174703.015000", "174704.505000", "174705.995000", "174707.485000", "174708.975000", "174710.465000", "174711.955000", "174713.445000", "174714.935000", "174716.425000", "174717.915000", "174719.405000", "174720.895000", "174722.385000", "174723.875000", "174725.365000", "174726.855000", "174728.345000", "174729.835000", "174731.325000", "174732.815000", "174734.305000", "174735.795000", "174737.285000", "174738.775000", "174740.265000", "174741.755000", "174743.245000", "174744.735000", "174746.225000", "174747.715000", "174749.205000", "174750.695000", "174752.185000", "174753.675000", "174755.165000", "174756.655000", "174758.145000", "174759.635000", "174801.125000", "174802.615000", "174804.105000", "174805.595000", "174807.085000", "174808.575000", "174810.065000", "174811.555000", "174813.045000", "174814.535000", "174816.025000", "174817.515000", "174819.005000", "174820.495000", "174821.985000", "174823.475000", "174824.965000", "174826.455000", "174827.945000", "174829.435000", "174830.925000", "174832.415000", "174833.905000", "174835.395000", "174836.885000", "174838.375000", "174839.865000", "174841.355000", "174842.845000", "174844.335000", "174845.825000", "174847.315000", "174848.805000", "174850.295000", "174851.785000", "174853.275000", "174854.765000", "174856.255000", "174857.745000", "174859.235000", "174900.725000", "174902.215000", "174903.705000", "174905.195000", "174906.685000", "174908.175000", "174909.665000", "174911.155000", "174912.645000", "174914.135000", "174915.625000", "174917.115000", "174918.605000", "174920.095000", "174921.585000", "174923.075000", "174924.565000", "174926.055000", "174927.545000", "174929.035000", "174930.525000", "174932.015000", "174933.505000", "174934.995000", "174936.485000", "174937.975000", "174939.465000", "174940.955000", "174942.445000", "174943.935000", "174945.425000", "174946.915000", "174948.405000", "174949.895000", "174951.385000", "174952.875000", "174954.365000", "174955.855000", "174957.345000", "174958.835000", "175000.325000", "175001.815000", "175003.305000", "175004.795000", "175006.285000", "175007.775000", "175009.265000", "175010.755000", "175012.245000", "175013.735000", "175015.225000", "175016.715000", "175018.205000", "175019.695000", "175021.185000", "175022.675000", "175024.165000", "175025.655000", "175027.145000", "175028.635000", "175030.125000", "175031.615000", "175033.105000", "175034.595000", "175036.085000", "175037.575000", "175039.065000", "175040.555000", "175042.045000", "175043.535000", "175045.025000", "175046.515000", "175048.005000", "175049.495000", "175050.985000", "175052.475000", "175053.965000", "175055.455000", "175056.945000", "175058.435000", "175059.925000", "175101.415000", "175102.905000", "175104.395000", "175105.885000", "175107.375000", "175108.865000", "175110.355000", "175111.845000", "175113.335000", "175114.825000", "175116.315000", "175117.805000", "175119.295000", "175120.785000", "175122.275000", "175123.765000", "175125.255000", "175126.745000", "175128.235000", "175129.725000", "175131.215000", "175132.705000", "175134.195000", "175135.685000", "175137.175000", "175138.665000", "175140.155000", "175141.645000", "175143.135000", "175144.625000", "175146.115000", "175147.605000", "175149.095000", "175150.585000", "175152.075000", "175153.565000", "175155.055000", "175156.545000", "175158.035000", "175159.525000", "175201.015000", "175202.505000", "175203.995000", "175205.485000", "175206.975000", "175208.465000", "175209.955000", "175211.445000", "175212.935000", "175214.425000", "175215.915000", "175217.405000", "175218.895000", "175220.385000", "175221.875000", "175223.365000", "175224.855000", "175226.345000", "175227.835000", "175229.325000", "175230.815000", "175232.305000", "175233.795000", "175235.285000", "175236.775000", "175238.265000", "175239.755000", "175241.245000", "175242.735000", "175244.225000", "175245.715000", "175247.205000", "175248.695000", "175250.185000", "175251.675000", "175253.165000", "175254.655000", "175256.145000", "175257.635000", "175259.125000", "175300.615000", "175302.105000", "175303.595000", "175305.085000", "175306.575000", "175308.065000", "175309.555000", "175311.045000", "175312.535000", "175314.025000", "175315.515000", "175317.005000", "175318.495000", "175319.985000", "175321.475000", "175322.965000", "175324.455000", "175325.945000", "175327.435000", "175328.925000", "175330.415000", "175331.905000", "175333.395000", "175334.885000", "175336.375000", "175337.865000", "175339.355000", "175340.845000", "175342.335000", "175343.825000", "175345.315000", "175346.805000", "175348.295000", "175349.785000", "175351.275000", "175352.765000", "175354.255000", "175355.745000", "175357.235000", "175358.725000", "175400.215000", "175401.705000", "175403.195000", "175404.685000", "175406.175000", "175407.665000", "175409.155000", "175410.645000", "175412.135000", "175413.625000", "175415.115000", "175416.605000", "175418.095000", "175419.585000", "175421.075000", "175422.565000", "175424.055000", "175425.545000", "175427.035000", "175428.525000", "175430.015000", "175431.505000", "175432.995000", "175434.485000", "175435.975000", "175437.465000", "175438.955000", "175440.445000", "175441.935000", "175443.425000", "175444.915000", "175446.405000", "175447.895000", "175449.385000", "175450.875000", "175452.365000", "175453.855000", "175455.345000", "175456.835000", "175458.325000", "175459.815000", "175501.305000", "175502.795000", "175504.285000", "175505.775000", "175507.265000", "175508.755000", "175510.245000", "175511.735000", "175513.225000", "175514.715000", "175516.205000", "175517.695000", "175519.185000", "175520.675000", "175522.165000", "175523.655000", "175525.145000", "175526.635000", "175528.125000", "175529.615000", "175531.105000", "175532.595000", "175534.085000", "175535.575000", "175537.065000", "175538.555000", "175540.045000", "175541.535000", "175543.025000", "175544.515000", "175546.005000", "175547.495000", "175548.985000", "175550.475000", "175551.965000", "175553.455000", "175554.945000", "175556.435000", "175557.925000", "175559.415000", "175600.905000", "175602.395000", "175603.885000", "175605.375000", "175606.865000", "175608.355000", "175609.845000", "175611.335000", "175612.825000", "175614.315000", "175615.805000", "175617.295000", "175618.785000", "175620.275000", "175621.765000", "175623.255000", "175624.745000", "175626.235000", "175627.725000"],
      "ContentTime": ["174713.778000", "174713.781000", "174713.783000", "174713.785000", "174713.788000", "174713.791000", "174713.793000", "174713.796000", "174713.798000", "174713.800000", "174713.803000", "174713.805000", "174713.808000", "174713.811000", "174713.813000", "174713.816000", "174713.818000", "174713.821000", "174713.824000", "174713.826000", "174713.841000", "174713.843000", "174713.846000", "174713.848000", "174713.851000", "174713.853000", "174713.856000", "174713.858000", "174713.861000", "174713.864000", "174713.866000", "174713.869000", "174713.871000", "174713.874000", "174713.876000", "174713.879000", "174713.881000", "174713.884000", "174733.672000", "174733.675000", "174733.677000", "174733.680000", "174733.682000", "174733.685000", "174733.687000", "174733.690000", "174733.692000", "174733.695000", "174733.697000", "174733.700000", "174733.702000", "174733.705000", "174733.707000", "174733.710000", "174733.712000", "174733.714000", "174733.717000", "174733.719000", "174753.654000", "174753.656000", "174753.659000", "174753.661000", "174753.664000", "174753.666000", "174753.669000", "174753.671000", "174753.674000", "174753.677000", "174753.679000", "174753.682000", "174753.684000", "174753.687000", "174753.689000", "174753.691000", "174753.694000", "174753.696000", "174753.699000", "174753.701000", "174813.658000", "174813.661000", "174813.663000", "174813.666000", "174813.668000", "174813.671000", "174813.673000", "174813.676000", "174813.678000", "174813.681000", "174813.683000", "174813.686000", "174813.688000", "174813.691000", "174813.693000", "174813.696000", "174813.698000", "174813.701000", "174813.703000", "174813.706000", "174853.696000", "174853.698000", "174853.701000", "174853.703000", "174853.706000", "174853.708000", "174853.711000", "174853.713000", "174853.716000", "174853.718000", "174853.721000", "174853.723000", "174853.726000", "174853.728000", "174853.731000", "174853.733000", "174853.736000", "174853.738000", "174853.741000", "174853.743000", "174853.746000", "174853.748000", "174853.751000", "174853.753000", "174853.756000", "174853.758000", "174853.761000", "174853.763000", "174853.766000", "174933.703000", "174933.706000", "174933.708000", "174933.711000", "174933.713000", "174933.716000", "174933.718000", "174933.721000", "174933.723000", "174933.729000", "174933.731000", "174933.734000", "174933.736000", "174933.739000", "174933.741000", "174933.744000", "174933.746000", "174933.749000", "174933.751000", "174933.754000", "174933.756000", "174933.759000", "174933.761000", "174933.764000", "174933.766000", "174933.769000", "174933.771000", "174953.627000", "174953.629000", "174953.632000", "174953.634000", "174953.637000", "174953.639000", "174953.642000", "174953.644000", "174953.647000", "174953.649000", "174953.652000", "174953.654000", "174953.657000", "175033.692000", "175033.694000", "175033.697000", "175033.699000", "175033.702000", "175033.704000", "175033.707000", "175033.709000", "175033.712000", "175033.714000", "175033.717000", "175033.719000", "175033.722000", "175033.724000", "175033.727000", "175033.730000", "175033.732000", "175033.735000", "175033.737000", "175033.740000", "175033.742000", "175033.745000", "175033.747000", "175033.750000", "175033.752000", "175033.755000", "175033.757000", "175113.706000", "175113.709000", "175113.712000", "175113.714000", "175113.717000", "175113.719000", "175113.722000", "175113.724000", "175113.727000", "175113.729000", "175113.732000", "175113.734000", "175113.737000", "175113.739000", "175113.742000", "175113.744000", "175113.747000", "175113.749000", "175113.752000", "175113.754000", "175113.757000", "175113.759000", "175113.762000", "175113.764000", "175113.767000", "175113.769000", "175113.772000", "175153.731000", "175153.734000", "175153.736000", "175153.739000", "175153.741000", "175153.744000", "175153.746000", "175153.749000", "175153.751000", "175153.754000", "175153.757000", "175153.759000", "175153.762000", "175153.764000", "175153.767000", "175153.769000", "175153.772000", "175153.774000", "175153.777000", "175153.779000", "175153.782000", "175153.784000", "175153.793000", "175153.796000", "175153.798000", "175153.801000", "175153.803000", "175233.704000", "175233.707000", "175233.709000", "175233.712000", "175233.714000", "175233.717000", "175233.720000", "175233.722000", "175233.725000", "175233.727000", "175233.730000", "175233.732000", "175233.735000", "175233.737000", "175233.740000", "175233.742000", "175233.745000", "175233.747000", "175233.753000", "175233.756000", "175233.758000", "175233.761000", "175233.763000", "175233.766000", "175233.768000", "175233.771000", "175233.773000", "175313.695000", "175313.697000", "175313.700000", "175313.703000", "175313.705000", "175313.708000", "175313.710000", "175313.713000", "175313.715000", "175313.718000", "175313.720000", "175313.723000", "175313.725000", "175313.728000", "175313.730000", "175313.733000", "175313.735000", "175313.738000", "175313.740000", "175313.743000", "175313.745000", "175313.748000", "175313.750000", "175313.753000", "175313.762000", "175313.764000", "175313.767000", "175353.705000", "175353.709000", "175353.712000", "175353.714000", "175353.717000", "175353.719000", "175353.722000", "175353.724000", "175353.727000", "175353.729000", "175353.732000", "175353.734000", "175353.737000", "175353.740000", "175353.742000", "175353.744000", "175353.747000", "175353.750000", "175353.752000", "175353.755000", "175353.757000", "175353.760000", "175353.768000", "175353.771000", "175353.773000", "175353.776000", "175433.692000", "175433.695000", "175433.698000", "175433.700000", "175433.703000", "175433.705000", "175433.708000", "175433.710000", "175433.713000", "175433.715000", "175433.718000", "175433.720000", "175433.723000", "175433.725000", "175433.728000", "175433.730000", "175433.733000", "175433.735000", "175433.738000", "175433.746000", "175433.748000", "175433.751000", "175433.753000", "175433.756000", "175433.758000", "175433.761000", "175433.763000", "175513.695000", "175513.698000", "175513.701000", "175513.703000", "175513.706000", "175513.708000", "175513.711000", "175513.713000", "175513.716000", "175513.718000", "175513.721000", "175513.723000", "175513.726000", "175513.728000", "175513.731000", "175513.733000", "175513.736000", "175513.738000", "175513.741000", "175513.743000", "175513.746000", "175513.748000", "175513.751000", "175513.753000", "175513.756000", "175513.758000", "175513.761000", "175553.705000", "175553.707000", "175553.710000", "175553.712000", "175553.715000", "175553.718000", "175553.720000", "175553.723000", "175553.725000", "175553.727000", "175553.730000", "175553.732000", "175553.735000", "175553.737000", "175553.740000", "175553.742000", "175553.745000", "175553.747000", "175553.750000", "175553.752000", "175553.755000", "175553.757000", "175553.760000", "175553.762000", "175553.765000", "175553.767000", "175553.770000", "175631.407000", "175631.410000", "175631.413000", "175631.415000", "175631.418000", "175631.420000", "175631.423000", "175631.425000", "175631.428000", "175631.430000", "175631.433000", "175631.435000", "175631.438000", "175631.440000", "175631.443000", "175631.445000", "175631.448000", "175631.450000", "175631.453000", "175631.455000", "175631.458000", "175631.460000", "175631.463000", "175631.465000", "175631.468000"],
