{
  "AcquisitionMatrixPE": 104,
  "AcquisitionNumber": 1,
  "AcquisitionTime": "17:32:17.547500",
  "BandwidthPerPixelPhaseEncode": 17.17,
  "BaseResolution": 104,
  "BodyPartExamined": "BRAIN",
  "CoilCombinationMethod": "Sum of Squares",
  "ConsistencyInfo": "N4_VE11C_LATEST_20160120",
  "ConversionSoftware": "dcm2niix",
  "ConversionSoftwareVersion": "v1.0.20211006",
  "DerivedVendorReportedEchoSpacing": 0.000560011,
  "DeviceSerialNumber": "167006",
  "DwellTime": 2.1e-06,
  "EchoTime": 0.037,
  "EchoTime1": 0.037,
  "EchoTime2": 0.001,
  "EchoTrainLength": 104,
  "EffectiveEchoSpacing": 0.000560011,
  "FlipAngle": 52,
  "HeudiconvVersion": "0.11.3.post9+gc939bf8",
  "ImageComments": "Unaliased MB4/PE3/LB",
  "ImageOrientationPatientDICOM": [0.995638, 0.0892962, 0.0270489, -0.0755614, 0.941758, -0.327691],
  "ImageOrientationText": "Tra>Cor(-18.9)>Sag(3.1)",
  "ImageType": [
    "ORIGINAL",
    "PRIMARY",
    "P",
    "MB",
    "ND",
    "MOSAIC",
    "PHASE"
],
  "ImagingFrequency": 123.259,
  "InPlanePhaseEncodingDirectionDICOM": "COL",
  "InstitutionAddress": "Chemin Queen-Mary 4565,Montreal,District,CA,H3W 1W5",
  "InstitutionName": "IUGM",
  "InstitutionalDepartmentName": "Department",
  "MRAcquisitionType": "2D",
  "MagneticFieldStrength": 3,
  "Manufacturer": "Siemens",
  "ManufacturersModelName": "Prisma_fit",
  "MatrixCoilMode": "SENSE",
  "Modality": "MR",
  "MultibandAccelerationFactor": 4,
  "PartialFourier": 1,
  "PatientPosition": "HFS",
  "PercentPhaseFOV": 100,
  "PercentSampling": 100,
  "PhaseEncodingDirection": "j",
  "PhaseEncodingSteps": 104,
  "PhaseResolution": 1,
  "PixelBandwidth": 2290,
  "ProcedureStepDescription": "games^mariostars",
  "ProtocolName": "func_task-mariostars_run-01",
  "PulseSequenceDetails": "%CustomerSeq%\\cmrr_mbep2d_bold",
  "ReceiveCoilActiveElements": "HC1-7;NC1,2",
  "ReceiveCoilName": "HeadNeck_64",
  "ReconMatrixPE": 104,
  "RepetitionTime": 1.49,
  "SAR": 0.0643365,
  "ScanOptions": "FS",
  "ScanningSequence": "EP",
  "SequenceName": "epfid2d1_104",
  "SequenceVariant": "SK\\SS",
  "SeriesDescription": "func_task-mariostars_run-01",
  "SeriesNumber": 12,
  "ShimSetting": [625, -7188, -8794, 674, 89, 21, -18, -19],
  "SliceThickness": 2,
  "SliceTiming": [0, 0.7825, 0.0975, 0.8825, 0.195, 0.98, 0.295, 1.0775, 0.3925, 1.175, 0.49, 1.2725, 0.5875, 1.3725, 0.685, 0, 0.7825, 0.0975, 0.8825, 0.195, 0.98, 0.295, 1.0775, 0.3925, 1.175, 0.49, 1.2725, 0.5875, 1.3725, 0.685, 0, 0.7825, 0.0975, 0.8825, 0.195, 0.98, 0.295, 1.0775, 0.3925, 1.175, 0.49, 1.2725, 0.5875, 1.3725, 0.685, 0, 0.7825, 0.0975, 0.8825, 0.195, 0.98, 0.295, 1.0775, 0.3925, 1.175, 0.49, 1.2725, 0.5875, 1.3725, 0.685],
  "SoftwareVersions": "syngo MR E11",
  "SpacingBetweenSlices": 2,
  "StationName": "MRC35049",
  "TaskName": "mariostars",
  "TotalReadoutTime": 0.0576811,
  "TxRefAmp": 315.048,
  "WipMemBlock": "6830015b-ad0b-446f-9664-b976daa8737c||Sequence: R016 ve11c/master r/e634e98; Dec 19 2017 11:00:25 by eja",
  "dcmmeta_affine": [
    [-1.9912755489349365, -0.15112271904945374, 0.1094701886177063, 111.00481414794922],
    [-0.17859235405921936, 1.8835169076919556, -0.648435652256012, -52.67473602294922],
    [0.054097793996334076, 0.6553822755813599, 1.888795256614685, -56.83750915527344],
    [0.0, 0.0, 0.0, 1.0]
],
  "dcmmeta_reorient_transform": [
    [0.0, -1.0, 0.0, 103.0],
    [1.0, 0.0, 0.0, 0.0],
    [0.0, 0.0, 1.0, 0.0],
    [0.0, 0.0, 0.0, 1.0]
],
  "dcmmeta_shape": [104, 104, 60, 482],
  "dcmmeta_slice_dim": 2,
  "dcmmeta_version": 0.6,
  "global": {
    "const": {
      "AcquisitionMatrix": [104, 0, 0, 104],
      "AngioFlag": "N",
      "BitsAllocated": 16,
      "BitsStored": 16,
      "BodyPartExamined": "BRAIN",
      "Columns": 832,
      "EchoNumbers": 1,
      "EchoTime": 37.0,
      "EchoTrainLength": 104,
      "FlipAngle": 52.0,
      "HighBit": 15,
      "ImageOrientationPatient": [0.99563776069229, 0.08929617354413, 0.0270488978339, -0.0755613597693, 0.94175846209717, -0.3276911350314],
      "ImagePositionPatient": [-765.25479607604, -891.93528095024, 229.53441153878],
      "ImageType": [
        "ORIGINAL",
        "PRIMARY",
        "P",
        "MB",
        "ND",
        "MOSAIC"
],
      "ImagedNucleus": "1H",
      "ImagingFrequency": 123.258806,
      "InPlanePhaseEncodingDirection": "COL",
      "LargestImagePixelValue": 4095,
      "MRAcquisitionType": "2D",
      "MagneticFieldStrength": 3.0,
      "Manufacturer": "SIEMENS",
      "ManufacturerModelName": "Prisma_fit",
      "Modality": "MR",
      "NumberOfAverages": 1.0,
      "NumberOfPhaseEncodingSteps": 104,
      "PercentPhaseFieldOfView": 100.0,
      "PercentSampling": 100.0,
      "PerformedProcedureStepStartTime": "170655.534000",
      "PhotometricInterpretation": "MONOCHROME2",
      "PixelBandwidth": 2290.0,
      "PixelRepresentation": 0,
      "PixelSpacing": [2.0, 2.0],
      "ProtocolName": "func_task-mariostars_run-01",
      "RepetitionTime": 1490.0,
      "RescaleIntercept": -4096.0,
      "RescaleSlope": 2.0,
      "RescaleType": "US",
      "Rows": 832,
      "SAR": 0.06433646581157,
      "SamplesPerPixel": 1,
      "ScanOptions": "FS",
      "ScanningSequence": "EP",
      "SequenceName": "epfid2d1_104",
      "SequenceVariant": [
        "SK",
        "SS"
],
      "SeriesDescription": "func_task-mariostars_run-01",
      "SeriesNumber": 12,
      "SeriesTime": "173332.640000",
      "SliceLocation": -30.523263313714,
      "SliceThickness": 2.0,
      "SmallestImagePixelValue": 0,
      "SoftwareVersions": "syngo MR E11",
      "SpacingBetweenSlices": 1.9999999847973,
      "SpecificCharacterSet": "ISO_IR 100",
      "StudyID": "1",
      "StudyTime": "170655.400000",
      "TransmitCoilName": "Body",
      "VariableFlipAngleFlag": "N",
      "WindowCenterWidthExplanation": "Algo1",
      "dBdt": 0.0},
    "slices": {}
  },
  "time": {
    "samples": {
      "AcquisitionNumber": [1, 2, 3, 4, 5, 6, 7, 8, 9, 10, 11, 12, 13, 14, 15, 16, 17, 18, 19, 20, 21, 22, 23, 24, 25, 26, 27, 28, 29, 30, 31, 32, 33, 34, 35, 36, 37, 38, 39, 40, 41, 42, 43, 44, 45, 46, 47, 48, 49, 50, 51, 52, 53, 54, 55, 56, 57, 58, 59, 60, 61, 62, 63, 64, 65, 66, 67, 68, 69, 70, 71, 72, 73, 74, 75, 76, 77, 78, 79, 80, 81, 82, 83, 84, 85, 86, 87, 88, 89, 90, 91, 92, 93, 94, 95, 96, 97, 98, 99, 100, 101, 102, 103, 104, 105, 106, 107, 108, 109, 110, 111, 112, 113, 114, 115, 116, 117, 118, 119, 120, 121, 122, 123, 124, 125, 126, 127, 128, 129, 130, 131, 132, 133, 134, 135, 136, 137, 138, 139, 140, 141, 142, 143, 144, 145, 146, 147, 148, 149, 150, 151, 152, 153, 154, 155, 156, 157, 158, 159, 160, 161, 162, 163, 164, 165, 166, 167, 168, 169, 170, 171, 172, 173, 174, 175, 176, 177, 178, 179, 180, 181, 182, 183, 184, 185, 186, 187, 188, 189, 190, 191, 192, 193, 194, 195, 196, 197, 198, 199, 200, 201, 202, 203, 204, 205, 206, 207, 208, 209, 210, 211, 212, 213, 214, 215, 216, 217, 218, 219, 220, 221, 222, 223, 224, 225, 226, 227, 228, 229, 230, 231, 232, 233, 234, 235, 236, 237, 238, 239, 240, 241, 242, 243, 244, 245, 246, 247, 248, 249, 250, 251, 252, 253, 254, 255, 256, 257, 258, 259, 260, 261, 262, 263, 264, 265, 266, 267, 268, 269, 270, 271, 272, 273, 274, 275, 276, 277, 278, 279, 280, 281, 282, 283, 284, 285, 286, 287, 288, 289, 290, 291, 292, 293, 294, 295, 296, 297, 298, 299, 300, 301, 302, 303, 304, 305, 306, 307, 308, 309, 310, 311, 312, 313, 314, 315, 316, 317, 318, 319, 320, 321, 322, 323, 324, 325, 326, 327, 328, 329, 330, 331, 332, 333, 334, 335, 336, 337, 338, 339, 340, 341, 342, 343, 344, 345, 346, 347, 348, 349, 350, 351, 352, 353, 354, 355, 356, 357, 358, 359, 360, 361, 362, 363, 364, 365, 366, 367, 368, 369, 370, 371, 372, 373, 374, 375, 376, 377, 378, 379, 380, 381, 382, 383, 384, 385, 386, 387, 388, 389, 390, 391, 392, 393, 394, 395, 396, 397, 398, 399, 400, 401, 402, 403, 404, 405, 406, 407, 408, 409, 410, 411, 412, 413, 414, 415, 416, 417, 418, 419, 420, 421, 422, 423, 424, 425, 426, 427, 428, 429, 430, 431, 432, 433, 434, 435, 436, 437, 438, 439, 440, 441, 442, 443, 444, 445, 446, 447, 448, 449, 450, 451, 452, 453, 454, 455, 456, 457, 458, 459, 460, 461, 462, 463, 464, 465, 466, 467, 468, 469, 470, 471, 472, 473, 474, 475, 476, 477, 478, 479, 480, 481, 482],
      "AcquisitionTime": ["173217.547500", "173219.037500", "173220.527500", "173222.017500", "173223.507500", "173224.997500", "173226.487500", "173227.977500", "173229.467500", "173230.957500", "173232.447500", "173233.937500", "173235.427500", "173236.917500", "173238.407500", "173239.897500", "173241.387500", "173242.877500", "173244.367500", "173245.857500", "173247.347500", "173248.837500", "173250.327500", "173251.817500", "173253.307500", "173254.797500", "173256.287500", "173257.777500", "173259.267500", "173300.757500", "173302.247500", "173303.737500", "173305.227500", "173306.717500", "173308.207500", "173309.697500", "173311.187500", "173312.677500", "173314.167500", "173315.657500", "173317.147500", "173318.637500", "173320.127500", "173321.617500", "173323.107500", "173324.597500", "173326.087500", "173327.577500", "173329.067500", "173330.557500", "173332.047500", "173333.537500", "173335.027500", "173336.517500", "173338.007500", "173339.497500", "173340.987500", "173342.477500", "173343.967500", "173345.457500", "173346.947500", "173348.437500", "173349.927500", "173351.417500", "173352.907500", "173354.397500", "173355.887500", "173357.377500", "173358.867500", "173400.357500", "173401.847500", "173403.337500", "173404.827500", "173406.317500", "173407.807500", "173409.297500", "173410.787500", "173412.277500", "173413.767500", "173415.257500", "173416.747500", "173418.237500", "173419.727500", "173421.217500", "173422.707500", "173424.197500", "173425.687500", "173427.177500", "173428.667500", "173430.157500", "173431.647500", "173433.137500", "173434.627500", "173436.117500", "173437.607500", "173439.097500", "173440.587500", "173442.077500", "173443.567500", "173445.057500", "173446.547500", "173448.037500", "173449.527500", "173451.017500", "173452.507500", "173453.997500", "173455.487500", "173456.977500", "173458.467500", "173459.957500", "173501.447500", "173502.937500", "173504.427500", "173505.917500", "173507.407500", "173508.897500", "173510.387500", "173511.877500", "173513.367500", "173514.857500", "173516.347500", "173517.837500", "173519.327500", "173520.817500", "173522.307500", "173523.797500", "173525.287500", "173526.777500", "173528.267500", "173529.757500", "173531.247500", "173532.737500", "173534.227500", "173535.717500", "173537.207500", "173538.697500", "173540.187500", "173541.677500", "173543.167500", "173544.657500", "173546.147500", "173547.637500", "173549.127500", "173550.617500", "173552.107500", "173553.597500", "173555.087500", "173556.577500", "173558.067500", "173559.557500", "173601.047500", "173602.537500", "173604.027500", "173605.517500", "173607.007500", "173608.497500", "173609.987500", "173611.477500", "173612.967500", "173614.457500", "173615.947500", "173617.437500", "173618.927500", "173620.417500", "173621.907500", "173623.397500", "173624.887500", "173626.377500", "173627.867500", "173629.357500", "173630.847500", "173632.337500", "173633.827500", "173635.317500", "173636.807500", "173638.297500", "173639.787500", "173641.277500", "173642.767500", "173644.257500", "173645.747500", "173647.237500", "173648.727500", "173650.217500", "173651.707500", "173653.197500", "173654.687500", "173656.177500", "173657.667500", "173659.157500", "173700.647500", "173702.137500", "173703.627500", "173705.117500", "173706.607500", "173708.097500", "173709.587500", "173711.077500", "173712.567500", "173714.057500", "173715.547500", "173717.037500", "173718.527500", "173720.017500", "173721.507500", "173722.997500", "173724.487500", "173725.977500", "173727.467500", "173728.957500", "173730.447500", "173731.937500", "173733.427500", "173734.917500", "173736.407500", "173737.897500", "173739.387500", "173740.877500", "173742.367500", "173743.857500", "173745.347500", "173746.837500", "173748.327500", "173749.817500", "173751.307500", "173752.797500", "173754.287500", "173755.777500", "173757.267500", "173758.757500", "173800.247500", "173801.737500", "173803.227500", "173804.717500", "173806.207500", "173807.697500", "173809.187500", "173810.677500", "173812.167500", "173813.657500", "173815.147500", "173816.637500", "173818.127500", "173819.617500", "173821.107500", "173822.597500", "173824.087500", "173825.577500", "173827.067500", "173828.557500", "173830.047500", "173831.537500", "173833.027500", "173834.517500", "173836.007500", "173837.497500", "173838.987500", "173840.477500", "173841.967500", "173843.457500", "173844.947500", "173846.437500", "173847.927500", "173849.417500", "173850.907500", "173852.397500", "173853.887500", "173855.377500", "173856.867500", "173858.357500", "173859.847500", "173901.337500", "173902.827500", "173904.317500", "173905.807500", "173907.297500", "173908.787500", "173910.277500", "173911.767500", "173913.257500", "173914.747500", "173916.237500", "173917.727500", "173919.217500", "173920.707500", "173922.197500", "173923.687500", "173925.177500", "173926.667500", "173928.157500", "173929.647500", "173931.137500", "173932.627500", "173934.117500", "173935.607500", "173937.097500", "173938.587500", "173940.077500", "173941.567500", "173943.057500", "173944.547500", "173946.037500", "173947.527500", "173949.017500", "173950.507500", "173951.997500", "173953.487500", "173954.977500", "173956.467500", "173957.957500", "173959.447500", "174000.937500", "174002.427500", "174003.917500", "174005.407500", "174006.897500", "174008.387500", "174009.877500", "174011.367500", "174012.857500", "174014.347500", "174015.837500", "174017.327500", "174018.817500", "174020.307500", "174021.797500", "174023.287500", "174024.777500", "174026.267500", "174027.757500", "174029.247500", "174030.737500", "174032.227500", "174033.717500", "174035.207500", "174036.697500", "174038.187500", "174039.677500", "174041.167500", "174042.657500", "174044.147500", "174045.637500", "174047.127500", "174048.617500", "174050.107500", "174051.597500", "174053.087500", "174054.577500", "174056.067500", "174057.557500", "174059.047500", "174100.537500", "174102.027500", "174103.517500", "174105.007500", "174106.497500", "174107.987500", "174109.477500", "174110.967500", "174112.457500", "174113.947500", "174115.437500", "174116.927500", "174118.417500", "174119.907500", "174121.397500", "174122.887500", "174124.377500", "174125.867500", "174127.357500", "174128.847500", "174130.337500", "174131.827500", "174133.317500", "174134.807500", "174136.297500", "174137.787500", "174139.277500", "174140.767500", "174142.257500", "174143.747500", "174145.237500", "174146.727500", "174148.217500", "174149.707500", "174151.197500", "174152.687500", "174154.177500", "174155.667500", "174157.157500", "174158.647500", "174200.137500", "174201.627500", "174203.117500", "174204.607500", "174206.097500", "174207.587500", "174209.077500", "174210.567500", "174212.057500", "174213.547500", "174215.037500", "174216.527500", "174218.017500", "174219.507500", "174220.997500", "174222.487500", "174223.977500", "174225.467500", "174226.957500", "174228.447500", "174229.937500", "174231.427500", "174232.917500", "174234.407500", "174235.897500", "174237.387500", "174238.877500", "174240.367500", "174241.857500", "174243.347500", "174244.837500", "174246.327500", "174247.817500", "174249.307500", "174250.797500", "174252.287500", "174253.777500", "174255.267500", "174256.757500", "174258.247500", "174259.737500", "174301.227500", "174302.717500", "174304.207500", "174305.697500", "174307.187500", "174308.677500", "174310.167500", "174311.657500", "174313.147500", "174314.637500", "174316.127500", "174317.617500", "174319.107500", "174320.597500", "174322.087500", "174323.577500", "174325.067500", "174326.557500", "174328.047500", "174329.537500", "174331.027500", "174332.517500", "174334.007500", "174335.497500", "174336.987500", "174338.477500", "174339.967500", "174341.457500", "174342.947500", "174344.437500", "174345.927500", "174347.417500", "174348.907500", "174350.397500", "174351.887500", "174353.377500", "174354.867500", "174356.357500", "174357.847500", "174359.337500", "174400.827500", "174402.317500", "174403.807500", "174405.297500", "174406.787500", "174408.277500", "174409.767500", "174411.257500", "174412.747500", "174414.237500"],
      "ContentTime": ["173332.642000", "173332.645000", "173332.648000", "173332.650000", "173332.653000", "173332.655000", "173332.658000", "173332.660000", "173332.663000", "173332.665000", "173332.668000", "173332.670000", "173332.673000", "173332.675000", "173332.678000", "173332.680000", "173332.689000", "173332.692000", "173332.694000", "173332.697000", "173352.628000", "173352.631000", "173352.634000", "173352.636000", "173352.639000", "173352.641000", "173352.644000", "173352.646000", "173352.649000", "173352.651000", "173352.654000", "173352.656000", "173352.659000", "173352.661000", "173352.664000", "173352.666000", "173352.669000", "173352.671000", "173352.674000", "173352.676000", "173412.633000", "173412.640000", "173412.642000", "173412.645000", "173412.647000", "173412.650000", "173412.652000", "173412.654000", "173412.657000", "173412.659000", "173412.662000", "173412.665000", "173412.667000", "173412.670000", "173412.672000", "173412.675000", "173412.677000", "173412.680000", "173412.682000", "173412.685000", "173432.609000", "173432.612000", "173432.614000", "173432.617000", "173432.620000", "173432.622000", "173432.625000", "173432.627000", "173432.630000", "173432.632000", "173432.635000", "173432.637000", "173432.640000", "173432.642000", "173432.645000", "173432.647000", "173432.650000", "173432.652000", "173432.655000", "173432.657000", "173452.596000", "173452.599000", "173452.602000", "173452.604000", "173452.607000", "173452.609000", "173452.612000", "173452.614000", "173452.621000", "173452.624000", "173452.626000", "173452.629000", "173452.631000", "173452.634000", "173452.636000", "173452.639000", "173452.641000", "173452.644000", "173452.646000", "173452.649000", "173532.663000", "173532.665000", "173532.668000", "173532.671000", "173532.673000", "173532.676000", "173532.678000", "173532.681000", "173532.683000", "173532.686000", "173532.688000", "173532.691000", "173532.693000", "173532.696000", "173532.698000", "173532.701000", "173532.703000", "173532.706000", "173532.708000", "173532.711000", "173532.717000", "173532.719000", "173532.722000", "173532.724000", "173532.727000", "173532.729000", "173532.732000", "173532.734000", "173532.737000", "173532.739000", "173612.796000", "173612.798000", "173612.801000", "173612.804000", "173612.806000", "173612.809000", "173612.811000", "173612.814000", "173612.816000", "173612.819000", "173612.821000", "173612.824000", "173612.826000", "173612.829000", "173612.831000", "173612.834000", "173612.836000", "173612.839000", "173612.841000", "173612.844000", "173612.846000", "173612.849000", "173612.851000", "173612.854000", "173612.856000", "173612.859000", "173612.861000", "173652.637000", "173652.640000", "173652.643000", "173652.645000", "173652.648000", "173652.650000", "173652.653000", "173652.655000", "173652.664000", "173652.666000", "173652.669000", "173652.671000", "173652.674000", "173652.676000", "173652.679000", "173652.681000", "173652.684000", "173652.687000", "173652.689000", "173652.692000", "173652.694000", "173652.697000", "173652.699000", "173652.702000", "173652.704000", "173652.706000", "173652.709000", "173732.651000", "173732.654000", "173732.657000", "173732.659000", "173732.662000", "173732.664000", "173732.667000", "173732.669000", "173732.672000", "173732.675000", "173732.677000", "173732.680000", "173732.682000", "173732.685000", "173732.687000", "173732.690000", "173732.692000", "173732.700000", "173732.703000", "173732.705000", "173732.708000", "173732.710000", "173732.713000", "173732.715000", "173732.718000", "173732.720000", "173732.723000", "173812.642000", "173812.645000", "173812.647000", "173812.650000", "173812.652000", "173812.655000", "173812.657000", "173812.660000", "173812.662000", "173812.665000", "173812.667000", "173812.670000", "173812.672000", "173812.675000", "173812.677000", "173812.686000", "173812.688000", "173812.691000", "173812.693000", "173812.696000", "173812.698000", "173812.701000", "173812.704000", "173812.706000", "173812.709000", "173812.711000", "173852.656000", "173852.658000", "173852.661000", "173852.664000", "173852.666000", "173852.669000", "173852.671000", "173852.673000", "173852.676000", "173852.678000", "173852.681000", "173852.683000", "173852.686000", "173852.688000", "173852.691000", "173852.694000", "173852.696000", "173852.699000", "173852.701000", "173852.704000", "173852.706000", "173852.709000", "173852.711000", "173852.714000", "173852.716000", "173852.719000", "173852.722000", "173932.714000", "173932.717000", "173932.720000", "173932.722000", "173932.725000", "173932.727000", "173932.730000", "173932.732000", "173932.735000", "173932.737000", "173932.740000", "173932.742000", "173932.745000", "173932.747000", "173932.750000", "173932.752000", "173932.755000", "173932.757000", "173932.760000", "173932.762000", "173932.765000", "173932.767000", "173932.770000", "173932.772000", "173932.775000", "173932.777000", "173932.780000", "174012.649000", "174012.652000", "174012.654000", "174012.657000", "174012.659000", "174012.662000", "174012.665000", "174012.667000", "174012.670000", "174012.672000", "174012.675000", "174012.677000", "174012.680000", "174012.682000", "174012.685000", "174012.687000", "174012.690000", "174012.692000", "174012.695000", "174012.697000", "174012.700000", "174012.702000", "174012.705000", "174012.707000", "174012.710000", "174012.712000", "174012.715000", "174052.663000", "174052.666000", "174052.668000", "174052.671000", "174052.673000", "174052.676000", "174052.678000", "174052.681000", "174052.684000", "174052.686000", "174052.689000", "174052.691000", "174052.694000", "174052.696000", "174052.699000", "174052.701000", "174052.704000", "174052.706000", "174052.709000", "174052.711000", "174052.714000", "174052.716000", "174052.719000", "174052.721000", "174052.724000", "174052.726000", "174052.729000", "174132.648000", "174132.651000", "174132.653000", "174132.656000", "174132.658000", "174132.661000", "174132.664000", "174132.666000", "174132.669000", "174132.671000", "174132.674000", "174132.676000", "174132.679000", "174132.681000", "174132.684000", "174132.686000", "174132.689000", "174132.691000", "174132.694000", "174132.696000", "174132.699000", "174132.701000", "174132.704000", "174132.706000", "174132.709000", "174132.711000", "174132.714000", "174213.043000", "174213.046000", "174213.048000", "174213.051000", "174213.053000", "174213.056000", "174213.058000", "174213.061000", "174213.063000", "174213.066000", "174213.068000", "174213.071000", "174213.073000", "174213.076000", "174213.078000", "174213.081000", "174213.083000", "174213.086000", "174213.088000", "174213.091000", "174213.093000", "174213.096000", "174213.098000", "174213.101000", "174213.103000", "174213.106000", "174213.108000", "174252.778000", "174252.781000", "174252.783000", "174252.786000", "174252.788000", "174252.791000", "174252.793000", "174252.796000", "174252.798000", "174252.801000", "174252.803000", "174252.806000", "174252.808000", "174252.811000", "174252.813000", "174252.816000", "174252.818000", "174252.821000", "174252.823000", "174252.826000", "174252.829000", "174252.831000", "174252.834000", "174252.836000", "174252.839000", "174252.841000", "174332.649000", "174332.652000", "174332.655000", "174332.657000", "174332.660000", "174332.662000", "174332.665000", "174332.667000", "174332.670000", "174332.672000", "174332.675000", "174332.677000", "174332.680000", "174332.682000", "174332.685000", "174332.687000", "174332.690000", "174332.692000", "174332.695000", "174332.697000", "174332.700000", "174332.702000", "174332.705000", "174332.707000", "174332.710000", "174332.712000", "174332.715000", "174412.652000", "174412.655000", "174412.657000", "174412.660000", "174412.662000", "174412.665000", "174412.667000", "174412.670000", "174412.672000", "174412.675000", "174412.677000", "174412.680000", "174412.682000", "174412.685000", "174412.687000", "174412.690000", "174412.692000", "174412.695000", "174412.697000", "174412.700000", "174412.702000", "174412.705000", "174412.707000", "174412.710000", "174412.713000", "174412.715000", "174412.718000", "174416.183000", "174416.186000", "174416.188000"],
