{
  "AcquisitionMatrixPE": 104,
  "AcquisitionNumber": 1,
  "AcquisitionTime": "18:12:12.422500",
  "BandwidthPerPixelPhaseEncode": 17.17,
  "BaseResolution": 104,
  "BodyPartExamined": "BRAIN",
  "CoilCombinationMethod": "Sum of Squares",
  "ConsistencyInfo": "N4_VE11C_LATEST_20160120",
  "ConversionSoftware": "dcm2niix",
  "ConversionSoftwareVersion": "v1.0.20211006",
  "DerivedVendorReportedEchoSpacing": 0.000560011,
  "DeviceSerialNumber": "167006",
  "DwellTime": 2.1e-06,
  "EchoTime": 0.037,
  "EchoTime1": 0.037,
  "EchoTime2": 0.001,
  "EchoTrainLength": 104,
  "EffectiveEchoSpacing": 0.000560011,
  "FlipAngle": 52,
  "HeudiconvVersion": "0.11.3.post9+gc939bf8",
  "ImageComments": "Unaliased MB4/PE3/LB",
  "ImageOrientationPatientDICOM": [0.995638, 0.0892962, 0.0270489, -0.0755614, 0.941758, -0.327691],
  "ImageOrientationText": "Tra>Cor(-18.9)>Sag(3.1)",
  "ImageType": [
    "ORIGINAL",
    "PRIMARY",
    "P",
    "MB",
    "ND",
    "MOSAIC",
    "PHASE"
],
  "ImagingFrequency": 123.259,
  "InPlanePhaseEncodingDirectionDICOM": "COL",
  "InstitutionAddress": "Chemin Queen-Mary 4565,Montreal,District,CA,H3W 1W5",
  "InstitutionName": "IUGM",
  "InstitutionalDepartmentName": "Department",
  "MRAcquisitionType": "2D",
  "MagneticFieldStrength": 3,
  "Manufacturer": "Siemens",
  "ManufacturersModelName": "Prisma_fit",
  "MatrixCoilMode": "SENSE",
  "Modality": "MR",
  "MultibandAccelerationFactor": 4,
  "PartialFourier": 1,
  "PatientPosition": "HFS",
  "PercentPhaseFOV": 100,
  "PercentSampling": 100,
  "PhaseEncodingDirection": "j",
  "PhaseEncodingSteps": 104,
  "PhaseResolution": 1,
  "PixelBandwidth": 2290,
  "ProcedureStepDescription": "games^mariostars",
  "ProtocolName": "func_task-mariostars_run-04",
  "PulseSequenceDetails": "%CustomerSeq%\\cmrr_mbep2d_bold",
  "ReceiveCoilActiveElements": "HC1-7;NC1,2",
  "ReceiveCoilName": "HeadNeck_64",
  "ReconMatrixPE": 104,
  "RepetitionTime": 1.49,
  "SAR": 0.0643365,
  "ScanOptions": "FS",
  "ScanningSequence": "EP",
  "SequenceName": "epfid2d1_104",
  "SequenceVariant": "SK\\SS",
  "SeriesDescription": "func_task-mariostars_run-04",
  "SeriesNumber": 21,
  "ShimSetting": [625, -7188, -8794, 674, 89, 21, -18, -19],
  "SliceThickness": 2,
  "SliceTiming": [0, 0.785, 0.1, 0.8825, 0.1975, 0.98, 0.295, 1.0775, 0.3925, 1.1775, 0.49, 1.275, 0.5875, 1.3725, 0.6875, 0, 0.785, 0.1, 0.8825, 0.1975, 0.98, 0.295, 1.0775, 0.3925, 1.1775, 0.49, 1.275, 0.5875, 1.3725, 0.6875, 0, 0.785, 0.1, 0.8825, 0.1975, 0.98, 0.295, 1.0775, 0.3925, 1.1775, 0.49, 1.275, 0.5875, 1.3725, 0.6875, 0, 0.785, 0.1, 0.8825, 0.1975, 0.98, 0.295, 1.0775, 0.3925, 1.1775, 0.49, 1.275, 0.5875, 1.3725, 0.6875],
  "SoftwareVersions": "syngo MR E11",
  "SpacingBetweenSlices": 2,
  "StationName": "MRC35049",
  "TaskName": "mariostars",
  "TotalReadoutTime": 0.0576811,
  "TxRefAmp": 315.048,
  "WipMemBlock": "ea9c91d9-f8f3-42ca-bac4-07f464332cf0||Sequence: R016 ve11c/master r/e634e98; Dec 19 2017 11:00:25 by eja",
  "dcmmeta_affine": [
    [-1.9912755489349365, -0.15112271904945374, 0.1094701886177063, 111.00481414794922],
    [-0.17859235405921936, 1.8835169076919556, -0.648435652256012, -52.67473602294922],
    [0.054097793996334076, 0.6553822755813599, 1.888795256614685, -56.83750915527344],
    [0.0, 0.0, 0.0, 1.0]
],
  "dcmmeta_reorient_transform": [
    [0.0, -1.0, 0.0, 103.0],
    [1.0, 0.0, 0.0, 0.0],
    [0.0, 0.0, 1.0, 0.0],
    [0.0, 0.0, 0.0, 1.0]
],
  "dcmmeta_shape": [104, 104, 60, 466],
  "dcmmeta_slice_dim": 2,
  "dcmmeta_version": 0.6,
  "global": {
    "const": {
      "AcquisitionMatrix": [104, 0, 0, 104],
      "AngioFlag": "N",
      "BitsAllocated": 16,
      "BitsStored": 16,
      "BodyPartExamined": "BRAIN",
      "Columns": 832,
      "EchoNumbers": 1,
      "EchoTime": 37.0,
      "EchoTrainLength": 104,
      "FlipAngle": 52.0,
      "HighBit": 15,
      "ImageOrientationPatient": [0.99563776069229, 0.08929617354413, 0.0270488978339, -0.0755613597693, 0.94175846209717, -0.3276911350314],
      "ImagePositionPatient": [-765.25479607604, -891.93528095024, 229.53441153878],
      "ImageType": [
        "ORIGINAL",
        "PRIMARY",
        "P",
        "MB",
        "ND",
        "MOSAIC"
],
      "ImagedNucleus": "1H",
      "ImagingFrequency": 123.258824,
      "InPlanePhaseEncodingDirection": "COL",
      "LargestImagePixelValue": 4095,
      "MRAcquisitionType": "2D",
      "MagneticFieldStrength": 3.0,
      "Manufacturer": "SIEMENS",
      "ManufacturerModelName": "Prisma_fit",
      "Modality": "MR",
      "NumberOfAverages": 1.0,
      "NumberOfPhaseEncodingSteps": 104,
      "PercentPhaseFieldOfView": 100.0,
      "PercentSampling": 100.0,
      "PerformedProcedureStepStartTime": "170655.534000",
      "PhotometricInterpretation": "MONOCHROME2",
      "PixelBandwidth": 2290.0,
      "PixelRepresentation": 0,
      "PixelSpacing": [2.0, 2.0],
      "ProtocolName": "func_task-mariostars_run-04",
      "RepetitionTime": 1490.0,
      "RescaleIntercept": -4096.0,
      "RescaleSlope": 2.0,
      "RescaleType": "US",
      "Rows": 832,
      "SAR": 0.06433646581157,
      "SamplesPerPixel": 1,
      "ScanOptions": "FS",
      "ScanningSequence": "EP",
      "SequenceName": "epfid2d1_104",
      "SequenceVariant": [
        "SK",
        "SS"
],
      "SeriesDescription": "func_task-mariostars_run-04",
      "SeriesNumber": 21,
      "SeriesTime": "181312.604000",
      "SliceLocation": -30.523263313714,
      "SliceThickness": 2.0,
      "SmallestImagePixelValue": 0,
      "SoftwareVersions": "syngo MR E11",
      "SpacingBetweenSlices": 1.9999999847973,
      "SpecificCharacterSet": "ISO_IR 100",
      "StudyID": "1",
      "StudyTime": "170655.400000",
      "TransmitCoilName": "Body",
      "VariableFlipAngleFlag": "N",
      "WindowCenterWidthExplanation": "Algo1",
      "dBdt": 0.0},
    "slices": {}
  },
  "time": {
    "samples": {
      "AcquisitionNumber": [1, 2, 3, 4, 5, 6, 7, 8, 9, 10, 11, 12, 13, 14, 15, 16, 17, 18, 19, 20, 21, 22, 23, 24, 25, 26, 27, 28, 29, 30, 31, 32, 33, 34, 35, 36, 37, 38, 39, 40, 41, 42, 43, 44, 45, 46, 47, 48, 49, 50, 51, 52, 53, 54, 55, 56, 57, 58, 59, 60, 61, 62, 63, 64, 65, 66, 67, 68, 69, 70, 71, 72, 73, 74, 75, 76, 77, 78, 79, 80, 81, 82, 83, 84, 85, 86, 87, 88, 89, 90, 91, 92, 93, 94, 95, 96, 97, 98, 99, 100, 101, 102, 103, 104, 105, 106, 107, 108, 109, 110, 111, 112, 113, 114, 115, 116, 117, 118, 119, 120, 121, 122, 123, 124, 125, 126, 127, 128, 129, 130, 131, 132, 133, 134, 135, 136, 137, 138, 139, 140, 141, 142, 143, 144, 145, 146, 147, 148, 149, 150, 151, 152, 153, 154, 155, 156, 157, 158, 159, 160, 161, 162, 163, 164, 165, 166, 167, 168, 169, 170, 171, 172, 173, 174, 175, 176, 177, 178, 179, 180, 181, 182, 183, 184, 185, 186, 187, 188, 189, 190, 191, 192, 193, 194, 195, 196, 197, 198, 199, 200, 201, 202, 203, 204, 205, 206, 207, 208, 209, 210, 211, 212, 213, 214, 215, 216, 217, 218, 219, 220, 221, 222, 223, 224, 225, 226, 227, 228, 229, 230, 231, 232, 233, 234, 235, 236, 237, 238, 239, 240, 241, 242, 243, 244, 245, 246, 247, 248, 249, 250, 251, 252, 253, 254, 255, 256, 257, 258, 259, 260, 261, 262, 263, 264, 265, 266, 267, 268, 269, 270, 271, 272, 273, 274, 275, 276, 277, 278, 279, 280, 281, 282, 283, 284, 285, 286, 287, 288, 289, 290, 291, 292, 293, 294, 295, 296, 297, 298, 299, 300, 301, 302, 303, 304, 305, 306, 307, 308, 309, 310, 311, 312, 313, 314, 315, 316, 317, 318, 319, 320, 321, 322, 323, 324, 325, 326, 327, 328, 329, 330, 331, 332, 333, 334, 335, 336, 337, 338, 339, 340, 341, 342, 343, 344, 345, 346, 347, 348, 349, 350, 351, 352, 353, 354, 355, 356, 357, 358, 359, 360, 361, 362, 363, 364, 365, 366, 367, 368, 369, 370, 371, 372, 373, 374, 375, 376, 377, 378, 379, 380, 381, 382, 383, 384, 385, 386, 387, 388, 389, 390, 391, 392, 393, 394, 395, 396, 397, 398, 399, 400, 401, 402, 403, 404, 405, 406, 407, 408, 409, 410, 411, 412, 413, 414, 415, 416, 417, 418, 419, 420, 421, 422, 423, 424, 425, 426, 427, 428, 429, 430, 431, 432, 433, 434, 435, 436, 437, 438, 439, 440, 441, 442, 443, 444, 445, 446, 447, 448, 449, 450, 451, 452, 453, 454, 455, 456, 457, 458, 459, 460, 461, 462, 463, 464, 465, 466],
      "AcquisitionTime": ["181212.422500", "181213.912500", "181215.402500", "181216.892500", "181218.382500", "181219.872500", "181221.362500", "181222.852500", "181224.342500", "181225.832500", "181227.322500", "181228.812500", "181230.302500", "181231.792500", "181233.282500", "181234.772500", "181236.262500", "181237.752500", "181239.242500", "181240.732500", "181242.222500", "181243.712500", "181245.202500", "181246.692500", "181248.182500", "181249.672500", "181251.162500", "181252.652500", "181254.142500", "181255.632500", "181257.122500", "181258.612500", "181300.102500", "181301.592500", "181303.082500", "181304.572500", "181306.062500", "181307.552500", "181309.042500", "181310.532500", "181312.022500", "181313.512500", "181315.002500", "181316.492500", "181317.982500", "181319.472500", "181320.962500", "181322.452500", "181323.942500", "181325.432500", "181326.922500", "181328.412500", "181329.902500", "181331.392500", "181332.882500", "181334.372500", "181335.862500", "181337.352500", "181338.842500", "181340.332500", "181341.822500", "181343.312500", "181344.802500", "181346.292500", "181347.782500", "181349.272500", "181350.762500", "181352.252500", "181353.742500", "181355.232500", "181356.722500", "181358.212500", "181359.702500", "181401.192500", "181402.682500", "181404.172500", "181405.662500", "181407.152500", "181408.642500", "181410.132500", "181411.622500", "181413.112500", "181414.602500", "181416.092500", "181417.582500", "181419.072500", "181420.562500", "181422.052500", "181423.542500", "181425.032500", "181426.522500", "181428.012500", "181429.502500", "181430.992500", "181432.482500", "181433.972500", "181435.462500", "181436.952500", "181438.442500", "181439.932500", "181441.422500", "181442.912500", "181444.402500", "181445.892500", "181447.382500", "181448.872500", "181450.362500", "181451.852500", "181453.342500", "181454.832500", "181456.322500", "181457.812500", "181459.302500", "181500.792500", "181502.282500", "181503.772500", "181505.262500", "181506.752500", "181508.242500", "181509.732500", "181511.222500", "181512.712500", "181514.202500", "181515.692500", "181517.182500", "181518.672500", "181520.162500", "181521.652500", "181523.142500", "181524.632500", "181526.122500", "181527.612500", "181529.102500", "181530.592500", "181532.082500", "181533.572500", "181535.062500", "181536.552500", "181538.042500", "181539.532500", "181541.022500", "181542.512500", "181544.002500", "181545.492500", "181546.982500", "181548.472500", "181549.962500", "181551.452500", "181552.942500", "181554.432500", "181555.922500", "181557.412500", "181558.902500", "181600.392500", "181601.882500", "181603.372500", "181604.862500", "181606.352500", "181607.842500", "181609.332500", "181610.822500", "181612.312500", "181613.802500", "181615.292500", "181616.782500", "181618.272500", "181619.762500", "181621.252500", "181622.742500", "181624.232500", "181625.722500", "181627.212500", "181628.702500", "181630.192500", "181631.682500", "181633.172500", "181634.662500", "181636.152500", "181637.642500", "181639.132500", "181640.622500", "181642.112500", "181643.602500", "181645.092500", "181646.582500", "181648.072500", "181649.562500", "181651.052500", "181652.542500", "181654.032500", "181655.522500", "181657.012500", "181658.502500", "181659.992500", "181701.482500", "181702.972500", "181704.462500", "181705.952500", "181707.442500", "181708.932500", "181710.422500", "181711.912500", "181713.402500", "181714.892500", "181716.382500", "181717.872500", "181719.362500", "181720.852500", "181722.342500", "181723.832500", "181725.322500", "181726.812500", "181728.302500", "181729.792500", "181731.282500", "181732.772500", "181734.262500", "181735.752500", "181737.242500", "181738.732500", "181740.222500", "181741.712500", "181743.202500", "181744.692500", "181746.182500", "181747.672500", "181749.162500", "181750.652500", "181752.142500", "181753.632500", "181755.122500", "181756.612500", "181758.102500", "181759.592500", "181801.082500", "181802.572500", "181804.062500", "181805.552500", "181807.042500", "181808.532500", "181810.022500", "181811.512500", "181813.002500", "181814.492500", "181815.982500", "181817.472500", "181818.962500", "181820.452500", "181821.942500", "181823.432500", "181824.922500", "181826.412500", "181827.902500", "181829.392500", "181830.882500", "181832.372500", "181833.862500", "181835.352500", "181836.842500", "181838.332500", "181839.822500", "181841.312500", "181842.802500", "181844.292500", "181845.782500", "181847.272500", "181848.762500", "181850.252500", "181851.742500", "181853.232500", "181854.722500", "181856.212500", "181857.702500", "181859.192500", "181900.682500", "181902.172500", "181903.662500", "181905.152500", "181906.642500", "181908.132500", "181909.622500", "181911.112500", "181912.602500", "181914.092500", "181915.582500", "181917.072500", "181918.562500", "181920.052500", "181921.542500", "181923.032500", "181924.522500", "181926.012500", "181927.502500", "181928.992500", "181930.482500", "181931.972500", "181933.462500", "181934.952500", "181936.442500", "181937.932500", "181939.422500", "181940.912500", "181942.402500", "181943.892500", "181945.382500", "181946.872500", "181948.362500", "181949.852500", "181951.342500", "181952.832500", "181954.322500", "181955.812500", "181957.302500", "181958.792500", "182000.282500", "182001.772500", "182003.262500", "182004.752500", "182006.242500", "182007.732500", "182009.222500", "182010.712500", "182012.202500", "182013.692500", "182015.182500", "182016.672500", "182018.162500", "182019.652500", "182021.142500", "182022.632500", "182024.122500", "182025.612500", "182027.102500", "182028.592500", "182030.082500", "182031.572500", "182033.062500", "182034.552500", "182036.042500", "182037.532500", "182039.022500", "182040.512500", "182042.002500", "182043.492500", "182044.982500", "182046.472500", "182047.962500", "182049.452500", "182050.942500", "182052.432500", "182053.922500", "182055.412500", "182056.902500", "182058.392500", "182059.882500", "182101.372500", "182102.862500", "182104.352500", "182105.842500", "182107.332500", "182108.822500", "182110.312500", "182111.802500", "182113.292500", "182114.782500", "182116.272500", "182117.762500", "182119.252500", "182120.742500", "182122.232500", "182123.722500", "182125.212500", "182126.702500", "182128.192500", "182129.682500", "182131.172500", "182132.662500", "182134.152500", "182135.642500", "182137.132500", "182138.622500", "182140.112500", "182141.602500", "182143.092500", "182144.582500", "182146.072500", "182147.562500", "182149.052500", "182150.542500", "182152.032500", "182153.522500", "182155.012500", "182156.502500", "182157.992500", "182159.482500", "182200.972500", "182202.462500", "182203.952500", "182205.442500", "182206.932500", "182208.422500", "182209.912500", "182211.402500", "182212.892500", "182214.382500", "182215.872500", "182217.362500", "182218.852500", "182220.342500", "182221.832500", "182223.322500", "182224.812500", "182226.302500", "182227.792500", "182229.282500", "182230.772500", "182232.262500", "182233.752500", "182235.242500", "182236.732500", "182238.222500", "182239.712500", "182241.202500", "182242.692500", "182244.182500", "182245.672500", "182247.162500", "182248.652500", "182250.142500", "182251.632500", "182253.122500", "182254.612500", "182256.102500", "182257.592500", "182259.082500", "182300.572500", "182302.062500", "182303.552500", "182305.042500", "182306.532500", "182308.022500", "182309.512500", "182311.002500", "182312.492500", "182313.982500", "182315.472500", "182316.962500", "182318.452500", "182319.942500", "182321.432500", "182322.922500", "182324.412500", "182325.902500", "182327.392500", "182328.882500", "182330.372500", "182331.862500", "182333.352500", "182334.842500", "182336.332500", "182337.822500", "182339.312500", "182340.802500", "182342.292500", "182343.782500", "182345.272500"],
      "ContentTime": ["181312.606000", "181312.625000", "181312.628000", "181312.630000", "181312.633000", "181312.635000", "181332.615000", "181332.618000", "181332.620000", "181332.623000", "181332.625000", "181332.628000", "181332.630000", "181332.633000", "181332.635000", "181332.638000", "181332.640000", "181332.643000", "181332.645000", "181332.648000", "181332.650000", "181332.653000", "181332.655000", "181332.658000", "181332.660000", "181332.663000", "181352.620000", "181352.622000", "181352.625000", "181352.628000", "181352.630000", "181352.633000", "181352.635000", "181352.638000", "181352.640000", "181352.643000", "181352.645000", "181352.648000", "181352.650000", "181352.653000", "181352.655000", "181352.658000", "181352.661000", "181352.663000", "181352.666000", "181352.668000", "181412.619000", "181412.621000", "181412.624000", "181412.635000", "181412.637000", "181412.640000", "181412.642000", "181412.645000", "181412.647000", "181412.650000", "181412.652000", "181412.655000", "181412.657000", "181412.660000", "181412.662000", "181412.665000", "181412.667000", "181412.670000", "181412.673000", "181412.675000", "181412.678000", "181432.613000", "181432.616000", "181432.618000", "181432.621000", "181432.623000", "181432.626000", "181432.628000", "181432.631000", "181432.633000", "181432.636000", "181432.638000", "181432.641000", "181432.643000", "181432.646000", "181432.648000", "181432.651000", "181432.653000", "181432.656000", "181432.658000", "181432.661000", "181452.612000", "181452.615000", "181452.617000", "181452.620000", "181452.622000", "181452.625000", "181452.627000", "181452.630000", "181452.632000", "181452.635000", "181452.637000", "181452.640000", "181452.642000", "181452.645000", "181452.647000", "181452.650000", "181452.652000", "181452.655000", "181452.658000", "181452.660000", "181532.654000", "181532.656000", "181532.659000", "181532.661000", "181532.664000", "181532.667000", "181532.669000", "181532.672000", "181532.674000", "181532.677000", "181532.679000", "181532.682000", "181532.684000", "181532.687000", "181532.690000", "181532.692000", "181532.695000", "181532.697000", "181532.700000", "181532.702000", "181532.705000", "181532.707000", "181532.710000", "181532.712000", "181532.715000", "181532.717000", "181532.720000", "181612.639000", "181612.641000", "181612.644000", "181612.647000", "181612.650000", "181612.654000", "181612.657000", "181612.659000", "181612.662000", "181612.664000", "181612.667000", "181612.670000", "181612.694000", "181612.696000", "181612.699000", "181612.701000", "181612.704000", "181612.706000", "181612.709000", "181612.711000", "181612.714000", "181612.716000", "181612.719000", "181612.721000", "181612.724000", "181612.726000", "181652.641000", "181652.644000", "181652.646000", "181652.649000", "181652.651000", "181652.654000", "181652.656000", "181652.659000", "181652.661000", "181652.664000", "181652.666000", "181652.669000", "181652.671000", "181652.674000", "181652.676000", "181652.679000", "181652.681000", "181652.684000", "181652.686000", "181652.689000", "181652.692000", "181652.694000", "181652.697000", "181652.707000", "181652.709000", "181652.712000", "181652.714000", "181732.643000", "181732.645000", "181732.648000", "181732.650000", "181732.653000", "181732.656000", "181732.658000", "181732.661000", "181732.663000", "181732.666000", "181732.668000", "181732.671000", "181732.673000", "181732.676000", "181732.678000", "181732.681000", "181732.683000", "181732.686000", "181732.688000", "181732.691000", "181732.693000", "181732.696000", "181732.698000", "181732.701000", "181732.703000", "181732.706000", "181732.708000", "181812.639000", "181812.642000", "181812.644000", "181812.647000", "181812.649000", "181812.652000", "181812.654000", "181812.657000", "181812.659000", "181812.662000", "181812.664000", "181812.667000", "181812.670000", "181812.672000", "181812.675000", "181812.677000", "181812.680000", "181812.682000", "181812.685000", "181812.687000", "181812.690000", "181812.692000", "181812.695000", "181812.702000", "181812.704000", "181812.707000", "181812.709000", "181852.641000", "181852.644000", "181852.646000", "181852.649000", "181852.651000", "181852.654000", "181852.656000", "181852.659000", "181852.662000", "181852.664000", "181852.667000", "181852.669000", "181852.672000", "181852.674000", "181852.677000", "181852.679000", "181852.682000", "181852.684000", "181852.687000", "181852.689000", "181852.692000", "181852.694000", "181852.697000", "181852.699000", "181852.702000", "181852.705000", "181852.707000", "181932.644000", "181932.647000", "181932.649000", "181932.652000", "181932.654000", "181932.657000", "181932.659000", "181932.662000", "181932.665000", "181932.667000", "181932.670000", "181932.672000", "181932.675000", "181932.677000", "181932.680000", "181932.682000", "181932.685000", "181932.687000", "181932.690000", "181932.692000", "181932.695000", "181932.697000", "181932.700000", "181932.702000", "181932.705000", "181932.708000", "181932.710000", "182012.674000", "182012.677000", "182012.680000", "182012.682000", "182012.685000", "182012.687000", "182012.690000", "182012.693000", "182012.695000", "182012.698000", "182012.700000", "182012.703000", "182012.705000", "182012.708000", "182012.710000", "182012.713000", "182012.715000", "182012.718000", "182012.720000", "182012.723000", "182012.725000", "182012.728000", "182012.731000", "182012.733000", "182012.736000", "182012.738000", "182052.962000", "182052.965000", "182052.967000", "182052.970000", "182052.972000", "182052.975000", "182052.977000", "182052.980000", "182052.982000", "182052.985000", "182052.987000", "182052.990000", "182052.993000", "182052.995000", "182052.998000", "182053.000000", "182053.003000", "182053.005000", "182053.008000", "182053.010000", "182053.013000", "182053.015000", "182053.018000", "182053.020000", "182053.023000", "182053.026000", "182053.028000", "182132.661000", "182132.664000", "182132.666000", "182132.669000", "182132.672000", "182132.674000", "182132.677000", "182132.679000", "182132.682000", "182132.684000", "182132.687000", "182132.689000", "182132.692000", "182132.694000", "182132.697000", "182132.700000", "182132.702000", "182132.705000", "182132.707000", "182132.710000", "182132.712000", "182132.715000", "182132.717000", "182132.720000", "182132.722000", "182132.725000", "182132.727000", "182212.653000", "182212.656000", "182212.658000", "182212.661000", "182212.663000", "182212.666000", "182212.668000", "182212.671000", "182212.673000", "182212.676000", "182212.678000", "182212.681000", "182212.683000", "182212.686000", "182212.689000", "182212.691000", "182212.697000", "182212.700000", "182212.703000", "182212.705000", "182212.708000", "182212.710000", "182212.713000", "182212.715000", "182212.718000", "182212.720000", "182212.723000", "182252.644000", "182252.646000", "182252.649000", "182252.651000", "182252.654000", "182252.657000", "182252.659000", "182252.662000", "182252.664000", "182252.667000", "182252.669000", "182252.672000", "182252.674000", "182252.677000", "182252.679000", "182252.682000", "182252.684000", "182252.687000", "182252.689000", "182252.692000", "182252.694000", "182252.697000", "182252.699000", "182252.702000", "182252.704000", "182252.707000", "182252.709000", "182332.640000", "182332.643000", "182332.646000", "182332.648000", "182332.651000", "182332.653000", "182332.656000", "182332.659000", "182332.661000", "182332.664000", "182332.666000", "182332.669000", "182332.671000", "182332.674000", "182332.676000", "182332.679000", "182332.681000", "182332.684000", "182332.686000", "182332.689000", "182332.692000", "182332.694000", "182332.697000", "182332.699000", "182332.702000", "182332.704000", "182332.707000", "182347.864000", "182347.867000", "182347.870000", "182347.872000", "182347.875000", "182347.877000", "182347.880000", "182347.882000", "182347.885000", "182347.887000"],
