{
  "AcquisitionMatrixPE": 104,
  "AcquisitionNumber": 1,
  "AcquisitionTime": "17:45:42.555000",
  "BandwidthPerPixelPhaseEncode": 17.17,
  "BaseResolution": 104,
  "BodyPartExamined": "BRAIN",
  "CoilCombinationMethod": "Sum of Squares",
  "ConsistencyInfo": "N4_VE11C_LATEST_20160120",
  "ConversionSoftware": "dcm2niix",
  "ConversionSoftwareVersion": "v1.0.20211006",
  "DerivedVendorReportedEchoSpacing": 0.000560011,
  "DeviceSerialNumber": "167006",
  "DwellTime": 2.1e-06,
  "EchoTime": 0.037,
  "EchoTrainLength": 104,
  "EffectiveEchoSpacing": 0.000560011,
  "FlipAngle": 52,
  "HeudiconvVersion": "0.11.3.post9+gc939bf8",
  "ImageComments": "Unaliased MB4/PE3/LB",
  "ImageOrientationPatientDICOM": [0.995638, 0.0892962, 0.0270489, -0.0755614, 0.941758, -0.327691],
  "ImageOrientationText": "Tra>Cor(-18.9)>Sag(3.1)",
  "ImageType": [
    "ORIGINAL",
    "PRIMARY",
    "M",
    "MB",
    "ND",
    "MOSAIC"
],
  "ImagingFrequency": 123.259,
  "InPlanePhaseEncodingDirectionDICOM": "COL",
  "InstitutionAddress": "Chemin Queen-Mary 4565,Montreal,District,CA,H3W 1W5",
  "InstitutionName": "IUGM",
  "InstitutionalDepartmentName": "Department",
  "MRAcquisitionType": "2D",
  "MagneticFieldStrength": 3,
  "Manufacturer": "Siemens",
  "ManufacturersModelName": "Prisma_fit",
  "MatrixCoilMode": "SENSE",
  "Modality": "MR",
  "MultibandAccelerationFactor": 4,
  "PartialFourier": 1,
  "PatientPosition": "HFS",
  "PercentPhaseFOV": 100,
  "PercentSampling": 100,
  "PhaseEncodingDirection": "j",
  "PhaseEncodingSteps": 104,
  "PhaseResolution": 1,
  "PixelBandwidth": 2290,
  "ProcedureStepDescription": "games^mariostars",
  "ProtocolName": "func_task-mariostars_run-02",
  "PulseSequenceDetails": "%CustomerSeq%\\cmrr_mbep2d_bold",
  "ReceiveCoilActiveElements": "HC1-7;NC1,2",
  "ReceiveCoilName": "HeadNeck_64",
  "ReconMatrixPE": 104,
  "RepetitionTime": 1.49,
  "SAR": 0.0643365,
  "ScanOptions": "FS",
  "ScanningSequence": "EP",
  "SequenceName": "epfid2d1_104",
  "SequenceVariant": "SK\\SS",
  "SeriesDescription": "func_task-mariostars_run-02",
  "SeriesNumber": 14,
  "ShimSetting": [625, -7188, -8794, 674, 89, 21, -18, -19],
  "SliceThickness": 2,
  "SliceTiming": [0, 0.785, 0.1, 0.8825, 0.1975, 0.98, 0.295, 1.08, 0.3925, 1.1775, 0.49, 1.275, 0.59, 1.3725, 0.6875, 0, 0.785, 0.1, 0.8825, 0.1975, 0.98, 0.295, 1.08, 0.3925, 1.1775, 0.49, 1.275, 0.59, 1.3725, 0.6875, 0, 0.785, 0.1, 0.8825, 0.1975, 0.98, 0.295, 1.08, 0.3925, 1.1775, 0.49, 1.275, 0.59, 1.3725, 0.6875, 0, 0.785, 0.1, 0.8825, 0.1975, 0.98, 0.295, 1.08, 0.3925, 1.1775, 0.49, 1.275, 0.59, 1.3725, 0.6875],
  "SoftwareVersions": "syngo MR E11",
  "SpacingBetweenSlices": 2,
  "StationName": "MRC35049",
  "TaskName": "mariostars",
  "TotalReadoutTime": 0.0576811,
  "TxRefAmp": 315.048,
  "WipMemBlock": "ed1dec63-7841-48f5-b423-64475c6f0c38||Sequence: R016 ve11c/master r/e634e98; Dec 19 2017 11:00:25 by eja",
  "dcmmeta_affine": [
    [-1.9912755489349365, -0.15112271904945374, 0.1094701886177063, 111.00481414794922],
    [-0.17859235405921936, 1.8835169076919556, -0.648435652256012, -52.67473602294922],
    [0.054097793996334076, 0.6553822755813599, 1.888795256614685, -56.83750915527344],
    [0.0, 0.0, 0.0, 1.0]
],
  "dcmmeta_reorient_transform": [
    [0.0, -1.0, 0.0, 103.0],
    [1.0, 0.0, 0.0, 0.0],
    [0.0, 0.0, 1.0, 0.0],
    [0.0, 0.0, 0.0, 1.0]
],
  "dcmmeta_shape": [104, 104, 60, 434],
  "dcmmeta_slice_dim": 2,
  "dcmmeta_version": 0.6,
  "global": {
    "const": {
      "AcquisitionMatrix": [104, 0, 0, 104],
      "AngioFlag": "N",
      "BitsAllocated": 16,
      "BitsStored": 16,
      "BodyPartExamined": "BRAIN",
      "Columns": 832,
      "EchoNumbers": 1,
      "EchoTime": 37.0,
      "EchoTrainLength": 104,
      "FlipAngle": 52.0,
      "HighBit": 15,
      "ImageOrientationPatient": [0.99563776069229, 0.08929617354413, 0.0270488978339, -0.0755613597693, 0.94175846209717, -0.3276911350314],
      "ImagePositionPatient": [-765.25479607604, -891.93528095024, 229.53441153878],
      "ImageType": [
        "ORIGINAL",
        "PRIMARY",
        "M",
        "MB",
        "ND",
        "MOSAIC"
],
      "ImagedNucleus": "1H",
      "ImagingFrequency": 123.258817,
      "InPlanePhaseEncodingDirection": "COL",
      "MRAcquisitionType": "2D",
      "MagneticFieldStrength": 3.0,
      "Manufacturer": "SIEMENS",
      "ManufacturerModelName": "Prisma_fit",
      "Modality": "MR",
      "NumberOfAverages": 1.0,
      "NumberOfPhaseEncodingSteps": 104,
      "PercentPhaseFieldOfView": 100.0,
      "PercentSampling": 100.0,
      "PerformedProcedureStepStartTime": "170655.534000",
      "PhotometricInterpretation": "MONOCHROME2",
      "PixelBandwidth": 2290.0,
      "PixelRepresentation": 0,
      "PixelSpacing": [2.0, 2.0],
      "ProtocolName": "func_task-mariostars_run-02",
      "RepetitionTime": 1490.0,
      "Rows": 832,
      "SAR": 0.06433646581157,
      "SamplesPerPixel": 1,
      "ScanOptions": "FS",
      "ScanningSequence": "EP",
      "SequenceName": "epfid2d1_104",
      "SequenceVariant": [
        "SK",
        "SS"
],
      "SeriesDescription": "func_task-mariostars_run-02",
      "SeriesNumber": 14,
      "SeriesTime": "174713.588000",
      "SliceLocation": -30.523263313714,
      "SliceThickness": 2.0,
      "SmallestImagePixelValue": 0,
      "SoftwareVersions": "syngo MR E11",
      "SpacingBetweenSlices": 1.9999999847973,
      "SpecificCharacterSet": "ISO_IR 100",
      "StudyID": "1",
      "StudyTime": "170655.400000",
      "TransmitCoilName": "Body",
      "VariableFlipAngleFlag": "N",
      "WindowCenterWidthExplanation": "Algo1",
      "dBdt": 0.0},
    "slices": {}
  },
  "time": {
    "samples": {
      "AcquisitionNumber": [1, 2, 3, 4, 5, 6, 7, 8, 9, 10, 11, 12, 13, 14, 15, 16, 17, 18, 19, 20, 21, 22, 23, 24, 25, 26, 27, 28, 29, 30, 31, 32, 33, 34, 35, 36, 37, 38, 39, 40, 41, 42, 43, 44, 45, 46, 47, 48, 49, 50, 51, 52, 53, 54, 55, 56, 57, 58, 59, 60, 61, 62, 63, 64, 65, 66, 67, 68, 69, 70, 71, 72, 73, 74, 75, 76, 77, 78, 79, 80, 81, 82, 83, 84, 85, 86, 87, 88, 89, 90, 91, 92, 93, 94, 95, 96, 97, 98, 99, 100, 101, 102, 103, 104, 105, 106, 107, 108, 109, 110, 111, 112, 113, 114, 115, 116, 117, 118, 119, 120, 121, 122, 123, 124, 125, 126, 127, 128, 129, 130, 131, 132, 133, 134, 135, 136, 137, 138, 139, 140, 141, 142, 143, 144, 145, 146, 147, 148, 149, 150, 151, 152, 153, 154, 155, 156, 157, 158, 159, 160, 161, 162, 163, 164, 165, 166, 167, 168, 169, 170, 171, 172, 173, 174, 175, 176, 177, 178, 179, 180, 181, 182, 183, 184, 185, 186, 187, 188, 189, 190, 191, 192, 193, 194, 195, 196, 197, 198, 199, 200, 201, 202, 203, 204, 205, 206, 207, 208, 209, 210, 211, 212, 213, 214, 215, 216, 217, 218, 219, 220, 221, 222, 223, 224, 225, 226, 227, 228, 229, 230, 231, 232, 233, 234, 235, 236, 237, 238, 239, 240, 241, 242, 243, 244, 245, 246, 247, 248, 249, 250, 251, 252, 253, 254, 255, 256, 257, 258, 259, 260, 261, 262, 263, 264, 265, 266, 267, 268, 269, 270, 271, 272, 273, 274, 275, 276, 277, 278, 279, 280, 281, 282, 283, 284, 285, 286, 287, 288, 289, 290, 291, 292, 293, 294, 295, 296, 297, 298, 299, 300, 301, 302, 303, 304, 305, 306, 307, 308, 309, 310, 311, 312, 313, 314, 315, 316, 317, 318, 319, 320, 321, 322, 323, 324, 325, 326, 327, 328, 329, 330, 331, 332, 333, 334, 335, 336, 337, 338, 339, 340, 341, 342, 343, 344, 345, 346, 347, 348, 349, 350, 351, 352, 353, 354, 355, 356, 357, 358, 359, 360, 361, 362, 363, 364, 365, 366, 367, 368, 369, 370, 371, 372, 373, 374, 375, 376, 377, 378, 379, 380, 381, 382, 383, 384, 385, 386, 387, 388, 389, 390, 391, 392, 393, 394, 395, 396, 397, 398, 399, 400, 401, 402, 403, 404, 405, 406, 407, 408, 409, 410, 411, 412, 413, 414, 415, 416, 417, 418, 419, 420, 421, 422, 423, 424, 425, 426, 427, 428, 429, 430, 431, 432, 433, 434],
      "AcquisitionTime": ["174542.555000", "174544.045000", "174545.535000", "174547.025000", "174548.515000", "174550.005000", "174551.495000", "174552.985000", "174554.475000", "174555.965000", "174557.455000", "174558.945000", "174600.435000", "174601.925000", "174603.415000", "174604.905000", "174606.395000", "174607.885000", "174609.375000", "174610.865000", "174612.355000", "174613.845000", "174615.335000", "174616.825000", "174618.315000", "174619.805000", "174621.295000", "174622.785000", "174624.275000", "174625.765000", "174627.255000", "174628.745000", "174630.235000", "174631.725000", "174633.215000", "174634.705000", "174636.195000", "174637.685000", "174639.175000", "174640.665000", "174642.155000", "174643.645000", "174645.135000", "174646.625000", "174648.115000", "174649.605000", "174651.095000", "174652.585000", "174654.075000", "174655.565000", "174657.055000", "174658.545000", "174700.035000", "174701.525000", "174703.015000", "174704.505000", "174705.995000", "174707.485000", "174708.975000", "174710.465000", "174711.955000", "174713.445000", "174714.935000", "174716.425000", "174717.915000", "174719.405000", "174720.895000", "174722.385000", "174723.875000", "174725.365000", "174726.855000", "174728.345000", "174729.835000", "174731.325000", "174732.815000", "174734.305000", "174735.795000", "174737.285000", "174738.775000", "174740.265000", "174741.755000", "174743.245000", "174744.735000", "174746.225000", "174747.715000", "174749.205000", "174750.695000", "174752.185000", "174753.675000", "174755.165000", "174756.655000", "174758.145000", "174759.635000", "174801.125000", "174802.615000", "174804.105000", "174805.595000", "174807.085000", "174808.575000", "174810.065000", "174811.555000", "174813.045000", "174814.535000", "174816.025000", "174817.515000", "174819.005000", "174820.495000", "174821.985000", "174823.475000", "174824.965000", "174826.455000", "174827.945000", "174829.435000", "174830.925000", "174832.415000", "174833.905000", "174835.395000", "174836.885000", "174838.375000", "174839.865000", "174841.355000", "174842.845000", "174844.335000", "174845.825000", "174847.315000", "174848.805000", "174850.295000", "174851.785000", "174853.275000", "174854.765000", "174856.255000", "174857.745000", "174859.235000", "174900.725000", "174902.215000", "174903.705000", "174905.195000", "174906.685000", "174908.175000", "174909.665000", "174911.155000", "174912.645000", "174914.135000", "174915.625000", "174917.115000", "174918.605000", "174920.095000", "174921.585000", "174923.075000", "174924.565000", "174926.055000", "174927.545000", "174929.035000", "174930.525000", "174932.015000", "174933.505000", "174934.995000", "174936.485000", "174937.975000", "174939.465000", "174940.955000", "174942.445000", "174943.935000", "174945.425000", "174946.915000", "174948.405000", "174949.895000", "174951.385000", "174952.875000", "174954.365000", "174955.855000", "174957.345000", "174958.835000", "175000.325000", "175001.815000", "175003.305000", "175004.795000", "175006.285000", "175007.775000", "175009.265000", "175010.755000", "175012.245000", "175013.735000", "175015.225000", "175016.715000", "175018.205000", "175019.695000", "175021.185000", "175022.675000", "175024.165000", "175025.655000", "175027.145000", "175028.635000", "175030.125000", "175031.615000", "175033.105000", "175034.595000", "175036.085000", "175037.575000", "175039.065000", "175040.555000", "175042.045000", "175043.535000", "175045.025000", "175046.515000", "175048.005000", "175049.495000", "175050.985000", "175052.475000", "175053.965000", "175055.455000", "175056.945000", "175058.435000", "175059.925000", "175101.415000", "175102.905000", "175104.395000", "175105.885000", "175107.375000", "175108.865000", "175110.355000", "175111.845000", "175113.335000", "175114.825000", "175116.315000", "175117.805000", "175119.295000", "175120.785000", "175122.275000", "175123.765000", "175125.255000", "175126.745000", "175128.235000", "175129.725000", "175131.215000", "175132.705000", "175134.195000", "175135.685000", "175137.175000", "175138.665000", "175140.155000", "175141.645000", "175143.135000", "175144.625000", "175146.115000", "175147.605000", "175149.095000", "175150.585000", "175152.075000", "175153.565000", "175155.055000", "175156.545000", "175158.035000", "175159.525000", "175201.015000", "175202.505000", "175203.995000", "175205.485000", "175206.975000", "175208.465000", "175209.955000", "175211.445000", "175212.935000", "175214.425000", "175215.915000", "175217.405000", "175218.895000", "175220.385000", "175221.875000", "175223.365000", "175224.855000", "175226.345000", "175227.835000", "175229.325000", "175230.815000", "175232.305000", "175233.795000", "175235.285000", "175236.775000", "175238.265000", "175239.755000", "175241.245000", "175242.735000", "175244.225000", "175245.715000", "175247.205000", "175248.695000", "175250.185000", "175251.675000", "175253.165000", "175254.655000", "175256.145000", "175257.635000", "175259.125000", "175300.615000", "175302.105000", "175303.595000", "175305.085000", "175306.575000", "175308.065000", "175309.555000", "175311.045000", "175312.535000", "175314.025000", "175315.515000", "175317.005000", "175318.495000", "175319.985000", "175321.475000", "175322.965000", "175324.455000", "175325.945000", "175327.435000", "175328.925000", "175330.415000", "175331.905000", "175333.395000", "175334.885000", "175336.375000", "175337.865000", "175339.355000", "175340.845000", "175342.335000", "175343.825000", "175345.315000", "175346.805000", "175348.295000", "175349.785000", "175351.275000", "175352.765000", "175354.255000", "175355.745000", "175357.235000", "175358.725000", "175400.215000", "175401.705000", "175403.195000", "175404.685000", "175406.175000", "175407.665000", "175409.155000", "175410.645000", "175412.135000", "175413.625000", "175415.115000", "175416.605000", "175418.095000", "175419.585000", "175421.075000", "175422.565000", "175424.055000", "175425.545000", "175427.035000", "175428.525000", "175430.015000", "175431.505000", "175432.995000", "175434.485000", "175435.975000", "175437.465000", "175438.955000", "175440.445000", "175441.935000", "175443.425000", "175444.915000", "175446.405000", "175447.895000", "175449.385000", "175450.875000", "175452.365000", "175453.855000", "175455.345000", "175456.835000", "175458.325000", "175459.815000", "175501.305000", "175502.795000", "175504.285000", "175505.775000", "175507.265000", "175508.755000", "175510.245000", "175511.735000", "175513.225000", "175514.715000", "175516.205000", "175517.695000", "175519.185000", "175520.675000", "175522.165000", "175523.655000", "175525.145000", "175526.635000", "175528.125000", "175529.615000", "175531.105000", "175532.595000", "175534.085000", "175535.575000", "175537.065000", "175538.555000", "175540.045000", "175541.535000", "175543.025000", "175544.515000", "175546.005000", "175547.495000", "175548.985000", "175550.475000", "175551.965000", "175553.455000", "175554.945000", "175556.435000", "175557.925000", "175559.415000", "175600.905000", "175602.395000", "175603.885000", "175605.375000", "175606.865000", "175608.355000", "175609.845000", "175611.335000", "175612.825000", "175614.315000", "175615.805000", "175617.295000", "175618.785000", "175620.275000", "175621.765000", "175623.255000", "175624.745000", "175626.235000", "175627.725000"],
      "ContentTime": ["174713.591000", "174713.595000", "174713.598000", "174713.602000", "174713.605000", "174713.608000", "174713.612000", "174713.615000", "174713.618000", "174713.622000", "174713.625000", "174713.628000", "174713.632000", "174713.635000", "174713.638000", "174713.642000", "174713.645000", "174713.648000", "174713.651000", "174713.655000", "174713.658000", "174713.661000", "174713.665000", "174713.668000", "174713.671000", "174713.681000", "174713.684000", "174713.687000", "174713.691000", "174713.694000", "174713.697000", "174713.701000", "174713.704000", "174713.707000", "174713.711000", "174713.714000", "174713.727000", "174713.730000", "174733.554000", "174733.558000", "174733.561000", "174733.564000", "174733.568000", "174733.571000", "174733.574000", "174733.578000", "174733.581000", "174733.584000", "174733.588000", "174733.591000", "174733.594000", "174733.598000", "174733.601000", "174733.604000", "174733.607000", "174733.611000", "174733.614000", "174733.623000", "174753.553000", "174753.557000", "174753.560000", "174753.563000", "174753.567000", "174753.570000", "174753.573000", "174753.577000", "174753.580000", "174753.583000", "174753.587000", "174753.590000", "174753.593000", "174753.597000", "174753.600000", "174753.603000", "174753.607000", "174753.610000", "174753.613000", "174753.616000", "174813.553000", "174813.557000", "174813.560000", "174813.564000", "174813.567000", "174813.570000", "174813.573000", "174813.577000", "174813.580000", "174813.583000", "174813.587000", "174813.590000", "174813.594000", "174813.597000", "174813.600000", "174813.604000", "174813.607000", "174813.610000", "174813.614000", "174813.617000", "174853.554000", "174853.558000", "174853.561000", "174853.565000", "174853.568000", "174853.571000", "174853.574000", "174853.578000", "174853.581000", "174853.585000", "174853.588000", "174853.591000", "174853.594000", "174853.598000", "174853.601000", "174853.604000", "174853.608000", "174853.611000", "174853.614000", "174853.618000", "174853.621000", "174853.624000", "174853.628000", "174853.631000", "174853.634000", "174853.638000", "174853.641000", "174853.645000", "174853.648000", "174933.554000", "174933.558000", "174933.561000", "174933.565000", "174933.568000", "174933.571000", "174933.588000", "174933.591000", "174933.594000", "174933.598000", "174933.601000", "174933.604000", "174933.608000", "174933.611000", "174933.615000", "174933.618000", "174933.621000", "174933.625000", "174933.628000", "174933.631000", "174933.635000", "174933.638000", "174933.641000", "174933.645000", "174933.648000", "174933.651000", "174933.655000", "174953.554000", "174953.558000", "174953.562000", "174953.565000", "174953.568000", "174953.572000", "174953.575000", "174953.578000", "174953.582000", "174953.585000", "174953.588000", "174953.592000", "174953.595000", "175033.553000", "175033.557000", "175033.560000", "175033.564000", "175033.567000", "175033.570000", "175033.574000", "175033.577000", "175033.580000", "175033.584000", "175033.587000", "175033.590000", "175033.594000", "175033.597000", "175033.600000", "175033.604000", "175033.607000", "175033.610000", "175033.614000", "175033.617000", "175033.628000", "175033.631000", "175033.635000", "175033.638000", "175033.641000", "175033.644000", "175033.648000", "175113.554000", "175113.558000", "175113.561000", "175113.565000", "175113.568000", "175113.571000", "175113.575000", "175113.578000", "175113.581000", "175113.585000", "175113.588000", "175113.591000", "175113.594000", "175113.598000", "175113.601000", "175113.612000", "175113.615000", "175113.618000", "175113.622000", "175113.625000", "175113.628000", "175113.632000", "175113.635000", "175113.638000", "175113.642000", "175113.645000", "175113.648000", "175153.554000", "175153.558000", "175153.561000", "175153.565000", "175153.568000", "175153.571000", "175153.575000", "175153.578000", "175153.582000", "175153.585000", "175153.588000", "175153.592000", "175153.595000", "175153.621000", "175153.624000", "175153.628000", "175153.631000", "175153.634000", "175153.638000", "175153.641000", "175153.644000", "175153.648000", "175153.651000", "175153.654000", "175153.658000", "175153.661000", "175153.672000", "175233.553000", "175233.557000", "175233.560000", "175233.564000", "175233.567000", "175233.570000", "175233.574000", "175233.577000", "175233.580000", "175233.590000", "175233.593000", "175233.597000", "175233.600000", "175233.603000", "175233.607000", "175233.610000", "175233.613000", "175233.617000", "175233.620000", "175233.623000", "175233.627000", "175233.630000", "175233.633000", "175233.637000", "175233.640000", "175233.643000", "175233.647000", "175313.553000", "175313.557000", "175313.560000", "175313.563000", "175313.567000", "175313.570000", "175313.573000", "175313.577000", "175313.580000", "175313.583000", "175313.587000", "175313.590000", "175313.593000", "175313.597000", "175313.600000", "175313.603000", "175313.607000", "175313.610000", "175313.613000", "175313.617000", "175313.620000", "175313.623000", "175313.627000", "175313.630000", "175313.633000", "175313.637000", "175313.640000", "175353.554000", "175353.558000", "175353.562000", "175353.566000", "175353.569000", "175353.573000", "175353.576000", "175353.579000", "175353.583000", "175353.586000", "175353.589000", "175353.593000", "175353.596000", "175353.599000", "175353.603000", "175353.606000", "175353.609000", "175353.613000", "175353.616000", "175353.619000", "175353.623000", "175353.626000", "175353.630000", "175353.633000", "175353.636000", "175353.640000", "175433.554000", "175433.558000", "175433.561000", "175433.565000", "175433.568000", "175433.571000", "175433.575000", "175433.578000", "175433.581000", "175433.585000", "175433.588000", "175433.591000", "175433.595000", "175433.598000", "175433.602000", "175433.605000", "175433.608000", "175433.612000", "175433.615000", "175433.618000", "175433.622000", "175433.625000", "175433.628000", "175433.632000", "175433.635000", "175433.638000", "175433.642000", "175513.553000", "175513.557000", "175513.560000", "175513.564000", "175513.567000", "175513.571000", "175513.574000", "175513.577000", "175513.581000", "175513.585000", "175513.588000", "175513.591000", "175513.595000", "175513.598000", "175513.601000", "175513.605000", "175513.608000", "175513.611000", "175513.615000", "175513.618000", "175513.621000", "175513.625000", "175513.628000", "175513.631000", "175513.636000", "175513.640000", "175513.643000", "175553.554000", "175553.558000", "175553.561000", "175553.565000", "175553.568000", "175553.571000", "175553.575000", "175553.578000", "175553.581000", "175553.585000", "175553.588000", "175553.591000", "175553.595000", "175553.598000", "175553.601000", "175553.605000", "175553.608000", "175553.611000", "175553.615000", "175553.626000", "175553.629000", "175553.633000", "175553.636000", "175553.639000", "175553.643000", "175553.646000", "175553.649000", "175631.262000", "175631.266000", "175631.269000", "175631.272000", "175631.287000", "175631.290000", "175631.294000", "175631.297000", "175631.300000", "175631.304000", "175631.307000", "175631.310000", "175631.313000", "175631.317000", "175631.320000", "175631.323000", "175631.327000", "175631.330000", "175631.333000", "175631.337000", "175631.340000", "175631.343000", "175631.347000", "175631.350000", "175631.353000"],
      "InstanceCreationTime": ["174713.591000", "174713.595000", "174713.598000", "174713.602000", "174713.605000", "174713.608000", "174713.612000", "174713.615000", "174713.618000", "174713.622000", "174713.625000", "174713.628000", "174713.632000", "174713.635000", "174713.638000", "174713.642000", "174713.645000", "174713.648000", "174713.651000", "174713.655000", "174713.658000", "174713.661000", "174713.665000", "174713.668000", "174713.671000", "174713.681000", "174713.684000", "174713.687000", "174713.691000", "174713.694000", "174713.697000", "174713.701000", "174713.704000", "174713.707000", "174713.711000", "174713.714000", "174713.727000", "174713.730000", "174733.554000", "174733.558000", "174733.561000", "174733.564000", "174733.568000", "174733.571000", "174733.574000", "174733.578000", "174733.581000", "174733.584000", "174733.588000", "174733.591000", "174733.594000", "174733.598000", "174733.601000", "174733.604000", "174733.607000", "174733.611000", "174733.614000", "174733.623000", "174753.553000", "174753.557000", "174753.560000", "174753.563000", "174753.567000", "174753.570000", "174753.573000", "174753.577000", "174753.580000", "174753.583000", "174753.587000", "174753.590000", "174753.593000", "174753.597000", "174753.600000", "174753.603000", "174753.607000", "174753.610000", "174753.613000", "174753.616000", "174813.553000", "174813.557000", "174813.560000", "174813.564000", "174813.567000", "174813.570000", "174813.573000", "174813.577000", "174813.580000", "174813.583000", "174813.587000", "174813.590000", "174813.594000", "174813.597000", "174813.600000", "174813.604000", "174813.607000", "174813.610000", "174813.614000", "174813.617000", "174853.554000", "174853.558000", "174853.561000", "174853.565000", "174853.568000", "174853.571000", "174853.574000", "174853.578000", "174853.581000", "174853.585000", "174853.588000", "174853.591000", "174853.594000", "174853.598000", "174853.601000", "174853.604000", "174853.608000", "174853.611000", "174853.614000", "174853.618000", "174853.621000", "174853.624000", "174853.628000", "174853.631000", "174853.634000", "174853.638000", "174853.641000", "174853.645000", "174853.648000", "174933.554000", "174933.558000", "174933.561000", "174933.565000", "174933.568000", "174933.571000", "174933.588000", "174933.591000", "174933.594000", "174933.598000", "174933.601000", "174933.604000", "174933.608000", "174933.611000", "174933.615000", "174933.618000", "174933.621000", "174933.625000", "174933.628000", "174933.631000", "174933.635000", "174933.638000", "174933.641000", "174933.645000", "174933.648000", "174933.651000", "174933.655000", "174953.554000", "174953.558000", "174953.562000", "174953.565000", "174953.568000", "174953.572000", "174953.575000", "174953.578000", "174953.582000", "174953.585000", "174953.588000", "174953.592000", "174953.595000", "175033.553000", "175033.557000", "175033.560000", "175033.564000", "175033.567000", "175033.570000", "175033.574000", "175033.577000", "175033.580000", "175033.584000", "175033.587000", "175033.590000", "175033.594000", "175033.597000", "175033.600000", "175033.604000", "175033.607000", "175033.610000", "175033.614000", "175033.617000", "175033.628000", "175033.631000", "175033.635000", "175033.638000", "175033.641000", "175033.644000", "175033.648000", "175113.554000", "175113.558000", "175113.561000", "175113.565000", "175113.568000", "175113.571000", "175113.575000", "175113.578000", "175113.581000", "175113.585000", "175113.588000", "175113.591000", "175113.594000", "175113.598000", "175113.601000", "175113.612000", "175113.615000", "175113.618000", "175113.622000", "175113.625000", "175113.628000", "175113.632000", "175113.635000", "175113.638000", "175113.642000", "175113.645000", "175113.648000", "175153.554000", "175153.558000", "175153.561000", "175153.565000", "175153.568000", "175153.571000", "175153.575000", "175153.578000", "175153.582000", "175153.585000", "175153.588000", "175153.592000", "175153.595000", "175153.621000", "175153.624000", "175153.628000", "175153.631000", "175153.634000", "175153.638000", "175153.641000", "175153.644000", "175153.648000", "175153.651000", "175153.654000", "175153.658000", "175153.661000", "175153.672000", "175233.553000", "175233.557000", "175233.560000", "175233.564000", "175233.567000", "175233.570000", "175233.574000", "175233.577000", "175233.580000", "175233.590000", "175233.593000", "175233.597000", "175233.600000", "175233.603000", "175233.607000", "175233.610000", "175233.613000", "175233.617000", "175233.620000", "175233.623000", "175233.627000", "175233.630000", "175233.633000", "175233.637000", "175233.640000", "175233.643000", "175233.647000", "175313.553000", "175313.557000", "175313.560000", "175313.563000", "175313.567000", "175313.570000", "175313.573000", "175313.577000", "175313.580000", "175313.583000", "175313.587000", "175313.590000", "175313.593000", "175313.597000", "175313.600000", "175313.603000", "175313.607000", "175313.610000", "175313.613000", "175313.617000", "175313.620000", "175313.623000", "175313.627000", "175313.630000", "175313.633000", "175313.637000", "175313.640000", "175353.554000", "175353.558000", "175353.562000", "175353.566000", "175353.569000", "175353.573000", "175353.576000", "175353.579000", "175353.583000", "175353.586000", "175353.589000", "175353.593000", "175353.596000", "175353.599000", "175353.603000", "175353.606000", "175353.609000", "175353.613000", "175353.616000", "175353.619000", "175353.623000", "175353.626000", "175353.630000", "175353.633000", "175353.636000", "175353.640000", "175433.554000", "175433.558000", "175433.561000", "175433.565000", "175433.568000", "175433.571000", "175433.575000", "175433.578000", "175433.581000", "175433.585000", "175433.588000", "175433.591000", "175433.595000", "175433.598000", "175433.602000", "175433.605000", "175433.608000", "175433.612000", "175433.615000", "175433.618000", "175433.622000", "175433.625000", "175433.628000", "175433.632000", "175433.635000", "175433.638000", "175433.642000", "175513.553000", "175513.557000", "175513.560000", "175513.564000", "175513.567000", "175513.571000", "175513.574000", "175513.577000", "175513.581000", "175513.585000", "175513.588000", "175513.591000", "175513.595000", "175513.598000", "175513.601000", "175513.605000", "175513.608000", "175513.611000", "175513.615000", "175513.618000", "175513.621000", "175513.625000", "175513.628000", "175513.631000", "175513.636000", "175513.640000", "175513.643000", "175553.554000", "175553.558000", "175553.561000", "175553.565000", "175553.568000", "175553.571000", "175553.575000", "175553.578000", "175553.581000", "175553.585000", "175553.588000", "175553.591000", "175553.595000", "175553.598000", "175553.601000", "175553.605000", "175553.608000", "175553.611000", "175553.615000", "175553.626000", "175553.629000", "175553.633000", "175553.636000", "175553.639000", "175553.643000", "175553.646000", "175553.649000", "175631.262000", "175631.266000", "175631.269000", "175631.272000", "175631.287000", "175631.290000", "175631.294000", "175631.297000", "175631.300000", "175631.304000", "175631.307000", "175631.310000", "175631.313000", "175631.317000", "175631.320000", "175631.323000", "175631.327000", "175631.330000", "175631.333000", "175631.337000", "175631.340000", "175631.343000", "175631.347000", "175631.350000", "175631.353000"],
