{
  "AcquisitionMatrixPE": 104,
  "AcquisitionNumber": 1,
  "AcquisitionTime": "18:12:12.422500",
  "BandwidthPerPixelPhaseEncode": 17.17,
  "BaseResolution": 104,
  "BodyPartExamined": "BRAIN",
  "CoilCombinationMethod": "Sum of Squares",
  "ConsistencyInfo": "N4_VE11C_LATEST_20160120",
  "ConversionSoftware": "dcm2niix",
  "ConversionSoftwareVersion": "v1.0.20211006",
  "DerivedVendorReportedEchoSpacing": 0.000560011,
  "DeviceSerialNumber": "167006",
  "DwellTime": 2.1e-06,
  "EchoTime": 0.037,
  "EchoTrainLength": 104,
  "EffectiveEchoSpacing": 0.000560011,
  "FlipAngle": 52,
  "HeudiconvVersion": "0.11.3.post9+gc939bf8",
  "ImageComments": "Unaliased MB4/PE3/LB",
  "ImageOrientationPatientDICOM": [0.995638, 0.0892962, 0.0270489, -0.0755614, 0.941758, -0.327691],
  "ImageOrientationText": "Tra>Cor(-18.9)>Sag(3.1)",
  "ImageType": [
    "ORIGINAL",
    "PRIMARY",
    "M",
    "MB",
    "ND",
    "MOSAIC"
],
  "ImagingFrequency": 123.259,
  "InPlanePhaseEncodingDirectionDICOM": "COL",
  "InstitutionAddress": "Chemin Queen-Mary 4565,Montreal,District,CA,H3W 1W5",
  "InstitutionName": "IUGM",
  "InstitutionalDepartmentName": "Department",
  "MRAcquisitionType": "2D",
  "MagneticFieldStrength": 3,
  "Manufacturer": "Siemens",
  "ManufacturersModelName": "Prisma_fit",
  "MatrixCoilMode": "SENSE",
  "Modality": "MR",
  "MultibandAccelerationFactor": 4,
  "PartialFourier": 1,
  "PatientPosition": "HFS",
  "PercentPhaseFOV": 100,
  "PercentSampling": 100,
  "PhaseEncodingDirection": "j",
  "PhaseEncodingSteps": 104,
  "PhaseResolution": 1,
  "PixelBandwidth": 2290,
  "ProcedureStepDescription": "games^mariostars",
  "ProtocolName": "func_task-mariostars_run-04",
  "PulseSequenceDetails": "%CustomerSeq%\\cmrr_mbep2d_bold",
  "ReceiveCoilActiveElements": "HC1-7;NC1,2",
  "ReceiveCoilName": "HeadNeck_64",
  "ReconMatrixPE": 104,
  "RepetitionTime": 1.49,
  "SAR": 0.0643365,
  "ScanOptions": "FS",
  "ScanningSequence": "EP",
  "SequenceName": "epfid2d1_104",
  "SequenceVariant": "SK\\SS",
  "SeriesDescription": "func_task-mariostars_run-04",
  "SeriesNumber": 20,
  "ShimSetting": [625, -7188, -8794, 674, 89, 21, -18, -19],
  "SliceThickness": 2,
  "SliceTiming": [0, 0.785, 0.1, 0.8825, 0.1975, 0.98, 0.295, 1.0775, 0.3925, 1.1775, 0.49, 1.275, 0.5875, 1.3725, 0.6875, 0, 0.785, 0.1, 0.8825, 0.1975, 0.98, 0.295, 1.0775, 0.3925, 1.1775, 0.49, 1.275, 0.5875, 1.3725, 0.6875, 0, 0.785, 0.1, 0.8825, 0.1975, 0.98, 0.295, 1.0775, 0.3925, 1.1775, 0.49, 1.275, 0.5875, 1.3725, 0.6875, 0, 0.785, 0.1, 0.8825, 0.1975, 0.98, 0.295, 1.0775, 0.3925, 1.1775, 0.49, 1.275, 0.5875, 1.3725, 0.6875],
  "SoftwareVersions": "syngo MR E11",
  "SpacingBetweenSlices": 2,
  "StationName": "MRC35049",
  "TaskName": "mariostars",
  "TotalReadoutTime": 0.0576811,
  "TxRefAmp": 315.048,
  "WipMemBlock": "ea9c91d9-f8f3-42ca-bac4-07f464332cf0||Sequence: R016 ve11c/master r/e634e98; Dec 19 2017 11:00:25 by eja",
  "dcmmeta_affine": [
    [-1.9912755489349365, -0.15112271904945374, 0.1094701886177063, 111.00481414794922],
    [-0.17859235405921936, 1.8835169076919556, -0.648435652256012, -52.67473602294922],
    [0.054097793996334076, 0.6553822755813599, 1.888795256614685, -56.83750915527344],
    [0.0, 0.0, 0.0, 1.0]
],
  "dcmmeta_reorient_transform": [
    [0.0, -1.0, 0.0, 103.0],
    [1.0, 0.0, 0.0, 0.0],
    [0.0, 0.0, 1.0, 0.0],
    [0.0, 0.0, 0.0, 1.0]
],
  "dcmmeta_shape": [104, 104, 60, 466],
  "dcmmeta_slice_dim": 2,
  "dcmmeta_version": 0.6,
  "global": {
    "const": {
      "AcquisitionMatrix": [104, 0, 0, 104],
      "AngioFlag": "N",
      "BitsAllocated": 16,
      "BitsStored": 16,
      "BodyPartExamined": "BRAIN",
      "Columns": 832,
      "EchoNumbers": 1,
      "EchoTime": 37.0,
      "EchoTrainLength": 104,
      "FlipAngle": 52.0,
      "HighBit": 15,
      "ImageOrientationPatient": [0.99563776069229, 0.08929617354413, 0.0270488978339, -0.0755613597693, 0.94175846209717, -0.3276911350314],
      "ImagePositionPatient": [-765.25479607604, -891.93528095024, 229.53441153878],
      "ImageType": [
        "ORIGINAL",
        "PRIMARY",
        "M",
        "MB",
        "ND",
        "MOSAIC"
],
      "ImagedNucleus": "1H",
      "ImagingFrequency": 123.258824,
      "InPlanePhaseEncodingDirection": "COL",
      "MRAcquisitionType": "2D",
      "MagneticFieldStrength": 3.0,
      "Manufacturer": "SIEMENS",
      "ManufacturerModelName": "Prisma_fit",
      "Modality": "MR",
      "NumberOfAverages": 1.0,
      "NumberOfPhaseEncodingSteps": 104,
      "PercentPhaseFieldOfView": 100.0,
      "PercentSampling": 100.0,
      "PerformedProcedureStepStartTime": "170655.534000",
      "PhotometricInterpretation": "MONOCHROME2",
      "PixelBandwidth": 2290.0,
      "PixelRepresentation": 0,
      "PixelSpacing": [2.0, 2.0],
      "ProtocolName": "func_task-mariostars_run-04",
      "RepetitionTime": 1490.0,
      "Rows": 832,
      "SAR": 0.06433646581157,
      "SamplesPerPixel": 1,
      "ScanOptions": "FS",
      "ScanningSequence": "EP",
      "SequenceName": "epfid2d1_104",
      "SequenceVariant": [
        "SK",
        "SS"
],
      "SeriesDescription": "func_task-mariostars_run-04",
      "SeriesNumber": 20,
      "SeriesTime": "181312.559000",
      "SliceLocation": -30.523263313714,
      "SliceThickness": 2.0,
      "SmallestImagePixelValue": 0,
      "SoftwareVersions": "syngo MR E11",
      "SpacingBetweenSlices": 1.9999999847973,
      "SpecificCharacterSet": "ISO_IR 100",
      "StudyID": "1",
      "StudyTime": "170655.400000",
      "TransmitCoilName": "Body",
      "VariableFlipAngleFlag": "N",
      "WindowCenterWidthExplanation": "Algo1",
      "dBdt": 0.0},
    "slices": {}
  },
  "time": {
    "samples": {
      "AcquisitionNumber": [1, 2, 3, 4, 5, 6, 7, 8, 9, 10, 11, 12, 13, 14, 15, 16, 17, 18, 19, 20, 21, 22, 23, 24, 25, 26, 27, 28, 29, 30, 31, 32, 33, 34, 35, 36, 37, 38, 39, 40, 41, 42, 43, 44, 45, 46, 47, 48, 49, 50, 51, 52, 53, 54, 55, 56, 57, 58, 59, 60, 61, 62, 63, 64, 65, 66, 67, 68, 69, 70, 71, 72, 73, 74, 75, 76, 77, 78, 79, 80, 81, 82, 83, 84, 85, 86, 87, 88, 89, 90, 91, 92, 93, 94, 95, 96, 97, 98, 99, 100, 101, 102, 103, 104, 105, 106, 107, 108, 109, 110, 111, 112, 113, 114, 115, 116, 117, 118, 119, 120, 121, 122, 123, 124, 125, 126, 127, 128, 129, 130, 131, 132, 133, 134, 135, 136, 137, 138, 139, 140, 141, 142, 143, 144, 145, 146, 147, 148, 149, 150, 151, 152, 153, 154, 155, 156, 157, 158, 159, 160, 161, 162, 163, 164, 165, 166, 167, 168, 169, 170, 171, 172, 173, 174, 175, 176, 177, 178, 179, 180, 181, 182, 183, 184, 185, 186, 187, 188, 189, 190, 191, 192, 193, 194, 195, 196, 197, 198, 199, 200, 201, 202, 203, 204, 205, 206, 207, 208, 209, 210, 211, 212, 213, 214, 215, 216, 217, 218, 219, 220, 221, 222, 223, 224, 225, 226, 227, 228, 229, 230, 231, 232, 233, 234, 235, 236, 237, 238, 239, 240, 241, 242, 243, 244, 245, 246, 247, 248, 249, 250, 251, 252, 253, 254, 255, 256, 257, 258, 259, 260, 261, 262, 263, 264, 265, 266, 267, 268, 269, 270, 271, 272, 273, 274, 275, 276, 277, 278, 279, 280, 281, 282, 283, 284, 285, 286, 287, 288, 289, 290, 291, 292, 293, 294, 295, 296, 297, 298, 299, 300, 301, 302, 303, 304, 305, 306, 307, 308, 309, 310, 311, 312, 313, 314, 315, 316, 317, 318, 319, 320, 321, 322, 323, 324, 325, 326, 327, 328, 329, 330, 331, 332, 333, 334, 335, 336, 337, 338, 339, 340, 341, 342, 343, 344, 345, 346, 347, 348, 349, 350, 351, 352, 353, 354, 355, 356, 357, 358, 359, 360, 361, 362, 363, 364, 365, 366, 367, 368, 369, 370, 371, 372, 373, 374, 375, 376, 377, 378, 379, 380, 381, 382, 383, 384, 385, 386, 387, 388, 389, 390, 391, 392, 393, 394, 395, 396, 397, 398, 399, 400, 401, 402, 403, 404, 405, 406, 407, 408, 409, 410, 411, 412, 413, 414, 415, 416, 417, 418, 419, 420, 421, 422, 423, 424, 425, 426, 427, 428, 429, 430, 431, 432, 433, 434, 435, 436, 437, 438, 439, 440, 441, 442, 443, 444, 445, 446, 447, 448, 449, 450, 451, 452, 453, 454, 455, 456, 457, 458, 459, 460, 461, 462, 463, 464, 465, 466],
      "AcquisitionTime": ["181212.422500", "181213.912500", "181215.402500", "181216.892500", "181218.382500", "181219.872500", "181221.362500", "181222.852500", "181224.342500", "181225.832500", "181227.322500", "181228.812500", "181230.302500", "181231.792500", "181233.282500", "181234.772500", "181236.262500", "181237.752500", "181239.242500", "181240.732500", "181242.222500", "181243.712500", "181245.202500", "181246.692500", "181248.182500", "181249.672500", "181251.162500", "181252.652500", "181254.142500", "181255.632500", "181257.122500", "181258.612500", "181300.102500", "181301.592500", "181303.082500", "181304.572500", "181306.062500", "181307.552500", "181309.042500", "181310.532500", "181312.022500", "181313.512500", "181315.002500", "181316.492500", "181317.982500", "181319.472500", "181320.962500", "181322.452500", "181323.942500", "181325.432500", "181326.922500", "181328.412500", "181329.902500", "181331.392500", "181332.882500", "181334.372500", "181335.862500", "181337.352500", "181338.842500", "181340.332500", "181341.822500", "181343.312500", "181344.802500", "181346.292500", "181347.782500", "181349.272500", "181350.762500", "181352.252500", "181353.742500", "181355.232500", "181356.722500", "181358.212500", "181359.702500", "181401.192500", "181402.682500", "181404.172500", "181405.662500", "181407.152500", "181408.642500", "181410.132500", "181411.622500", "181413.112500", "181414.602500", "181416.092500", "181417.582500", "181419.072500", "181420.562500", "181422.052500", "181423.542500", "181425.032500", "181426.522500", "181428.012500", "181429.502500", "181430.992500", "181432.482500", "181433.972500", "181435.462500", "181436.952500", "181438.442500", "181439.932500", "181441.422500", "181442.912500", "181444.402500", "181445.892500", "181447.382500", "181448.872500", "181450.362500", "181451.852500", "181453.342500", "181454.832500", "181456.322500", "181457.812500", "181459.302500", "181500.792500", "181502.282500", "181503.772500", "181505.262500", "181506.752500", "181508.242500", "181509.732500", "181511.222500", "181512.712500", "181514.202500", "181515.692500", "181517.182500", "181518.672500", "181520.162500", "181521.652500", "181523.142500", "181524.632500", "181526.122500", "181527.612500", "181529.102500", "181530.592500", "181532.082500", "181533.572500", "181535.062500", "181536.552500", "181538.042500", "181539.532500", "181541.022500", "181542.512500", "181544.002500", "181545.492500", "181546.982500", "181548.472500", "181549.962500", "181551.452500", "181552.942500", "181554.432500", "181555.922500", "181557.412500", "181558.902500", "181600.392500", "181601.882500", "181603.372500", "181604.862500", "181606.352500", "181607.842500", "181609.332500", "181610.822500", "181612.312500", "181613.802500", "181615.292500", "181616.782500", "181618.272500", "181619.762500", "181621.252500", "181622.742500", "181624.232500", "181625.722500", "181627.212500", "181628.702500", "181630.192500", "181631.682500", "181633.172500", "181634.662500", "181636.152500", "181637.642500", "181639.132500", "181640.622500", "181642.112500", "181643.602500", "181645.092500", "181646.582500", "181648.072500", "181649.562500", "181651.052500", "181652.542500", "181654.032500", "181655.522500", "181657.012500", "181658.502500", "181659.992500", "181701.482500", "181702.972500", "181704.462500", "181705.952500", "181707.442500", "181708.932500", "181710.422500", "181711.912500", "181713.402500", "181714.892500", "181716.382500", "181717.872500", "181719.362500", "181720.852500", "181722.342500", "181723.832500", "181725.322500", "181726.812500", "181728.302500", "181729.792500", "181731.282500", "181732.772500", "181734.262500", "181735.752500", "181737.242500", "181738.732500", "181740.222500", "181741.712500", "181743.202500", "181744.692500", "181746.182500", "181747.672500", "181749.162500", "181750.652500", "181752.142500", "181753.632500", "181755.122500", "181756.612500", "181758.102500", "181759.592500", "181801.082500", "181802.572500", "181804.062500", "181805.552500", "181807.042500", "181808.532500", "181810.022500", "181811.512500", "181813.002500", "181814.492500", "181815.982500", "181817.472500", "181818.962500", "181820.452500", "181821.942500", "181823.432500", "181824.922500", "181826.412500", "181827.902500", "181829.392500", "181830.882500", "181832.372500", "181833.862500", "181835.352500", "181836.842500", "181838.332500", "181839.822500", "181841.312500", "181842.802500", "181844.292500", "181845.782500", "181847.272500", "181848.762500", "181850.252500", "181851.742500", "181853.232500", "181854.722500", "181856.212500", "181857.702500", "181859.192500", "181900.682500", "181902.172500", "181903.662500", "181905.152500", "181906.642500", "181908.132500", "181909.622500", "181911.112500", "181912.602500", "181914.092500", "181915.582500", "181917.072500", "181918.562500", "181920.052500", "181921.542500", "181923.032500", "181924.522500", "181926.012500", "181927.502500", "181928.992500", "181930.482500", "181931.972500", "181933.462500", "181934.952500", "181936.442500", "181937.932500", "181939.422500", "181940.912500", "181942.402500", "181943.892500", "181945.382500", "181946.872500", "181948.362500", "181949.852500", "181951.342500", "181952.832500", "181954.322500", "181955.812500", "181957.302500", "181958.792500", "182000.282500", "182001.772500", "182003.262500", "182004.752500", "182006.242500", "182007.732500", "182009.222500", "182010.712500", "182012.202500", "182013.692500", "182015.182500", "182016.672500", "182018.162500", "182019.652500", "182021.142500", "182022.632500", "182024.122500", "182025.612500", "182027.102500", "182028.592500", "182030.082500", "182031.572500", "182033.062500", "182034.552500", "182036.042500", "182037.532500", "182039.022500", "182040.512500", "182042.002500", "182043.492500", "182044.982500", "182046.472500", "182047.962500", "182049.452500", "182050.942500", "182052.432500", "182053.922500", "182055.412500", "182056.902500", "182058.392500", "182059.882500", "182101.372500", "182102.862500", "182104.352500", "182105.842500", "182107.332500", "182108.822500", "182110.312500", "182111.802500", "182113.292500", "182114.782500", "182116.272500", "182117.762500", "182119.252500", "182120.742500", "182122.232500", "182123.722500", "182125.212500", "182126.702500", "182128.192500", "182129.682500", "182131.172500", "182132.662500", "182134.152500", "182135.642500", "182137.132500", "182138.622500", "182140.112500", "182141.602500", "182143.092500", "182144.582500", "182146.072500", "182147.562500", "182149.052500", "182150.542500", "182152.032500", "182153.522500", "182155.012500", "182156.502500", "182157.992500", "182159.482500", "182200.972500", "182202.462500", "182203.952500", "182205.442500", "182206.932500", "182208.422500", "182209.912500", "182211.402500", "182212.892500", "182214.382500", "182215.872500", "182217.362500", "182218.852500", "182220.342500", "182221.832500", "182223.322500", "182224.812500", "182226.302500", "182227.792500", "182229.282500", "182230.772500", "182232.262500", "182233.752500", "182235.242500", "182236.732500", "182238.222500", "182239.712500", "182241.202500", "182242.692500", "182244.182500", "182245.672500", "182247.162500", "182248.652500", "182250.142500", "182251.632500", "182253.122500", "182254.612500", "182256.102500", "182257.592500", "182259.082500", "182300.572500", "182302.062500", "182303.552500", "182305.042500", "182306.532500", "182308.022500", "182309.512500", "182311.002500", "182312.492500", "182313.982500", "182315.472500", "182316.962500", "182318.452500", "182319.942500", "182321.432500", "182322.922500", "182324.412500", "182325.902500", "182327.392500", "182328.882500", "182330.372500", "182331.862500", "182333.352500", "182334.842500", "182336.332500", "182337.822500", "182339.312500", "182340.802500", "182342.292500", "182343.782500", "182345.272500"],
      "ContentTime": ["181312.562000", "181312.566000", "181312.569000", "181312.572000", "181312.576000", "181312.579000", "181332.502000", "181332.506000", "181332.509000", "181332.513000", "181332.516000", "181332.519000", "181332.522000", "181332.526000", "181332.529000", "181332.533000", "181332.536000", "181332.546000", "181332.550000", "181332.553000", "181332.556000", "181332.560000", "181332.563000", "181332.567000", "181332.570000", "181332.573000", "181352.501000", "181352.505000", "181352.508000", "181352.512000", "181352.515000", "181352.518000", "181352.522000", "181352.525000", "181352.528000", "181352.532000", "181352.535000", "181352.538000", "181352.542000", "181352.548000", "181352.552000", "181352.555000", "181352.558000", "181352.562000", "181352.565000", "181352.568000", "181412.501000", "181412.505000", "181412.508000", "181412.511000", "181412.515000", "181412.518000", "181412.527000", "181412.531000", "181412.534000", "181412.537000", "181412.541000", "181412.544000", "181412.547000", "181412.551000", "181412.554000", "181412.557000", "181412.561000", "181412.564000", "181412.567000", "181412.571000", "181412.574000", "181432.502000", "181432.506000", "181432.509000", "181432.513000", "181432.516000", "181432.519000", "181432.523000", "181432.526000", "181432.529000", "181432.533000", "181432.536000", "181432.539000", "181432.543000", "181432.546000", "181432.549000", "181432.553000", "181432.556000", "181432.563000", "181432.566000", "181432.570000", "181452.502000", "181452.506000", "181452.509000", "181452.512000", "181452.516000", "181452.519000", "181452.523000", "181452.526000", "181452.529000", "181452.533000", "181452.536000", "181452.539000", "181452.547000", "181452.551000", "181452.554000", "181452.557000", "181452.561000", "181452.564000", "181452.567000", "181452.571000", "181532.502000", "181532.506000", "181532.509000", "181532.513000", "181532.516000", "181532.519000", "181532.535000", "181532.538000", "181532.549000", "181532.552000", "181532.555000", "181532.559000", "181532.562000", "181532.565000", "181532.569000", "181532.572000", "181532.575000", "181532.579000", "181532.582000", "181532.585000", "181532.589000", "181532.592000", "181532.596000", "181532.599000", "181532.602000", "181532.605000", "181532.609000", "181612.501000", "181612.505000", "181612.509000", "181612.513000", "181612.516000", "181612.519000", "181612.523000", "181612.526000", "181612.529000", "181612.533000", "181612.536000", "181612.540000", "181612.543000", "181612.546000", "181612.550000", "181612.553000", "181612.556000", "181612.560000", "181612.563000", "181612.567000", "181612.570000", "181612.574000", "181612.577000", "181612.580000", "181612.584000", "181612.587000", "181652.502000", "181652.506000", "181652.509000", "181652.513000", "181652.516000", "181652.519000", "181652.523000", "181652.526000", "181652.530000", "181652.533000", "181652.536000", "181652.540000", "181652.543000", "181652.546000", "181652.550000", "181652.553000", "181652.557000", "181652.560000", "181652.563000", "181652.567000", "181652.570000", "181652.573000", "181652.577000", "181652.580000", "181652.584000", "181652.587000", "181652.590000", "181732.502000", "181732.506000", "181732.509000", "181732.513000", "181732.516000", "181732.520000", "181732.523000", "181732.527000", "181732.530000", "181732.533000", "181732.537000", "181732.540000", "181732.544000", "181732.547000", "181732.551000", "181732.554000", "181732.558000", "181732.561000", "181732.564000", "181732.568000", "181732.571000", "181732.584000", "181732.587000", "181732.591000", "181732.594000", "181732.597000", "181732.601000", "181812.501000", "181812.505000", "181812.508000", "181812.512000", "181812.515000", "181812.519000", "181812.522000", "181812.526000", "181812.529000", "181812.533000", "181812.536000", "181812.539000", "181812.543000", "181812.546000", "181812.550000", "181812.553000", "181812.556000", "181812.560000", "181812.563000", "181812.566000", "181812.570000", "181812.573000", "181812.577000", "181812.580000", "181812.583000", "181812.587000", "181812.590000", "181852.501000", "181852.505000", "181852.508000", "181852.512000", "181852.515000", "181852.518000", "181852.522000", "181852.525000", "181852.529000", "181852.532000", "181852.535000", "181852.539000", "181852.542000", "181852.546000", "181852.549000", "181852.552000", "181852.556000", "181852.559000", "181852.562000", "181852.566000", "181852.569000", "181852.573000", "181852.576000", "181852.579000", "181852.583000", "181852.586000", "181852.589000", "181932.502000", "181932.506000", "181932.509000", "181932.513000", "181932.516000", "181932.520000", "181932.523000", "181932.526000", "181932.530000", "181932.533000", "181932.536000", "181932.540000", "181932.543000", "181932.547000", "181932.550000", "181932.553000", "181932.557000", "181932.560000", "181932.563000", "181932.567000", "181932.570000", "181932.574000", "181932.582000", "181932.585000", "181932.588000", "181932.592000", "181932.595000", "182012.502000", "182012.506000", "182012.509000", "182012.514000", "182012.518000", "182012.521000", "182012.524000", "182012.528000", "182012.548000", "182012.551000", "182012.555000", "182012.558000", "182012.570000", "182012.583000", "182012.586000", "182012.590000", "182012.593000", "182012.596000", "182012.600000", "182012.603000", "182012.606000", "182012.610000", "182012.613000", "182012.616000", "182012.620000", "182012.623000", "182052.501000", "182052.505000", "182052.508000", "182052.512000", "182052.515000", "182052.518000", "182052.522000", "182052.525000", "182052.529000", "182052.532000", "182052.535000", "182052.539000", "182052.542000", "182052.546000", "182052.549000", "182052.552000", "182052.556000", "182052.559000", "182052.562000", "182052.566000", "182052.569000", "182052.573000", "182052.576000", "182052.579000", "182052.583000", "182052.586000", "182052.589000", "182132.502000", "182132.506000", "182132.509000", "182132.513000", "182132.516000", "182132.520000", "182132.523000", "182132.526000", "182132.530000", "182132.533000", "182132.536000", "182132.540000", "182132.543000", "182132.547000", "182132.550000", "182132.553000", "182132.557000", "182132.560000", "182132.564000", "182132.567000", "182132.572000", "182132.575000", "182132.579000", "182132.582000", "182132.586000", "182132.589000", "182132.592000", "182212.502000", "182212.506000", "182212.509000", "182212.513000", "182212.516000", "182212.520000", "182212.523000", "182212.526000", "182212.530000", "182212.533000", "182212.536000", "182212.540000", "182212.543000", "182212.546000", "182212.550000", "182212.553000", "182212.557000", "182212.560000", "182212.563000", "182212.567000", "182212.582000", "182212.586000", "182212.589000", "182212.592000", "182212.596000", "182212.599000", "182212.602000", "182252.501000", "182252.505000", "182252.508000", "182252.512000", "182252.515000", "182252.518000", "182252.522000", "182252.526000", "182252.529000", "182252.533000", "182252.536000", "182252.539000", "182252.543000", "182252.546000", "182252.549000", "182252.553000", "182252.556000", "182252.560000", "182252.563000", "182252.566000", "182252.570000", "182252.573000", "182252.576000", "182252.580000", "182252.583000", "182252.586000", "182252.590000", "182332.501000", "182332.505000", "182332.508000", "182332.512000", "182332.515000", "182332.518000", "182332.522000", "182332.525000", "182332.529000", "182332.532000", "182332.535000", "182332.539000", "182332.542000", "182332.545000", "182332.549000", "182332.552000", "182332.555000", "182332.559000", "182332.562000", "182332.566000", "182332.569000", "182332.572000", "182332.576000", "182332.579000", "182332.582000", "182332.586000", "182332.589000", "182347.795000", "182347.799000", "182347.802000", "182347.805000", "182347.809000", "182347.812000", "182347.815000", "182347.819000", "182347.822000", "182347.825000"],
