{
  "AcquisitionMatrixPE": 104,
  "AcquisitionNumber": 1,
  "AcquisitionTime": "17:57:55.647500",
  "BandwidthPerPixelPhaseEncode": 17.17,
  "BaseResolution": 104,
  "BodyPartExamined": "BRAIN",
  "CoilCombinationMethod": "Sum of Squares",
  "ConsistencyInfo": "N4_VE11C_LATEST_20160120",
  "ConversionSoftware": "dcm2niix",
  "ConversionSoftwareVersion": "v1.0.20211006",
  "DerivedVendorReportedEchoSpacing": 0.000560011,
  "DeviceSerialNumber": "167006",
  "DwellTime": 2.1e-06,
  "EchoTime": 0.037,
  "EchoTrainLength": 104,
  "EffectiveEchoSpacing": 0.000560011,
  "FlipAngle": 52,
  "HeudiconvVersion": "0.11.3.post9+gc939bf8",
  "ImageComments": "Unaliased MB4/PE3/LB",
  "ImageOrientationPatientDICOM": [0.995638, 0.0892962, 0.0270489, -0.0755614, 0.941758, -0.327691],
  "ImageOrientationText": "Tra>Cor(-18.9)>Sag(3.1)",
  "ImageType": [
    "ORIGINAL",
    "PRIMARY",
    "M",
    "MB",
    "ND",
    "MOSAIC"
],
  "ImagingFrequency": 123.259,
  "InPlanePhaseEncodingDirectionDICOM": "COL",
  "InstitutionAddress": "Chemin Queen-Mary 4565,Montreal,District,CA,H3W 1W5",
  "InstitutionName": "IUGM",
  "InstitutionalDepartmentName": "Department",
  "MRAcquisitionType": "2D",
  "MagneticFieldStrength": 3,
  "Manufacturer": "Siemens",
  "ManufacturersModelName": "Prisma_fit",
  "MatrixCoilMode": "SENSE",
  "Modality": "MR",
  "MultibandAccelerationFactor": 4,
  "PartialFourier": 1,
  "PatientPosition": "HFS",
  "PercentPhaseFOV": 100,
  "PercentSampling": 100,
  "PhaseEncodingDirection": "j",
  "PhaseEncodingSteps": 104,
  "PhaseResolution": 1,
  "PixelBandwidth": 2290,
  "ProcedureStepDescription": "games^mariostars",
  "ProtocolName": "func_task-mariostars_run-03",
  "PulseSequenceDetails": "%CustomerSeq%\\cmrr_mbep2d_bold",
  "ReceiveCoilActiveElements": "HC1-7;NC1,2",
  "ReceiveCoilName": "HeadNeck_64",
  "ReconMatrixPE": 104,
  "RepetitionTime": 1.49,
  "SAR": 0.0643365,
  "ScanOptions": "FS",
  "ScanningSequence": "EP",
  "SequenceName": "epfid2d1_104",
  "SequenceVariant": "SK\\SS",
  "SeriesDescription": "func_task-mariostars_run-03",
  "SeriesNumber": 17,
  "ShimSetting": [625, -7188, -8794, 674, 89, 21, -18, -19],
  "SliceThickness": 2,
  "SliceTiming": [0, 0.785, 0.1, 0.8825, 0.1975, 0.98, 0.295, 1.08, 0.3925, 1.1775, 0.49, 1.275, 0.59, 1.3725, 0.6875, 0, 0.785, 0.1, 0.8825, 0.1975, 0.98, 0.295, 1.08, 0.3925, 1.1775, 0.49, 1.275, 0.59, 1.3725, 0.6875, 0, 0.785, 0.1, 0.8825, 0.1975, 0.98, 0.295, 1.08, 0.3925, 1.1775, 0.49, 1.275, 0.59, 1.3725, 0.6875, 0, 0.785, 0.1, 0.8825, 0.1975, 0.98, 0.295, 1.08, 0.3925, 1.1775, 0.49, 1.275, 0.59, 1.3725, 0.6875],
  "SoftwareVersions": "syngo MR E11",
  "SpacingBetweenSlices": 2,
  "StationName": "MRC35049",
  "TaskName": "mariostars",
  "TotalReadoutTime": 0.0576811,
  "TxRefAmp": 315.048,
  "WipMemBlock": "5f2fa2f8-2446-4bc5-a28d-fabad2214d55||Sequence: R016 ve11c/master r/e634e98; Dec 19 2017 11:00:25 by eja",
  "dcmmeta_affine": [
    [-1.9912755489349365, -0.15112271904945374, 0.1094701886177063, 111.00481414794922],
    [-0.17859235405921936, 1.8835169076919556, -0.648435652256012, -52.67473602294922],
    [0.054097793996334076, 0.6553822755813599, 1.888795256614685, -56.83750915527344],
    [0.0, 0.0, 0.0, 1.0]
],
  "dcmmeta_reorient_transform": [
    [0.0, -1.0, 0.0, 103.0],
    [1.0, 0.0, 0.0, 0.0],
    [0.0, 0.0, 1.0, 0.0],
    [0.0, 0.0, 0.0, 1.0]
],
  "dcmmeta_shape": [104, 104, 60, 432],
  "dcmmeta_slice_dim": 2,
  "dcmmeta_version": 0.6,
  "global": {
    "const": {
      "AcquisitionMatrix": [104, 0, 0, 104],
      "AngioFlag": "N",
      "BitsAllocated": 16,
      "BitsStored": 16,
      "BodyPartExamined": "BRAIN",
      "Columns": 832,
      "EchoNumbers": 1,
      "EchoTime": 37.0,
      "EchoTrainLength": 104,
      "FlipAngle": 52.0,
      "HighBit": 15,
      "ImageOrientationPatient": [0.99563776069229, 0.08929617354413, 0.0270488978339, -0.0755613597693, 0.94175846209717, -0.3276911350314],
      "ImagePositionPatient": [-765.25479607604, -891.93528095024, 229.53441153878],
      "ImageType": [
        "ORIGINAL",
        "PRIMARY",
        "M",
        "MB",
        "ND",
        "MOSAIC"
],
      "ImagedNucleus": "1H",
      "ImagingFrequency": 123.258822,
      "InPlanePhaseEncodingDirection": "COL",
      "MRAcquisitionType": "2D",
      "MagneticFieldStrength": 3.0,
      "Manufacturer": "SIEMENS",
      "ManufacturerModelName": "Prisma_fit",
      "Modality": "MR",
      "NumberOfAverages": 1.0,
      "NumberOfPhaseEncodingSteps": 104,
      "PercentPhaseFieldOfView": 100.0,
      "PercentSampling": 100.0,
      "PerformedProcedureStepStartTime": "170655.534000",
      "PhotometricInterpretation": "MONOCHROME2",
      "PixelBandwidth": 2290.0,
      "PixelRepresentation": 0,
      "PixelSpacing": [2.0, 2.0],
      "ProtocolName": "func_task-mariostars_run-03",
      "RepetitionTime": 1490.0,
      "Rows": 832,
      "SAR": 0.06433646581157,
      "SamplesPerPixel": 1,
      "ScanOptions": "FS",
      "ScanningSequence": "EP",
      "SequenceName": "epfid2d1_104",
      "SequenceVariant": [
        "SK",
        "SS"
],
      "SeriesDescription": "func_task-mariostars_run-03",
      "SeriesNumber": 17,
      "SeriesTime": "175913.487000",
      "SliceLocation": -30.523263313714,
      "SliceThickness": 2.0,
      "SmallestImagePixelValue": 0,
      "SoftwareVersions": "syngo MR E11",
      "SpacingBetweenSlices": 1.9999999847973,
      "SpecificCharacterSet": "ISO_IR 100",
      "StudyID": "1",
      "StudyTime": "170655.400000",
      "TransmitCoilName": "Body",
      "VariableFlipAngleFlag": "N",
      "WindowCenterWidthExplanation": "Algo1",
      "dBdt": 0.0},
    "slices": {}
  },
  "time": {
    "samples": {
      "AcquisitionNumber": [1, 2, 3, 4, 5, 6, 7, 8, 9, 10, 11, 12, 13, 14, 15, 16, 17, 18, 19, 20, 21, 22, 23, 24, 25, 26, 27, 28, 29, 30, 31, 32, 33, 34, 35, 36, 37, 38, 39, 40, 41, 42, 43, 44, 45, 46, 47, 48, 49, 50, 51, 52, 53, 54, 55, 56, 57, 58, 59, 60, 61, 62, 63, 64, 65, 66, 67, 68, 69, 70, 71, 72, 73, 74, 75, 76, 77, 78, 79, 80, 81, 82, 83, 84, 85, 86, 87, 88, 89, 90, 91, 92, 93, 94, 95, 96, 97, 98, 99, 100, 101, 102, 103, 104, 105, 106, 107, 108, 109, 110, 111, 112, 113, 114, 115, 116, 117, 118, 119, 120, 121, 122, 123, 124, 125, 126, 127, 128, 129, 130, 131, 132, 133, 134, 135, 136, 137, 138, 139, 140, 141, 142, 143, 144, 145, 146, 147, 148, 149, 150, 151, 152, 153, 154, 155, 156, 157, 158, 159, 160, 161, 162, 163, 164, 165, 166, 167, 168, 169, 170, 171, 172, 173, 174, 175, 176, 177, 178, 179, 180, 181, 182, 183, 184, 185, 186, 187, 188, 189, 190, 191, 192, 193, 194, 195, 196, 197, 198, 199, 200, 201, 202, 203, 204, 205, 206, 207, 208, 209, 210, 211, 212, 213, 214, 215, 216, 217, 218, 219, 220, 221, 222, 223, 224, 225, 226, 227, 228, 229, 230, 231, 232, 233, 234, 235, 236, 237, 238, 239, 240, 241, 242, 243, 244, 245, 246, 247, 248, 249, 250, 251, 252, 253, 254, 255, 256, 257, 258, 259, 260, 261, 262, 263, 264, 265, 266, 267, 268, 269, 270, 271, 272, 273, 274, 275, 276, 277, 278, 279, 280, 281, 282, 283, 284, 285, 286, 287, 288, 289, 290, 291, 292, 293, 294, 295, 296, 297, 298, 299, 300, 301, 302, 303, 304, 305, 306, 307, 308, 309, 310, 311, 312, 313, 314, 315, 316, 317, 318, 319, 320, 321, 322, 323, 324, 325, 326, 327, 328, 329, 330, 331, 332, 333, 334, 335, 336, 337, 338, 339, 340, 341, 342, 343, 344, 345, 346, 347, 348, 349, 350, 351, 352, 353, 354, 355, 356, 357, 358, 359, 360, 361, 362, 363, 364, 365, 366, 367, 368, 369, 370, 371, 372, 373, 374, 375, 376, 377, 378, 379, 380, 381, 382, 383, 384, 385, 386, 387, 388, 389, 390, 391, 392, 393, 394, 395, 396, 397, 398, 399, 400, 401, 402, 403, 404, 405, 406, 407, 408, 409, 410, 411, 412, 413, 414, 415, 416, 417, 418, 419, 420, 421, 422, 423, 424, 425, 426, 427, 428, 429, 430, 431, 432],
      "AcquisitionTime": ["175755.647500", "175757.137500", "175758.627500", "175800.117500", "175801.607500", "175803.097500", "175804.587500", "175806.077500", "175807.567500", "175809.057500", "175810.547500", "175812.037500", "175813.527500", "175815.017500", "175816.507500", "175817.997500", "175819.487500", "175820.977500", "175822.467500", "175823.957500", "175825.447500", "175826.937500", "175828.427500", "175829.917500", "175831.407500", "175832.897500", "175834.387500", "175835.877500", "175837.367500", "175838.857500", "175840.347500", "175841.837500", "175843.327500", "175844.817500", "175846.307500", "175847.797500", "175849.287500", "175850.777500", "175852.267500", "175853.757500", "175855.247500", "175856.737500", "175858.227500", "175859.717500", "175901.207500", "175902.697500", "175904.187500", "175905.677500", "175907.167500", "175908.657500", "175910.147500", "175911.637500", "175913.127500", "175914.617500", "175916.107500", "175917.597500", "175919.087500", "175920.577500", "175922.067500", "175923.557500", "175925.047500", "175926.537500", "175928.027500", "175929.517500", "175931.007500", "175932.497500", "175933.987500", "175935.477500", "175936.967500", "175938.457500", "175939.947500", "175941.437500", "175942.927500", "175944.417500", "175945.907500", "175947.397500", "175948.887500", "175950.377500", "175951.867500", "175953.357500", "175954.847500", "175956.337500", "175957.827500", "175959.317500", "180000.807500", "180002.297500", "180003.787500", "180005.277500", "180006.767500", "180008.257500", "180009.747500", "180011.237500", "180012.727500", "180014.217500", "180015.707500", "180017.197500", "180018.687500", "180020.177500", "180021.667500", "180023.157500", "180024.647500", "180026.137500", "180027.627500", "180029.117500", "180030.607500", "180032.097500", "180033.587500", "180035.077500", "180036.567500", "180038.057500", "180039.547500", "180041.037500", "180042.527500", "180044.017500", "180045.507500", "180046.997500", "180048.487500", "180049.977500", "180051.467500", "180052.957500", "180054.447500", "180055.937500", "180057.427500", "180058.917500", "180100.407500", "180101.897500", "180103.387500", "180104.877500", "180106.367500", "180107.857500", "180109.347500", "180110.837500", "180112.327500", "180113.817500", "180115.307500", "180116.797500", "180118.287500", "180119.777500", "180121.267500", "180122.757500", "180124.247500", "180125.737500", "180127.227500", "180128.717500", "180130.207500", "180131.697500", "180133.187500", "180134.677500", "180136.167500", "180137.657500", "180139.147500", "180140.637500", "180142.127500", "180143.617500", "180145.107500", "180146.597500", "180148.087500", "180149.577500", "180151.067500", "180152.557500", "180154.047500", "180155.537500", "180157.027500", "180158.517500", "180200.007500", "180201.497500", "180202.987500", "180204.477500", "180205.967500", "180207.457500", "180208.947500", "180210.437500", "180211.927500", "180213.417500", "180214.907500", "180216.397500", "180217.887500", "180219.377500", "180220.867500", "180222.357500", "180223.847500", "180225.337500", "180226.827500", "180228.317500", "180229.807500", "180231.297500", "180232.787500", "180234.277500", "180235.767500", "180237.257500", "180238.747500", "180240.237500", "180241.727500", "180243.217500", "180244.707500", "180246.197500", "180247.687500", "180249.177500", "180250.667500", "180252.157500", "180253.647500", "180255.137500", "180256.627500", "180258.117500", "180259.607500", "180301.097500", "180302.587500", "180304.077500", "180305.567500", "180307.057500", "180308.547500", "180310.037500", "180311.527500", "180313.017500", "180314.507500", "180315.997500", "180317.487500", "180318.977500", "180320.467500", "180321.957500", "180323.447500", "180324.937500", "180326.427500", "180327.917500", "180329.407500", "180330.897500", "180332.387500", "180333.877500", "180335.367500", "180336.857500", "180338.347500", "180339.837500", "180341.327500", "180342.817500", "180344.307500", "180345.797500", "180347.287500", "180348.777500", "180350.267500", "180351.757500", "180353.247500", "180354.737500", "180356.227500", "180357.717500", "180359.207500", "180400.697500", "180402.187500", "180403.677500", "180405.167500", "180406.657500", "180408.147500", "180409.637500", "180411.127500", "180412.617500", "180414.107500", "180415.597500", "180417.087500", "180418.577500", "180420.067500", "180421.557500", "180423.047500", "180424.537500", "180426.027500", "180427.517500", "180429.007500", "180430.497500", "180431.987500", "180433.477500", "180434.967500", "180436.457500", "180437.947500", "180439.437500", "180440.927500", "180442.417500", "180443.907500", "180445.397500", "180446.887500", "180448.377500", "180449.867500", "180451.357500", "180452.847500", "180454.337500", "180455.827500", "180457.317500", "180458.807500", "180500.297500", "180501.787500", "180503.277500", "180504.767500", "180506.257500", "180507.747500", "180509.237500", "180510.727500", "180512.217500", "180513.707500", "180515.197500", "180516.687500", "180518.177500", "180519.667500", "180521.157500", "180522.647500", "180524.137500", "180525.627500", "180527.117500", "180528.607500", "180530.097500", "180531.587500", "180533.077500", "180534.567500", "180536.057500", "180537.547500", "180539.037500", "180540.527500", "180542.017500", "180543.507500", "180544.997500", "180546.487500", "180547.977500", "180549.467500", "180550.957500", "180552.447500", "180553.937500", "180555.427500", "180556.917500", "180558.407500", "180559.897500", "180601.387500", "180602.877500", "180604.367500", "180605.857500", "180607.347500", "180608.837500", "180610.327500", "180611.817500", "180613.307500", "180614.797500", "180616.287500", "180617.777500", "180619.267500", "180620.757500", "180622.247500", "180623.737500", "180625.227500", "180626.717500", "180628.207500", "180629.697500", "180631.187500", "180632.677500", "180634.167500", "180635.657500", "180637.147500", "180638.637500", "180640.127500", "180641.617500", "180643.107500", "180644.597500", "180646.087500", "180647.577500", "180649.067500", "180650.557500", "180652.047500", "180653.537500", "180655.027500", "180656.517500", "180658.007500", "180659.497500", "180700.987500", "180702.477500", "180703.967500", "180705.457500", "180706.947500", "180708.437500", "180709.927500", "180711.417500", "180712.907500", "180714.397500", "180715.887500", "180717.377500", "180718.867500", "180720.357500", "180721.847500", "180723.337500", "180724.827500", "180726.317500", "180727.807500", "180729.297500", "180730.787500", "180732.277500", "180733.767500", "180735.257500", "180736.747500", "180738.237500", "180739.727500", "180741.217500", "180742.707500", "180744.197500", "180745.687500", "180747.177500", "180748.667500", "180750.157500", "180751.647500", "180753.137500", "180754.627500", "180756.117500", "180757.607500", "180759.097500", "180800.587500", "180802.077500", "180803.567500", "180805.057500", "180806.547500", "180808.037500", "180809.527500", "180811.017500", "180812.507500", "180813.997500", "180815.487500", "180816.977500", "180818.467500", "180819.957500", "180821.447500", "180822.937500", "180824.427500", "180825.917500", "180827.407500", "180828.897500", "180830.387500", "180831.877500", "180833.367500", "180834.857500", "180836.347500", "180837.837500"],
      "ContentTime": ["175913.490000", "175913.494000", "175913.506000", "175913.509000", "175913.512000", "175913.516000", "175913.519000", "175913.522000", "175913.526000", "175913.529000", "175913.532000", "175913.535000", "175913.539000", "175913.542000", "175913.545000", "175913.549000", "175913.552000", "175913.555000", "175913.559000", "175913.562000", "175913.565000", "175913.569000", "175913.572000", "175913.575000", "175933.413000", "175933.417000", "175933.420000", "175933.423000", "175933.427000", "175933.430000", "175933.433000", "175933.437000", "175933.440000", "175933.444000", "175933.447000", "175933.451000", "175933.454000", "175933.457000", "175933.461000", "175933.464000", "175933.467000", "175933.471000", "175933.474000", "175933.477000", "175953.413000", "175953.417000", "175953.420000", "175953.424000", "175953.427000", "175953.430000", "175953.434000", "175953.437000", "175953.440000", "175953.444000", "175953.447000", "175953.450000", "175953.453000", "175953.457000", "175953.460000", "175953.463000", "175953.467000", "175953.470000", "175953.473000", "175953.477000", "180013.413000", "180013.430000", "180013.433000", "180013.436000", "180013.440000", "180013.443000", "180013.446000", "180013.450000", "180013.453000", "180013.456000", "180013.460000", "180013.463000", "180013.466000", "180013.470000", "180013.473000", "180013.476000", "180013.480000", "180013.483000", "180013.486000", "180013.490000", "180013.493000", "180033.414000", "180033.418000", "180033.429000", "180033.432000", "180033.436000", "180033.439000", "180033.442000", "180033.445000", "180033.449000", "180033.452000", "180033.456000", "180033.459000", "180033.462000", "180033.465000", "180033.469000", "180033.472000", "180033.475000", "180033.479000", "180033.482000", "180033.485000", "180113.414000", "180113.418000", "180113.421000", "180113.425000", "180113.428000", "180113.431000", "180113.435000", "180113.438000", "180113.442000", "180113.445000", "180113.448000", "180113.452000", "180113.455000", "180113.458000", "180113.462000", "180113.465000", "180113.468000", "180113.472000", "180113.475000", "180113.478000", "180113.482000", "180113.485000", "180113.488000", "180113.492000", "180113.495000", "180113.498000", "180113.502000", "180153.413000", "180153.417000", "180153.420000", "180153.424000", "180153.433000", "180153.437000", "180153.440000", "180153.444000", "180153.447000", "180153.450000", "180153.454000", "180153.457000", "180153.460000", "180153.464000", "180153.467000", "180153.471000", "180153.474000", "180153.478000", "180153.481000", "180153.484000", "180153.487000", "180153.491000", "180153.494000", "180153.498000", "180153.501000", "180153.504000", "180153.508000", "180233.413000", "180233.417000", "180233.420000", "180233.424000", "180233.427000", "180233.431000", "180233.434000", "180233.451000", "180233.455000", "180233.458000", "180233.461000", "180233.465000", "180233.468000", "180233.476000", "180233.479000", "180233.483000", "180233.486000", "180233.490000", "180233.493000", "180233.496000", "180233.500000", "180233.503000", "180233.506000", "180233.510000", "180233.513000", "180233.516000", "180233.520000", "180313.414000", "180313.418000", "180313.421000", "180313.424000", "180313.428000", "180313.431000", "180313.435000", "180313.438000", "180313.441000", "180313.445000", "180313.448000", "180313.451000", "180313.455000", "180313.458000", "180313.461000", "180313.465000", "180313.468000", "180313.472000", "180313.475000", "180313.478000", "180313.482000", "180313.485000", "180313.488000", "180313.492000", "180313.495000", "180313.498000", "180313.502000", "180353.414000", "180353.418000", "180353.421000", "180353.425000", "180353.428000", "180353.431000", "180353.435000", "180353.438000", "180353.441000", "180353.445000", "180353.448000", "180353.451000", "180353.455000", "180353.458000", "180353.462000", "180353.465000", "180353.468000", "180353.472000", "180353.475000", "180353.478000", "180353.482000", "180353.485000", "180353.490000", "180353.493000", "180353.497000", "180353.500000", "180433.413000", "180433.417000", "180433.421000", "180433.424000", "180433.427000", "180433.431000", "180433.434000", "180433.437000", "180433.441000", "180433.444000", "180433.447000", "180433.451000", "180433.454000", "180433.457000", "180433.461000", "180433.464000", "180433.468000", "180433.471000", "180433.481000", "180433.484000", "180433.488000", "180433.491000", "180433.494000", "180433.498000", "180433.501000", "180433.504000", "180433.508000", "180513.414000", "180513.418000", "180513.421000", "180513.425000", "180513.428000", "180513.432000", "180513.435000", "180513.438000", "180513.442000", "180513.445000", "180513.448000", "180513.452000", "180513.455000", "180513.458000", "180513.462000", "180513.465000", "180513.469000", "180513.472000", "180513.475000", "180513.479000", "180513.482000", "180513.485000", "180513.489000", "180513.492000", "180513.495000", "180513.499000", "180513.502000", "180553.414000", "180553.418000", "180553.421000", "180553.425000", "180553.428000", "180553.431000", "180553.435000", "180553.438000", "180553.441000", "180553.445000", "180553.448000", "180553.451000", "180553.455000", "180553.458000", "180553.461000", "180553.465000", "180553.468000", "180553.471000", "180553.475000", "180553.478000", "180553.482000", "180553.485000", "180553.488000", "180553.492000", "180553.495000", "180553.498000", "180553.502000", "180633.413000", "180633.417000", "180633.421000", "180633.424000", "180633.427000", "180633.431000", "180633.434000", "180633.437000", "180633.441000", "180633.444000", "180633.447000", "180633.451000", "180633.454000", "180633.457000", "180633.461000", "180633.464000", "180633.468000", "180633.471000", "180633.474000", "180633.478000", "180633.481000", "180633.484000", "180633.488000", "180633.491000", "180633.494000", "180633.498000", "180633.501000", "180713.413000", "180713.417000", "180713.420000", "180713.424000", "180713.427000", "180713.430000", "180713.434000", "180713.437000", "180713.441000", "180713.444000", "180713.447000", "180713.451000", "180713.454000", "180713.457000", "180713.466000", "180713.470000", "180713.473000", "180713.477000", "180713.480000", "180713.483000", "180713.487000", "180713.490000", "180713.493000", "180713.497000", "180713.500000", "180713.503000", "180713.507000", "180753.414000", "180753.418000", "180753.421000", "180753.425000", "180753.428000", "180753.432000", "180753.435000", "180753.439000", "180753.442000", "180753.445000", "180753.449000", "180753.452000", "180753.455000", "180753.459000", "180753.462000", "180753.465000", "180753.469000", "180753.472000", "180753.475000", "180753.479000", "180753.482000", "180753.486000", "180753.489000", "180753.492000", "180753.497000", "180753.502000", "180833.414000", "180833.418000", "180833.421000", "180833.425000", "180833.428000", "180833.431000", "180833.435000", "180833.438000", "180833.442000", "180833.445000", "180833.448000", "180833.452000", "180833.455000", "180833.458000", "180833.462000", "180833.465000", "180833.468000", "180833.472000", "180833.475000", "180833.478000", "180833.482000", "180833.485000", "180833.489000", "180833.492000", "180833.495000", "180833.499000", "180833.502000", "180840.620000", "180840.623000", "180840.627000", "180840.630000", "180840.633000"],
      "InstanceCreationTime": ["175913.490000", "175913.494000", "175913.506000", "175913.509000", "175913.512000", "175913.516000", "175913.519000", "175913.522000", "175913.526000", "175913.529000", "175913.532000", "175913.535000", "175913.539000", "175913.542000", "175913.545000", "175913.549000", "175913.552000", "175913.555000", "175913.559000", "175913.562000", "175913.565000", "175913.569000", "175913.572000", "175913.575000", "175933.413000", "175933.417000", "175933.420000", "175933.423000", "175933.427000", "175933.430000", "175933.433000", "175933.437000", "175933.440000", "175933.444000", "175933.447000", "175933.451000", "175933.454000", "175933.457000", "175933.461000", "175933.464000", "175933.467000", "175933.471000", "175933.474000", "175933.477000", "175953.413000", "175953.417000", "175953.420000", "175953.424000", "175953.427000", "175953.430000", "175953.434000", "175953.437000", "175953.440000", "175953.444000", "175953.447000", "175953.450000", "175953.453000", "175953.457000", "175953.460000", "175953.463000", "175953.467000", "175953.470000", "175953.473000", "175953.477000", "180013.413000", "180013.430000", "180013.433000", "180013.436000", "180013.440000", "180013.443000", "180013.446000", "180013.450000", "180013.453000", "180013.456000", "180013.460000", "180013.463000", "180013.466000", "180013.470000", "180013.473000", "180013.476000", "180013.480000", "180013.483000", "180013.486000", "180013.490000", "180013.493000", "180033.414000", "180033.418000", "180033.429000", "180033.432000", "180033.436000", "180033.439000", "180033.442000", "180033.445000", "180033.449000", "180033.452000", "180033.456000", "180033.459000", "180033.462000", "180033.465000", "180033.469000", "180033.472000", "180033.475000", "180033.479000", "180033.482000", "180033.485000", "180113.414000", "180113.418000", "180113.421000", "180113.425000", "180113.428000", "180113.431000", "180113.435000", "180113.438000", "180113.442000", "180113.445000", "180113.448000", "180113.452000", "180113.455000", "180113.458000", "180113.462000", "180113.465000", "180113.468000", "180113.472000", "180113.475000", "180113.478000", "180113.482000", "180113.485000", "180113.488000", "180113.492000", "180113.495000", "180113.498000", "180113.502000", "180153.413000", "180153.417000", "180153.420000", "180153.424000", "180153.433000", "180153.437000", "180153.440000", "180153.444000", "180153.447000", "180153.450000", "180153.454000", "180153.457000", "180153.460000", "180153.464000", "180153.467000", "180153.471000", "180153.474000", "180153.478000", "180153.481000", "180153.484000", "180153.487000", "180153.491000", "180153.494000", "180153.498000", "180153.501000", "180153.504000", "180153.508000", "180233.413000", "180233.417000", "180233.420000", "180233.424000", "180233.427000", "180233.431000", "180233.434000", "180233.451000", "180233.455000", "180233.458000", "180233.461000", "180233.465000", "180233.468000", "180233.476000", "180233.479000", "180233.483000", "180233.486000", "180233.490000", "180233.493000", "180233.496000", "180233.500000", "180233.503000", "180233.506000", "180233.510000", "180233.513000", "180233.516000", "180233.520000", "180313.414000", "180313.418000", "180313.421000", "180313.424000", "180313.428000", "180313.431000", "180313.435000", "180313.438000", "180313.441000", "180313.445000", "180313.448000", "180313.451000", "180313.455000", "180313.458000", "180313.461000", "180313.465000", "180313.468000", "180313.472000", "180313.475000", "180313.478000", "180313.482000", "180313.485000", "180313.488000", "180313.492000", "180313.495000", "180313.498000", "180313.502000", "180353.414000", "180353.418000", "180353.421000", "180353.425000", "180353.428000", "180353.431000", "180353.435000", "180353.438000", "180353.441000", "180353.445000", "180353.448000", "180353.451000", "180353.455000", "180353.458000", "180353.462000", "180353.465000", "180353.468000", "180353.472000", "180353.475000", "180353.478000", "180353.482000", "180353.485000", "180353.490000", "180353.493000", "180353.497000", "180353.500000", "180433.413000", "180433.417000", "180433.421000", "180433.424000", "180433.427000", "180433.431000", "180433.434000", "180433.437000", "180433.441000", "180433.444000", "180433.447000", "180433.451000", "180433.454000", "180433.457000", "180433.461000", "180433.464000", "180433.468000", "180433.471000", "180433.481000", "180433.484000", "180433.488000", "180433.491000", "180433.494000", "180433.498000", "180433.501000", "180433.504000", "180433.508000", "180513.414000", "180513.418000", "180513.421000", "180513.425000", "180513.428000", "180513.432000", "180513.435000", "180513.438000", "180513.442000", "180513.445000", "180513.448000", "180513.452000", "180513.455000", "180513.458000", "180513.462000", "180513.465000", "180513.469000", "180513.472000", "180513.475000", "180513.479000", "180513.482000", "180513.485000", "180513.489000", "180513.492000", "180513.495000", "180513.499000", "180513.502000", "180553.414000", "180553.418000", "180553.421000", "180553.425000", "180553.428000", "180553.431000", "180553.435000", "180553.438000", "180553.441000", "180553.445000", "180553.448000", "180553.451000", "180553.455000", "180553.458000", "180553.461000", "180553.465000", "180553.468000", "180553.471000", "180553.475000", "180553.478000", "180553.482000", "180553.485000", "180553.488000", "180553.492000", "180553.495000", "180553.498000", "180553.502000", "180633.413000", "180633.417000", "180633.421000", "180633.424000", "180633.427000", "180633.431000", "180633.434000", "180633.437000", "180633.441000", "180633.444000", "180633.447000", "180633.451000", "180633.454000", "180633.457000", "180633.461000", "180633.464000", "180633.468000", "180633.471000", "180633.474000", "180633.478000", "180633.481000", "180633.484000", "180633.488000", "180633.491000", "180633.494000", "180633.498000", "180633.501000", "180713.413000", "180713.417000", "180713.420000", "180713.424000", "180713.427000", "180713.430000", "180713.434000", "180713.437000", "180713.441000", "180713.444000", "180713.447000", "180713.451000", "180713.454000", "180713.457000", "180713.466000", "180713.470000", "180713.473000", "180713.477000", "180713.480000", "180713.483000", "180713.487000", "180713.490000", "180713.493000", "180713.497000", "180713.500000", "180713.503000", "180713.507000", "180753.414000", "180753.418000", "180753.421000", "180753.425000", "180753.428000", "180753.432000", "180753.435000", "180753.439000", "180753.442000", "180753.445000", "180753.449000", "180753.452000", "180753.455000", "180753.459000", "180753.462000", "180753.465000", "180753.469000", "180753.472000", "180753.475000", "180753.479000", "180753.482000", "180753.486000", "180753.489000", "180753.492000", "180753.497000", "180753.502000", "180833.414000", "180833.418000", "180833.421000", "180833.425000", "180833.428000", "180833.431000", "180833.435000", "180833.438000", "180833.442000", "180833.445000", "180833.448000", "180833.452000", "180833.455000", "180833.458000", "180833.462000", "180833.465000", "180833.468000", "180833.472000", "180833.475000", "180833.478000", "180833.482000", "180833.485000", "180833.489000", "180833.492000", "180833.495000", "180833.499000", "180833.502000", "180840.620000", "180840.623000", "180840.627000", "180840.630000", "180840.633000"],
