{
  "AcquisitionMatrixPE": 104,
  "AcquisitionNumber": 1,
  "AcquisitionTime": "14:11:45.580000",
  "BandwidthPerPixelPhaseEncode": 17.17,
  "BaseResolution": 104,
  "BodyPartExamined": "BRAIN",
  "CoilCombinationMethod": "Sum of Squares",
  "ConsistencyInfo": "N4_VE11C_LATEST_20160120",
  "ConversionSoftware": "dcm2niix",
  "ConversionSoftwareVersion": "v1.0.20211006",
  "DerivedVendorReportedEchoSpacing": 0.000560011,
  "DeviceSerialNumber": "167006",
  "DwellTime": 2.1e-06,
  "EchoTime": 0.037,
  "EchoTime1": 0.037,
  "EchoTime2": 0.001,
  "EchoTrainLength": 104,
  "EffectiveEchoSpacing": 0.000560011,
  "FlipAngle": 52,
  "HeudiconvVersion": "0.11.3.post9+gc939bf8",
  "ImageComments": "Unaliased MB4/PE3/LB",
  "ImageOrientationPatientDICOM": [0.999748, 0.00232223, 0.0223475, 0.00383877, 0.962364, -0.271737],
  "ImageOrientationText": "Tra>Cor(-15.8)>Sag(1.3)",
  "ImageType": [
    "ORIGINAL",
    "PRIMARY",
    "P",
    "MB",
    "ND",
    "MOSAIC",
    "PHASE"
],
  "ImagingFrequency": 123.259,
  "InPlanePhaseEncodingDirectionDICOM": "COL",
  "InstitutionAddress": "Chemin Queen-Mary 4565,Montreal,District,CA,H3W 1W5",
  "InstitutionName": "IUGM",
  "InstitutionalDepartmentName": "Department",
  "MRAcquisitionType": "2D",
  "MagneticFieldStrength": 3,
  "Manufacturer": "Siemens",
  "ManufacturersModelName": "Prisma_fit",
  "MatrixCoilMode": "SENSE",
  "Modality": "MR",
  "MultibandAccelerationFactor": 4,
  "PartialFourier": 1,
  "PatientPosition": "HFS",
  "PercentPhaseFOV": 100,
  "PercentSampling": 100,
  "PhaseEncodingDirection": "j",
  "PhaseEncodingSteps": 104,
  "PhaseResolution": 1,
  "PixelBandwidth": 2290,
  "ProcedureStepDescription": "games^mariostars",
  "ProtocolName": "func_task-mariostars_run-02",
  "PulseSequenceDetails": "%CustomerSeq%\\cmrr_mbep2d_bold",
  "ReceiveCoilActiveElements": "HC1-7;NC1,2",
  "ReceiveCoilName": "HeadNeck_64",
  "ReconMatrixPE": 104,
  "RepetitionTime": 1.49,
  "SAR": 0.0700758,
  "ScanOptions": "FS",
  "ScanningSequence": "EP",
  "SequenceName": "epfid2d1_104",
  "SequenceVariant": "SK\\SS",
  "SeriesDescription": "func_task-mariostars_run-02",
  "SeriesNumber": 15,
  "ShimSetting": [632, -7206, -8775, 680, 56, 6, 2, -28],
  "SliceThickness": 2,
  "SliceTiming": [0, 0.7825, 0.0975, 0.88, 0.195, 0.98, 0.2925, 1.0775, 0.3925, 1.175, 0.49, 1.2725, 0.5875, 1.37, 0.685, 0, 0.7825, 0.0975, 0.88, 0.195, 0.98, 0.2925, 1.0775, 0.3925, 1.175, 0.49, 1.2725, 0.5875, 1.37, 0.685, 0, 0.7825, 0.0975, 0.88, 0.195, 0.98, 0.2925, 1.0775, 0.3925, 1.175, 0.49, 1.2725, 0.5875, 1.37, 0.685, 0, 0.7825, 0.0975, 0.88, 0.195, 0.98, 0.2925, 1.0775, 0.3925, 1.175, 0.49, 1.2725, 0.5875, 1.37, 0.685],
  "SoftwareVersions": "syngo MR E11",
  "SpacingBetweenSlices": 2,
  "StationName": "MRC35049",
  "TaskName": "mariostars",
  "TotalReadoutTime": 0.0576811,
  "TxRefAmp": 245.242,
  "WipMemBlock": "639ccd74-e3c2-4bec-a060-901b436698be||Sequence: R017 ve11c/master r/75a17815+; Jun 28 2022 16:32:11 by eja",
  "dcmmeta_affine": [
    [-1.9994951486587524, 0.007677546702325344, 0.04427491873502731, 106.92797088623047],
    [-0.004644469358026981, 1.9247277975082397, -0.5435082316398621, -72.7157211303711],
    [0.04469498619437218, 0.5434738397598267, 1.9242241382598877, -60.39126968383789],
    [0.0, 0.0, 0.0, 1.0]
],
  "dcmmeta_reorient_transform": [
    [0.0, -1.0, 0.0, 103.0],
    [1.0, 0.0, 0.0, 0.0],
    [0.0, 0.0, 1.0, 0.0],
    [0.0, 0.0, 0.0, 1.0]
],
  "dcmmeta_shape": [104, 104, 60, 459],
  "dcmmeta_slice_dim": 2,
  "dcmmeta_version": 0.6,
  "global": {
    "const": {
      "AcquisitionMatrix": [104, 0, 0, 104],
      "AngioFlag": "N",
      "BitsAllocated": 16,
      "BitsStored": 16,
      "BodyPartExamined": "BRAIN",
      "Columns": 832,
      "EchoNumbers": 1,
      "EchoTime": 37.0,
      "EchoTrainLength": 104,
      "FlipAngle": 52.0,
      "HighBit": 15,
      "ImageOrientationPatient": [0.99974756651261, 0.00232223469628, 0.02234749377731, 0.00383877332926, 0.96236391715797, -0.2717369219883],
      "ImagePositionPatient": [-838.32961583631, -827.82276437484, 177.14203822239],
      "ImageType": [
        "ORIGINAL",
        "PRIMARY",
        "P",
        "MB",
        "ND",
        "MOSAIC"
],
      "ImagedNucleus": "1H",
      "ImagingFrequency": 123.258813,
      "InPlanePhaseEncodingDirection": "COL",
      "LargestImagePixelValue": 4095,
      "MRAcquisitionType": "2D",
      "MagneticFieldStrength": 3.0,
      "Manufacturer": "SIEMENS",
      "ManufacturerModelName": "Prisma_fit",
      "Modality": "MR",
      "NumberOfAverages": 1.0,
      "NumberOfPhaseEncodingSteps": 104,
      "PercentPhaseFieldOfView": 100.0,
      "PercentSampling": 100.0,
      "PerformedProcedureStepStartTime": "135307.940000",
      "PhotometricInterpretation": "MONOCHROME2",
      "PixelBandwidth": 2290.0,
      "PixelRepresentation": 0,
      "PixelSpacing": [2.0, 2.0],
      "ProtocolName": "func_task-mariostars_run-02",
      "RepetitionTime": 1490.0,
      "RescaleIntercept": -4096.0,
      "RescaleSlope": 2.0,
      "RescaleType": "US",
      "Rows": 832,
      "SAR": 0.07007574769251,
      "SamplesPerPixel": 1,
      "ScanOptions": "FS",
      "ScanningSequence": "EP",
      "SequenceName": "epfid2d1_104",
      "SequenceVariant": [
        "SK",
        "SS"
],
      "SeriesDescription": "func_task-mariostars_run-02",
      "SeriesNumber": 15,
      "SeriesTime": "141314.236000",
      "SliceLocation": -35.975261266334,
      "SliceThickness": 2.0,
      "SmallestImagePixelValue": 0,
      "SoftwareVersions": "syngo MR E11",
      "SpacingBetweenSlices": 2.0000000280277,
      "SpecificCharacterSet": "ISO_IR 100",
      "StudyID": "1",
      "StudyTime": "135307.863000",
      "TransmitCoilName": "Body",
      "VariableFlipAngleFlag": "N",
      "WindowCenterWidthExplanation": "Algo1",
      "dBdt": 0.0},
    "slices": {}
  },
  "time": {
    "samples": {
      "AcquisitionNumber": [1, 2, 3, 4, 5, 6, 7, 8, 9, 10, 11, 12, 13, 14, 15, 16, 17, 18, 19, 20, 21, 22, 23, 24, 25, 26, 27, 28, 29, 30, 31, 32, 33, 34, 35, 36, 37, 38, 39, 40, 41, 42, 43, 44, 45, 46, 47, 48, 49, 50, 51, 52, 53, 54, 55, 56, 57, 58, 59, 60, 61, 62, 63, 64, 65, 66, 67, 68, 69, 70, 71, 72, 73, 74, 75, 76, 77, 78, 79, 80, 81, 82, 83, 84, 85, 86, 87, 88, 89, 90, 91, 92, 93, 94, 95, 96, 97, 98, 99, 100, 101, 102, 103, 104, 105, 106, 107, 108, 109, 110, 111, 112, 113, 114, 115, 116, 117, 118, 119, 120, 121, 122, 123, 124, 125, 126, 127, 128, 129, 130, 131, 132, 133, 134, 135, 136, 137, 138, 139, 140, 141, 142, 143, 144, 145, 146, 147, 148, 149, 150, 151, 152, 153, 154, 155, 156, 157, 158, 159, 160, 161, 162, 163, 164, 165, 166, 167, 168, 169, 170, 171, 172, 173, 174, 175, 176, 177, 178, 179, 180, 181, 182, 183, 184, 185, 186, 187, 188, 189, 190, 191, 192, 193, 194, 195, 196, 197, 198, 199, 200, 201, 202, 203, 204, 205, 206, 207, 208, 209, 210, 211, 212, 213, 214, 215, 216, 217, 218, 219, 220, 221, 222, 223, 224, 225, 226, 227, 228, 229, 230, 231, 232, 233, 234, 235, 236, 237, 238, 239, 240, 241, 242, 243, 244, 245, 246, 247, 248, 249, 250, 251, 252, 253, 254, 255, 256, 257, 258, 259, 260, 261, 262, 263, 264, 265, 266, 267, 268, 269, 270, 271, 272, 273, 274, 275, 276, 277, 278, 279, 280, 281, 282, 283, 284, 285, 286, 287, 288, 289, 290, 291, 292, 293, 294, 295, 296, 297, 298, 299, 300, 301, 302, 303, 304, 305, 306, 307, 308, 309, 310, 311, 312, 313, 314, 315, 316, 317, 318, 319, 320, 321, 322, 323, 324, 325, 326, 327, 328, 329, 330, 331, 332, 333, 334, 335, 336, 337, 338, 339, 340, 341, 342, 343, 344, 345, 346, 347, 348, 349, 350, 351, 352, 353, 354, 355, 356, 357, 358, 359, 360, 361, 362, 363, 364, 365, 366, 367, 368, 369, 370, 371, 372, 373, 374, 375, 376, 377, 378, 379, 380, 381, 382, 383, 384, 385, 386, 387, 388, 389, 390, 391, 392, 393, 394, 395, 396, 397, 398, 399, 400, 401, 402, 403, 404, 405, 406, 407, 408, 409, 410, 411, 412, 413, 414, 415, 416, 417, 418, 419, 420, 421, 422, 423, 424, 425, 426, 427, 428, 429, 430, 431, 432, 433, 434, 435, 436, 437, 438, 439, 440, 441, 442, 443, 444, 445, 446, 447, 448, 449, 450, 451, 452, 453, 454, 455, 456, 457, 458, 459],
      "AcquisitionTime": ["141145.580000", "141147.070000", "141148.560000", "141150.050000", "141151.540000", "141153.030000", "141154.520000", "141156.010000", "141157.500000", "141158.990000", "141200.480000", "141201.970000", "141203.460000", "141204.950000", "141206.440000", "141207.930000", "141209.420000", "141210.910000", "141212.400000", "141213.890000", "141215.380000", "141216.870000", "141218.360000", "141219.850000", "141221.340000", "141222.830000", "141224.320000", "141225.810000", "141227.300000", "141228.790000", "141230.280000", "141231.770000", "141233.260000", "141234.750000", "141236.240000", "141237.730000", "141239.220000", "141240.710000", "141242.200000", "141243.690000", "141245.180000", "141246.670000", "141248.160000", "141249.650000", "141251.140000", "141252.630000", "141254.120000", "141255.610000", "141257.100000", "141258.590000", "141300.080000", "141301.570000", "141303.060000", "141304.550000", "141306.040000", "141307.530000", "141309.020000", "141310.510000", "141312.000000", "141313.490000", "141314.980000", "141316.470000", "141317.960000", "141319.450000", "141320.940000", "141322.430000", "141323.920000", "141325.410000", "141326.900000", "141328.390000", "141329.880000", "141331.370000", "141332.860000", "141334.350000", "141335.840000", "141337.330000", "141338.820000", "141340.310000", "141341.800000", "141343.290000", "141344.780000", "141346.270000", "141347.760000", "141349.250000", "141350.740000", "141352.230000", "141353.720000", "141355.210000", "141356.700000", "141358.190000", "141359.680000", "141401.170000", "141402.660000", "141404.150000", "141405.640000", "141407.130000", "141408.620000", "141410.110000", "141411.600000", "141413.090000", "141414.580000", "141416.070000", "141417.560000", "141419.050000", "141420.540000", "141422.030000", "141423.520000", "141425.010000", "141426.500000", "141427.990000", "141429.480000", "141430.970000", "141432.460000", "141433.950000", "141435.440000", "141436.930000", "141438.420000", "141439.910000", "141441.400000", "141442.890000", "141444.380000", "141445.870000", "141447.360000", "141448.850000", "141450.340000", "141451.830000", "141453.320000", "141454.810000", "141456.300000", "141457.790000", "141459.280000", "141500.770000", "141502.260000", "141503.750000", "141505.240000", "141506.730000", "141508.220000", "141509.710000", "141511.200000", "141512.690000", "141514.180000", "141515.670000", "141517.160000", "141518.650000", "141520.140000", "141521.630000", "141523.120000", "141524.610000", "141526.100000", "141527.590000", "141529.080000", "141530.570000", "141532.060000", "141533.550000", "141535.040000", "141536.530000", "141538.020000", "141539.510000", "141541.000000", "141542.490000", "141543.980000", "141545.470000", "141546.960000", "141548.450000", "141549.940000", "141551.430000", "141552.920000", "141554.410000", "141555.900000", "141557.390000", "141558.880000", "141600.370000", "141601.860000", "141603.350000", "141604.840000", "141606.330000", "141607.820000", "141609.310000", "141610.800000", "141612.290000", "141613.780000", "141615.270000", "141616.760000", "141618.250000", "141619.740000", "141621.230000", "141622.720000", "141624.210000", "141625.700000", "141627.190000", "141628.680000", "141630.170000", "141631.660000", "141633.150000", "141634.640000", "141636.130000", "141637.620000", "141639.110000", "141640.600000", "141642.090000", "141643.580000", "141645.070000", "141646.560000", "141648.050000", "141649.540000", "141651.030000", "141652.520000", "141654.010000", "141655.500000", "141656.990000", "141658.480000", "141659.970000", "141701.460000", "141702.950000", "141704.440000", "141705.930000", "141707.420000", "141708.910000", "141710.400000", "141711.890000", "141713.380000", "141714.870000", "141716.360000", "141717.850000", "141719.340000", "141720.830000", "141722.320000", "141723.810000", "141725.300000", "141726.790000", "141728.280000", "141729.770000", "141731.260000", "141732.750000", "141734.240000", "141735.730000", "141737.220000", "141738.710000", "141740.200000", "141741.690000", "141743.180000", "141744.670000", "141746.160000", "141747.650000", "141749.140000", "141750.630000", "141752.120000", "141753.610000", "141755.100000", "141756.590000", "141758.080000", "141759.570000", "141801.060000", "141802.550000", "141804.040000", "141805.530000", "141807.020000", "141808.510000", "141810.000000", "141811.490000", "141812.980000", "141814.470000", "141815.960000", "141817.450000", "141818.940000", "141820.430000", "141821.920000", "141823.410000", "141824.900000", "141826.390000", "141827.880000", "141829.370000", "141830.860000", "141832.350000", "141833.840000", "141835.330000", "141836.820000", "141838.310000", "141839.800000", "141841.290000", "141842.780000", "141844.270000", "141845.760000", "141847.250000", "141848.740000", "141850.230000", "141851.720000", "141853.210000", "141854.700000", "141856.190000", "141857.680000", "141859.170000", "141900.660000", "141902.150000", "141903.640000", "141905.130000", "141906.620000", "141908.110000", "141909.600000", "141911.090000", "141912.580000", "141914.070000", "141915.560000", "141917.050000", "141918.540000", "141920.030000", "141921.520000", "141923.010000", "141924.500000", "141925.990000", "141927.480000", "141928.970000", "141930.460000", "141931.950000", "141933.440000", "141934.930000", "141936.420000", "141937.910000", "141939.400000", "141940.890000", "141942.380000", "141943.870000", "141945.360000", "141946.850000", "141948.340000", "141949.830000", "141951.320000", "141952.810000", "141954.300000", "141955.790000", "141957.280000", "141958.770000", "142000.260000", "142001.750000", "142003.240000", "142004.730000", "142006.220000", "142007.710000", "142009.200000", "142010.690000", "142012.180000", "142013.670000", "142015.160000", "142016.650000", "142018.140000", "142019.630000", "142021.120000", "142022.610000", "142024.100000", "142025.590000", "142027.080000", "142028.570000", "142030.060000", "142031.550000", "142033.040000", "142034.530000", "142036.020000", "142037.510000", "142039.000000", "142040.490000", "142041.980000", "142043.470000", "142044.960000", "142046.450000", "142047.940000", "142049.430000", "142050.920000", "142052.410000", "142053.900000", "142055.390000", "142056.880000", "142058.370000", "142059.860000", "142101.350000", "142102.840000", "142104.330000", "142105.820000", "142107.310000", "142108.800000", "142110.290000", "142111.780000", "142113.270000", "142114.760000", "142116.250000", "142117.740000", "142119.230000", "142120.720000", "142122.210000", "142123.700000", "142125.190000", "142126.680000", "142128.170000", "142129.660000", "142131.150000", "142132.640000", "142134.130000", "142135.620000", "142137.110000", "142138.600000", "142140.090000", "142141.580000", "142143.070000", "142144.560000", "142146.050000", "142147.540000", "142149.030000", "142150.520000", "142152.010000", "142153.500000", "142154.990000", "142156.480000", "142157.970000", "142159.460000", "142200.950000", "142202.440000", "142203.930000", "142205.420000", "142206.910000", "142208.400000", "142209.890000", "142211.380000", "142212.870000", "142214.360000", "142215.850000", "142217.340000", "142218.830000", "142220.320000", "142221.810000", "142223.300000", "142224.790000", "142226.280000", "142227.770000", "142229.260000", "142230.750000", "142232.240000", "142233.730000", "142235.220000", "142236.710000", "142238.200000", "142239.690000", "142241.180000", "142242.670000", "142244.160000", "142245.650000", "142247.140000", "142248.630000", "142250.120000", "142251.610000", "142253.100000", "142254.590000", "142256.080000", "142257.570000", "142259.060000", "142300.550000", "142302.040000", "142303.530000", "142305.020000", "142306.510000", "142308.000000"],
      "ContentTime": ["141314.238000", "141314.241000", "141314.244000", "141314.246000", "141314.249000", "141314.251000", "141314.254000", "141314.257000", "141314.259000", "141314.262000", "141314.264000", "141314.267000", "141314.269000", "141314.272000", "141314.274000", "141314.278000", "141314.280000", "141314.283000", "141314.285000", "141314.288000", "141314.290000", "141314.293000", "141314.296000", "141314.298000", "141314.301000", "141314.303000", "141314.306000", "141314.308000", "141314.311000", "141314.314000", "141314.316000", "141314.319000", "141314.321000", "141314.324000", "141314.326000", "141314.329000", "141314.332000", "141314.334000", "141314.337000", "141334.132000", "141334.135000", "141334.137000", "141334.140000", "141334.143000", "141334.145000", "141334.148000", "141334.158000", "141334.160000", "141334.168000", "141334.171000", "141334.173000", "141334.176000", "141334.178000", "141334.181000", "141334.183000", "141334.186000", "141334.188000", "141334.191000", "141334.194000", "141354.126000", "141354.129000", "141354.131000", "141354.134000", "141354.136000", "141354.139000", "141354.141000", "141354.144000", "141354.147000", "141354.149000", "141354.152000", "141354.154000", "141354.157000", "141354.159000", "141354.162000", "141354.165000", "141354.167000", "141354.170000", "141354.172000", "141354.175000", "141354.177000", "141434.169000", "141434.172000", "141434.174000", "141434.177000", "141434.179000", "141434.182000", "141434.185000", "141434.187000", "141434.190000", "141434.193000", "141434.195000", "141434.198000", "141434.200000", "141434.212000", "141434.214000", "141434.217000", "141434.220000", "141434.222000", "141434.225000", "141434.227000", "141434.238000", "141434.241000", "141434.243000", "141434.246000", "141434.249000", "141434.251000", "141434.254000", "141434.256000", "141434.259000", "141434.262000", "141434.264000", "141434.267000", "141514.142000", "141514.145000", "141514.148000", "141514.150000", "141514.153000", "141514.155000", "141514.158000", "141514.160000", "141514.163000", "141514.166000", "141514.168000", "141514.171000", "141514.173000", "141514.176000", "141514.178000", "141514.181000", "141514.183000", "141514.186000", "141514.196000", "141514.198000", "141514.201000", "141514.203000", "141514.206000", "141514.208000", "141514.211000", "141514.213000", "141514.216000", "141534.077000", "141534.080000", "141534.083000", "141534.085000", "141534.088000", "141534.090000", "141534.093000", "141534.095000", "141534.098000", "141534.100000", "141534.103000", "141534.106000", "141534.108000", "141614.165000", "141614.168000", "141614.170000", "141614.173000", "141614.175000", "141614.178000", "141614.181000", "141614.183000", "141614.186000", "141614.188000", "141614.191000", "141614.194000", "141614.196000", "141614.199000", "141614.201000", "141614.204000", "141614.206000", "141614.209000", "141614.212000", "141614.214000", "141614.217000", "141614.219000", "141614.222000", "141614.224000", "141614.227000", "141614.229000", "141614.232000", "141654.150000", "141654.153000", "141654.155000", "141654.158000", "141654.161000", "141654.163000", "141654.166000", "141654.176000", "141654.178000", "141654.181000", "141654.183000", "141654.186000", "141654.188000", "141654.191000", "141654.194000", "141654.196000", "141654.199000", "141654.201000", "141654.204000", "141654.206000", "141654.209000", "141654.212000", "141654.214000", "141654.217000", "141654.219000", "141654.222000", "141654.224000", "141734.164000", "141734.167000", "141734.170000", "141734.173000", "141734.175000", "141734.178000", "141734.180000", "141734.183000", "141734.186000", "141734.188000", "141734.191000", "141734.193000", "141734.196000", "141734.199000", "141734.201000", "141734.204000", "141734.207000", "141734.209000", "141734.212000", "141734.214000", "141734.217000", "141734.219000", "141734.222000", "141734.225000", "141734.227000", "141734.230000", "141734.232000", "141814.155000", "141814.158000", "141814.160000", "141814.163000", "141814.166000", "141814.168000", "141814.171000", "141814.174000", "141814.176000", "141814.179000", "141814.181000", "141814.184000", "141814.187000", "141814.189000", "141814.192000", "141814.194000", "141814.197000", "141814.200000", "141814.202000", "141814.205000", "141814.207000", "141814.210000", "141814.213000", "141814.215000", "141814.218000", "141814.220000", "141814.223000", "141854.146000", "141854.149000", "141854.152000", "141854.154000", "141854.157000", "141854.159000", "141854.162000", "141854.164000", "141854.167000", "141854.170000", "141854.172000", "141854.175000", "141854.177000", "141854.180000", "141854.183000", "141854.185000", "141854.188000", "141854.190000", "141854.193000", "141854.195000", "141854.198000", "141854.201000", "141854.203000", "141854.206000", "141854.209000", "141854.211000", "141934.165000", "141934.168000", "141934.171000", "141934.173000", "141934.176000", "141934.179000", "141934.182000", "141934.184000", "141934.187000", "141934.190000", "141934.193000", "141934.195000", "141934.198000", "141934.201000", "141934.203000", "141934.206000", "141934.209000", "141934.211000", "141934.214000", "141934.217000", "141934.221000", "141934.224000", "141934.226000", "141934.229000", "141934.232000", "141934.234000", "141934.237000", "142014.152000", "142014.154000", "142014.157000", "142014.159000", "142014.162000", "142014.165000", "142014.167000", "142014.170000", "142014.172000", "142014.175000", "142014.178000", "142014.180000", "142014.183000", "142014.185000", "142014.188000", "142014.190000", "142014.193000", "142014.196000", "142014.198000", "142014.201000", "142014.203000", "142014.206000", "142014.208000", "142014.211000", "142014.214000", "142014.216000", "142014.219000", "142054.139000", "142054.142000", "142054.144000", "142054.147000", "142054.149000", "142054.152000", "142054.155000", "142054.157000", "142054.160000", "142054.162000", "142054.165000", "142054.167000", "142054.170000", "142054.173000", "142054.175000", "142054.178000", "142054.180000", "142054.183000", "142054.186000", "142054.188000", "142054.191000", "142054.193000", "142054.196000", "142054.199000", "142054.201000", "142054.204000", "142054.206000", "142134.155000", "142134.157000", "142134.160000", "142134.163000", "142134.165000", "142134.168000", "142134.170000", "142134.173000", "142134.175000", "142134.178000", "142134.181000", "142134.183000", "142134.186000", "142134.188000", "142134.191000", "142134.194000", "142134.196000", "142134.199000", "142134.201000", "142134.204000", "142134.206000", "142134.209000", "142134.211000", "142134.214000", "142134.216000", "142134.219000", "142134.222000", "142214.152000", "142214.155000", "142214.158000", "142214.160000", "142214.163000", "142214.172000", "142214.174000", "142214.177000", "142214.179000", "142214.182000", "142214.185000", "142214.187000", "142214.190000", "142214.192000", "142214.195000", "142214.198000", "142214.200000", "142214.203000", "142214.205000", "142214.208000", "142214.210000", "142214.213000", "142214.216000", "142214.218000", "142214.221000", "142214.223000", "142214.226000", "142254.161000", "142254.164000", "142254.166000", "142254.169000", "142254.172000", "142254.174000", "142254.177000", "142254.179000", "142254.182000", "142254.184000", "142254.187000", "142254.190000", "142254.192000", "142254.195000", "142254.197000", "142254.200000", "142254.202000", "142254.205000", "142254.207000", "142254.216000", "142254.219000", "142254.222000", "142254.224000", "142254.227000", "142254.230000", "142254.232000", "142310.713000", "142310.716000", "142310.719000", "142310.721000", "142310.724000", "142310.726000", "142310.729000", "142310.743000", "142310.745000", "142310.748000", "142310.750000", "142310.753000"],
