{
  "AcquisitionMatrixPE": 104,
  "AcquisitionNumber": 1,
  "AcquisitionTime": "13:56:58.575000",
  "BandwidthPerPixelPhaseEncode": 17.17,
  "BaseResolution": 104,
  "BodyPartExamined": "BRAIN",
  "CoilCombinationMethod": "Sum of Squares",
  "ConsistencyInfo": "N4_VE11C_LATEST_20160120",
  "ConversionSoftware": "dcm2niix",
  "ConversionSoftwareVersion": "v1.0.20211006",
  "DerivedVendorReportedEchoSpacing": 0.000560011,
  "DeviceSerialNumber": "167006",
  "DwellTime": 2.1e-06,
  "EchoTime": 0.037,
  "EchoTime1": 0.037,
  "EchoTime2": 0.001,
  "EchoTrainLength": 104,
  "EffectiveEchoSpacing": 0.000560011,
  "FlipAngle": 52,
  "HeudiconvVersion": "0.11.3.post9+gc939bf8",
  "ImageComments": "Unaliased MB4/PE3/LB",
  "ImageOrientationPatientDICOM": [0.999748, 0.00232223, 0.0223475, 0.00383877, 0.962364, -0.271737],
  "ImageOrientationText": "Tra>Cor(-15.8)>Sag(1.3)",
  "ImageType": [
    "ORIGINAL",
    "PRIMARY",
    "P",
    "MB",
    "ND",
    "MOSAIC",
    "PHASE"
],
  "ImagingFrequency": 123.259,
  "InPlanePhaseEncodingDirectionDICOM": "COL",
  "InstitutionAddress": "Chemin Queen-Mary 4565,Montreal,District,CA,H3W 1W5",
  "InstitutionName": "IUGM",
  "InstitutionalDepartmentName": "Department",
  "MRAcquisitionType": "2D",
  "MagneticFieldStrength": 3,
  "Manufacturer": "Siemens",
  "ManufacturersModelName": "Prisma_fit",
  "MatrixCoilMode": "SENSE",
  "Modality": "MR",
  "MultibandAccelerationFactor": 4,
  "PartialFourier": 1,
  "PatientPosition": "HFS",
  "PercentPhaseFOV": 100,
  "PercentSampling": 100,
  "PhaseEncodingDirection": "j",
  "PhaseEncodingSteps": 104,
  "PhaseResolution": 1,
  "PixelBandwidth": 2290,
  "ProcedureStepDescription": "games^mariostars",
  "ProtocolName": "func_task-mariostars_run-01",
  "PulseSequenceDetails": "%CustomerSeq%\\cmrr_mbep2d_bold",
  "ReceiveCoilActiveElements": "HC1-7;NC1,2",
  "ReceiveCoilName": "HeadNeck_64",
  "ReconMatrixPE": 104,
  "RepetitionTime": 1.49,
  "SAR": 0.0700758,
  "ScanOptions": "FS",
  "ScanningSequence": "EP",
  "SequenceName": "epfid2d1_104",
  "SequenceVariant": "SK\\SS",
  "SeriesDescription": "func_task-mariostars_run-01",
  "SeriesNumber": 12,
  "ShimSetting": [632, -7206, -8775, 680, 56, 6, 2, -28],
  "SliceThickness": 2,
  "SliceTiming": [0, 0.785, 0.0975, 0.8825, 0.1975, 0.98, 0.295, 1.0775, 0.3925, 1.1775, 0.49, 1.275, 0.5875, 1.3725, 0.6875, 0, 0.785, 0.0975, 0.8825, 0.1975, 0.98, 0.295, 1.0775, 0.3925, 1.1775, 0.49, 1.275, 0.5875, 1.3725, 0.6875, 0, 0.785, 0.0975, 0.8825, 0.1975, 0.98, 0.295, 1.0775, 0.3925, 1.1775, 0.49, 1.275, 0.5875, 1.3725, 0.6875, 0, 0.785, 0.0975, 0.8825, 0.1975, 0.98, 0.295, 1.0775, 0.3925, 1.1775, 0.49, 1.275, 0.5875, 1.3725, 0.6875],
  "SoftwareVersions": "syngo MR E11",
  "SpacingBetweenSlices": 2,
  "StationName": "MRC35049",
  "TaskName": "mariostars",
  "TotalReadoutTime": 0.0576811,
  "TxRefAmp": 245.242,
  "WipMemBlock": "0130ca70-bac2-48a5-8199-8cb5c8de145d||Sequence: R017 ve11c/master r/75a17815+; Jun 28 2022 16:32:11 by eja",
  "dcmmeta_affine": [
    [-1.9994951486587524, 0.007677546702325344, 0.04427491873502731, 106.92797088623047],
    [-0.004644469358026981, 1.9247277975082397, -0.5435082316398621, -72.7157211303711],
    [0.04469498619437218, 0.5434738397598267, 1.9242241382598877, -60.39126968383789],
    [0.0, 0.0, 0.0, 1.0]
],
  "dcmmeta_reorient_transform": [
    [0.0, -1.0, 0.0, 103.0],
    [1.0, 0.0, 0.0, 0.0],
    [0.0, 0.0, 1.0, 0.0],
    [0.0, 0.0, 0.0, 1.0]
],
  "dcmmeta_shape": [104, 104, 60, 474],
  "dcmmeta_slice_dim": 2,
  "dcmmeta_version": 0.6,
  "global": {
    "const": {
      "AcquisitionMatrix": [104, 0, 0, 104],
      "AngioFlag": "N",
      "BitsAllocated": 16,
      "BitsStored": 16,
      "BodyPartExamined": "BRAIN",
      "Columns": 832,
      "EchoNumbers": 1,
      "EchoTime": 37.0,
      "EchoTrainLength": 104,
      "FlipAngle": 52.0,
      "HighBit": 15,
      "ImageOrientationPatient": [0.99974756651261, 0.00232223469628, 0.02234749377731, 0.00383877332926, 0.96236391715797, -0.2717369219883],
      "ImagePositionPatient": [-838.32961583631, -827.82276437484, 177.14203822239],
      "ImageType": [
        "ORIGINAL",
        "PRIMARY",
        "P",
        "MB",
        "ND",
        "MOSAIC"
],
      "ImagedNucleus": "1H",
      "ImagingFrequency": 123.258805,
      "InPlanePhaseEncodingDirection": "COL",
      "LargestImagePixelValue": 4095,
      "MRAcquisitionType": "2D",
      "MagneticFieldStrength": 3.0,
      "Manufacturer": "SIEMENS",
      "ManufacturerModelName": "Prisma_fit",
      "Modality": "MR",
      "NumberOfAverages": 1.0,
      "NumberOfPhaseEncodingSteps": 104,
      "PercentPhaseFieldOfView": 100.0,
      "PercentSampling": 100.0,
      "PerformedProcedureStepStartTime": "135307.940000",
      "PhotometricInterpretation": "MONOCHROME2",
      "PixelBandwidth": 2290.0,
      "PixelRepresentation": 0,
      "PixelSpacing": [2.0, 2.0],
      "ProtocolName": "func_task-mariostars_run-01",
      "RepetitionTime": 1490.0,
      "RescaleIntercept": -4096.0,
      "RescaleSlope": 2.0,
      "RescaleType": "US",
      "Rows": 832,
      "SAR": 0.07007574769251,
      "SamplesPerPixel": 1,
      "ScanOptions": "FS",
      "ScanningSequence": "EP",
      "SequenceName": "epfid2d1_104",
      "SequenceVariant": [
        "SK",
        "SS"
],
      "SeriesDescription": "func_task-mariostars_run-01",
      "SeriesNumber": 12,
      "SeriesTime": "135752.036000",
      "SliceLocation": -35.975261266334,
      "SliceThickness": 2.0,
      "SmallestImagePixelValue": 0,
      "SoftwareVersions": "syngo MR E11",
      "SpacingBetweenSlices": 2.0000000280277,
      "SpecificCharacterSet": "ISO_IR 100",
      "StudyID": "1",
      "StudyTime": "135307.863000",
      "TransmitCoilName": "Body",
      "VariableFlipAngleFlag": "N",
      "WindowCenterWidthExplanation": "Algo1",
      "dBdt": 0.0},
    "slices": {}
  },
  "time": {
    "samples": {
      "AcquisitionNumber": [1, 2, 3, 4, 5, 6, 7, 8, 9, 10, 11, 12, 13, 14, 15, 16, 17, 18, 19, 20, 21, 22, 23, 24, 25, 26, 27, 28, 29, 30, 31, 32, 33, 34, 35, 36, 37, 38, 39, 40, 41, 42, 43, 44, 45, 46, 47, 48, 49, 50, 51, 52, 53, 54, 55, 56, 57, 58, 59, 60, 61, 62, 63, 64, 65, 66, 67, 68, 69, 70, 71, 72, 73, 74, 75, 76, 77, 78, 79, 80, 81, 82, 83, 84, 85, 86, 87, 88, 89, 90, 91, 92, 93, 94, 95, 96, 97, 98, 99, 100, 101, 102, 103, 104, 105, 106, 107, 108, 109, 110, 111, 112, 113, 114, 115, 116, 117, 118, 119, 120, 121, 122, 123, 124, 125, 126, 127, 128, 129, 130, 131, 132, 133, 134, 135, 136, 137, 138, 139, 140, 141, 142, 143, 144, 145, 146, 147, 148, 149, 150, 151, 152, 153, 154, 155, 156, 157, 158, 159, 160, 161, 162, 163, 164, 165, 166, 167, 168, 169, 170, 171, 172, 173, 174, 175, 176, 177, 178, 179, 180, 181, 182, 183, 184, 185, 186, 187, 188, 189, 190, 191, 192, 193, 194, 195, 196, 197, 198, 199, 200, 201, 202, 203, 204, 205, 206, 207, 208, 209, 210, 211, 212, 213, 214, 215, 216, 217, 218, 219, 220, 221, 222, 223, 224, 225, 226, 227, 228, 229, 230, 231, 232, 233, 234, 235, 236, 237, 238, 239, 240, 241, 242, 243, 244, 245, 246, 247, 248, 249, 250, 251, 252, 253, 254, 255, 256, 257, 258, 259, 260, 261, 262, 263, 264, 265, 266, 267, 268, 269, 270, 271, 272, 273, 274, 275, 276, 277, 278, 279, 280, 281, 282, 283, 284, 285, 286, 287, 288, 289, 290, 291, 292, 293, 294, 295, 296, 297, 298, 299, 300, 301, 302, 303, 304, 305, 306, 307, 308, 309, 310, 311, 312, 313, 314, 315, 316, 317, 318, 319, 320, 321, 322, 323, 324, 325, 326, 327, 328, 329, 330, 331, 332, 333, 334, 335, 336, 337, 338, 339, 340, 341, 342, 343, 344, 345, 346, 347, 348, 349, 350, 351, 352, 353, 354, 355, 356, 357, 358, 359, 360, 361, 362, 363, 364, 365, 366, 367, 368, 369, 370, 371, 372, 373, 374, 375, 376, 377, 378, 379, 380, 381, 382, 383, 384, 385, 386, 387, 388, 389, 390, 391, 392, 393, 394, 395, 396, 397, 398, 399, 400, 401, 402, 403, 404, 405, 406, 407, 408, 409, 410, 411, 412, 413, 414, 415, 416, 417, 418, 419, 420, 421, 422, 423, 424, 425, 426, 427, 428, 429, 430, 431, 432, 433, 434, 435, 436, 437, 438, 439, 440, 441, 442, 443, 444, 445, 446, 447, 448, 449, 450, 451, 452, 453, 454, 455, 456, 457, 458, 459, 460, 461, 462, 463, 464, 465, 466, 467, 468, 469, 470, 471, 472, 473, 474],
      "AcquisitionTime": ["135658.575000", "135700.065000", "135701.555000", "135703.045000", "135704.535000", "135706.025000", "135707.515000", "135709.005000", "135710.495000", "135711.985000", "135713.475000", "135714.965000", "135716.455000", "135717.945000", "135719.435000", "135720.925000", "135722.415000", "135723.905000", "135725.395000", "135726.885000", "135728.375000", "135729.865000", "135731.355000", "135732.845000", "135734.335000", "135735.825000", "135737.315000", "135738.805000", "135740.295000", "135741.785000", "135743.275000", "135744.765000", "135746.255000", "135747.745000", "135749.235000", "135750.725000", "135752.215000", "135753.705000", "135755.195000", "135756.685000", "135758.175000", "135759.665000", "135801.155000", "135802.645000", "135804.135000", "135805.625000", "135807.115000", "135808.605000", "135810.095000", "135811.585000", "135813.075000", "135814.565000", "135816.055000", "135817.545000", "135819.035000", "135820.525000", "135822.015000", "135823.505000", "135824.995000", "135826.485000", "135827.975000", "135829.465000", "135830.955000", "135832.445000", "135833.935000", "135835.425000", "135836.915000", "135838.405000", "135839.895000", "135841.385000", "135842.875000", "135844.365000", "135845.855000", "135847.345000", "135848.835000", "135850.325000", "135851.815000", "135853.305000", "135854.795000", "135856.285000", "135857.775000", "135859.265000", "135900.755000", "135902.245000", "135903.735000", "135905.225000", "135906.715000", "135908.205000", "135909.695000", "135911.185000", "135912.675000", "135914.165000", "135915.655000", "135917.145000", "135918.635000", "135920.125000", "135921.615000", "135923.105000", "135924.595000", "135926.085000", "135927.575000", "135929.065000", "135930.555000", "135932.045000", "135933.535000", "135935.025000", "135936.515000", "135938.005000", "135939.495000", "135940.985000", "135942.475000", "135943.965000", "135945.455000", "135946.945000", "135948.435000", "135949.925000", "135951.415000", "135952.905000", "135954.395000", "135955.885000", "135957.375000", "135958.865000", "140000.355000", "140001.845000", "140003.335000", "140004.825000", "140006.315000", "140007.805000", "140009.295000", "140010.785000", "140012.275000", "140013.765000", "140015.255000", "140016.745000", "140018.235000", "140019.725000", "140021.215000", "140022.705000", "140024.195000", "140025.685000", "140027.175000", "140028.665000", "140030.155000", "140031.645000", "140033.135000", "140034.625000", "140036.115000", "140037.605000", "140039.095000", "140040.585000", "140042.075000", "140043.565000", "140045.055000", "140046.545000", "140048.035000", "140049.525000", "140051.015000", "140052.505000", "140053.995000", "140055.485000", "140056.975000", "140058.465000", "140059.955000", "140101.445000", "140102.935000", "140104.425000", "140105.915000", "140107.405000", "140108.895000", "140110.385000", "140111.875000", "140113.365000", "140114.855000", "140116.345000", "140117.835000", "140119.325000", "140120.815000", "140122.305000", "140123.795000", "140125.285000", "140126.775000", "140128.265000", "140129.755000", "140131.245000", "140132.735000", "140134.225000", "140135.715000", "140137.205000", "140138.695000", "140140.185000", "140141.675000", "140143.165000", "140144.655000", "140146.145000", "140147.635000", "140149.125000", "140150.615000", "140152.105000", "140153.595000", "140155.085000", "140156.575000", "140158.065000", "140159.555000", "140201.045000", "140202.535000", "140204.025000", "140205.515000", "140207.005000", "140208.495000", "140209.985000", "140211.475000", "140212.965000", "140214.455000", "140215.945000", "140217.435000", "140218.925000", "140220.415000", "140221.905000", "140223.395000", "140224.885000", "140226.375000", "140227.865000", "140229.355000", "140230.845000", "140232.335000", "140233.825000", "140235.315000", "140236.805000", "140238.295000", "140239.785000", "140241.275000", "140242.765000", "140244.255000", "140245.745000", "140247.235000", "140248.725000", "140250.215000", "140251.705000", "140253.195000", "140254.685000", "140256.175000", "140257.665000", "140259.155000", "140300.645000", "140302.135000", "140303.625000", "140305.115000", "140306.605000", "140308.095000", "140309.585000", "140311.075000", "140312.565000", "140314.055000", "140315.545000", "140317.035000", "140318.525000", "140320.015000", "140321.505000", "140322.995000", "140324.485000", "140325.975000", "140327.465000", "140328.955000", "140330.445000", "140331.935000", "140333.425000", "140334.915000", "140336.405000", "140337.895000", "140339.385000", "140340.875000", "140342.365000", "140343.855000", "140345.345000", "140346.835000", "140348.325000", "140349.815000", "140351.305000", "140352.795000", "140354.285000", "140355.775000", "140357.265000", "140358.755000", "140400.245000", "140401.735000", "140403.225000", "140404.715000", "140406.205000", "140407.695000", "140409.185000", "140410.675000", "140412.165000", "140413.655000", "140415.145000", "140416.635000", "140418.125000", "140419.615000", "140421.105000", "140422.595000", "140424.085000", "140425.575000", "140427.065000", "140428.555000", "140430.045000", "140431.535000", "140433.025000", "140434.515000", "140436.005000", "140437.495000", "140438.985000", "140440.475000", "140441.965000", "140443.455000", "140444.945000", "140446.435000", "140447.925000", "140449.415000", "140450.905000", "140452.395000", "140453.885000", "140455.375000", "140456.865000", "140458.355000", "140459.845000", "140501.335000", "140502.825000", "140504.315000", "140505.805000", "140507.295000", "140508.785000", "140510.275000", "140511.765000", "140513.255000", "140514.745000", "140516.235000", "140517.725000", "140519.215000", "140520.705000", "140522.195000", "140523.685000", "140525.175000", "140526.665000", "140528.155000", "140529.645000", "140531.135000", "140532.625000", "140534.115000", "140535.605000", "140537.095000", "140538.585000", "140540.075000", "140541.565000", "140543.055000", "140544.545000", "140546.035000", "140547.525000", "140549.015000", "140550.505000", "140551.995000", "140553.485000", "140554.975000", "140556.465000", "140557.955000", "140559.445000", "140600.935000", "140602.425000", "140603.915000", "140605.405000", "140606.895000", "140608.385000", "140609.875000", "140611.365000", "140612.855000", "140614.345000", "140615.835000", "140617.325000", "140618.815000", "140620.305000", "140621.795000", "140623.285000", "140624.775000", "140626.265000", "140627.755000", "140629.245000", "140630.735000", "140632.225000", "140633.715000", "140635.205000", "140636.695000", "140638.185000", "140639.675000", "140641.165000", "140642.655000", "140644.145000", "140645.635000", "140647.125000", "140648.615000", "140650.105000", "140651.595000", "140653.085000", "140654.575000", "140656.065000", "140657.555000", "140659.045000", "140700.535000", "140702.025000", "140703.515000", "140705.005000", "140706.495000", "140707.985000", "140709.475000", "140710.965000", "140712.455000", "140713.945000", "140715.435000", "140716.925000", "140718.415000", "140719.905000", "140721.395000", "140722.885000", "140724.375000", "140725.865000", "140727.355000", "140728.845000", "140730.335000", "140731.825000", "140733.315000", "140734.805000", "140736.295000", "140737.785000", "140739.275000", "140740.765000", "140742.255000", "140743.745000", "140745.235000", "140746.725000", "140748.215000", "140749.705000", "140751.195000", "140752.685000", "140754.175000", "140755.665000", "140757.155000", "140758.645000", "140800.135000", "140801.625000", "140803.115000", "140804.605000", "140806.095000", "140807.585000", "140809.075000", "140810.565000", "140812.055000", "140813.545000", "140815.035000", "140816.525000", "140818.015000", "140819.505000", "140820.995000", "140822.485000", "140823.975000", "140825.465000", "140826.955000", "140828.445000", "140829.935000", "140831.425000", "140832.915000", "140834.405000", "140835.895000", "140837.385000", "140838.875000", "140840.365000", "140841.855000", "140843.345000"],
      "ContentTime": ["135752.038000", "135752.041000", "135752.044000", "135752.046000", "135752.049000", "135812.059000", "135812.062000", "135812.065000", "135812.067000", "135812.077000", "135812.080000", "135812.082000", "135812.085000", "135812.087000", "135812.090000", "135812.093000", "135812.095000", "135812.097000", "135812.100000", "135812.103000", "135812.105000", "135812.108000", "135812.110000", "135812.113000", "135812.116000", "135832.054000", "135832.058000", "135832.060000", "135832.095000", "135832.098000", "135832.100000", "135832.103000", "135832.106000", "135832.108000", "135832.111000", "135832.113000", "135832.116000", "135832.119000", "135832.121000", "135832.124000", "135832.127000", "135832.129000", "135832.132000", "135832.134000", "135832.137000", "135852.091000", "135852.094000", "135852.096000", "135852.099000", "135852.102000", "135852.104000", "135852.107000", "135852.110000", "135852.112000", "135852.115000", "135852.117000", "135852.120000", "135852.123000", "135852.125000", "135852.128000", "135852.130000", "135852.133000", "135852.136000", "135852.138000", "135852.141000", "135912.057000", "135912.060000", "135912.072000", "135912.075000", "135912.078000", "135912.080000", "135912.083000", "135912.085000", "135912.088000", "135912.091000", "135912.093000", "135912.096000", "135912.098000", "135912.101000", "135912.103000", "135912.106000", "135912.108000", "135912.111000", "135912.118000", "135912.121000", "135912.123000", "135952.139000", "135952.142000", "135952.145000", "135952.147000", "135952.150000", "135952.152000", "135952.155000", "135952.158000", "135952.160000", "135952.163000", "135952.166000", "135952.169000", "135952.172000", "135952.174000", "135952.177000", "135952.180000", "135952.182000", "135952.185000", "135952.187000", "135952.190000", "135952.193000", "135952.195000", "135952.198000", "135952.201000", "135952.203000", "135952.206000", "135952.209000", "135952.211000", "135952.214000", "140032.107000", "140032.110000", "140032.120000", "140032.122000", "140032.125000", "140032.127000", "140032.130000", "140032.133000", "140032.135000", "140032.138000", "140032.141000", "140032.144000", "140032.146000", "140032.149000", "140032.152000", "140032.154000", "140032.157000", "140032.159000", "140032.162000", "140032.165000", "140032.167000", "140032.170000", "140032.172000", "140032.175000", "140032.178000", "140032.180000", "140032.192000", "140112.097000", "140112.099000", "140112.102000", "140112.105000", "140112.107000", "140112.110000", "140112.112000", "140112.115000", "140112.117000", "140112.120000", "140112.122000", "140112.125000", "140112.127000", "140112.130000", "140112.132000", "140112.135000", "140112.138000", "140112.140000", "140112.150000", "140112.153000", "140112.155000", "140112.158000", "140112.160000", "140112.163000", "140112.165000", "140112.168000", "140112.170000", "140152.100000", "140152.102000", "140152.105000", "140152.107000", "140152.110000", "140152.113000", "140152.116000", "140152.118000", "140152.121000", "140152.124000", "140152.126000", "140152.129000", "140152.131000", "140152.134000", "140152.137000", "140152.139000", "140152.142000", "140152.144000", "140152.147000", "140152.150000", "140152.152000", "140152.155000", "140152.158000", "140152.160000", "140152.163000", "140152.165000", "140152.168000", "140232.100000", "140232.103000", "140232.106000", "140232.109000", "140232.118000", "140232.121000", "140232.124000", "140232.126000", "140232.129000", "140232.131000", "140232.134000", "140232.137000", "140232.139000", "140232.142000", "140232.144000", "140232.147000", "140232.149000", "140232.152000", "140232.155000", "140232.157000", "140232.160000", "140232.162000", "140232.165000", "140232.168000", "140232.170000", "140232.173000", "140232.175000", "140312.086000", "140312.089000", "140312.092000", "140312.094000", "140312.097000", "140312.100000", "140312.103000", "140312.105000", "140312.108000", "140312.110000", "140312.113000", "140312.116000", "140312.118000", "140312.121000", "140312.124000", "140312.126000", "140312.129000", "140312.131000", "140312.134000", "140312.136000", "140312.139000", "140312.141000", "140312.144000", "140312.146000", "140312.149000", "140312.152000", "140312.154000", "140352.102000", "140352.105000", "140352.107000", "140352.110000", "140352.113000", "140352.115000", "140352.118000", "140352.120000", "140352.123000", "140352.126000", "140352.129000", "140352.132000", "140352.135000", "140352.137000", "140352.140000", "140352.143000", "140352.145000", "140352.148000", "140352.150000", "140352.153000", "140352.156000", "140352.158000", "140352.161000", "140352.163000", "140352.166000", "140352.169000", "140352.171000", "140432.122000", "140432.126000", "140432.129000", "140432.132000", "140432.135000", "140432.138000", "140432.140000", "140432.143000", "140432.146000", "140432.148000", "140432.151000", "140432.154000", "140432.156000", "140432.170000", "140432.173000", "140432.175000", "140432.178000", "140432.181000", "140432.183000", "140432.186000", "140432.189000", "140432.191000", "140432.194000", "140432.196000", "140432.199000", "140432.202000", "140512.101000", "140512.104000", "140512.107000", "140512.109000", "140512.118000", "140512.120000", "140512.123000", "140512.126000", "140512.128000", "140512.131000", "140512.133000", "140512.136000", "140512.139000", "140512.142000", "140512.144000", "140512.147000", "140512.149000", "140512.152000", "140512.154000", "140512.157000", "140512.160000", "140512.162000", "140512.165000", "140512.168000", "140512.170000", "140512.173000", "140512.175000", "140532.053000", "140532.056000", "140532.059000", "140532.061000", "140532.064000", "140532.066000", "140532.069000", "140532.072000", "140532.075000", "140532.077000", "140532.080000", "140532.082000", "140532.085000", "140532.088000", "140612.605000", "140612.608000", "140612.610000", "140612.613000", "140612.616000", "140612.619000", "140612.621000", "140612.624000", "140612.626000", "140612.629000", "140612.632000", "140612.634000", "140612.637000", "140612.640000", "140612.642000", "140612.645000", "140612.647000", "140612.650000", "140612.652000", "140612.655000", "140612.658000", "140612.660000", "140612.663000", "140612.666000", "140612.668000", "140612.680000", "140652.103000", "140652.106000", "140652.109000", "140652.111000", "140652.114000", "140652.117000", "140652.119000", "140652.122000", "140652.125000", "140652.127000", "140652.130000", "140652.133000", "140652.135000", "140652.138000", "140652.140000", "140652.143000", "140652.151000", "140652.153000", "140652.156000", "140652.159000", "140652.162000", "140652.165000", "140652.168000", "140652.172000", "140652.175000", "140652.178000", "140652.181000", "140732.096000", "140732.098000", "140732.101000", "140732.104000", "140732.106000", "140732.109000", "140732.112000", "140732.114000", "140732.117000", "140732.120000", "140732.123000", "140732.125000", "140732.128000", "140732.131000", "140732.134000", "140732.136000", "140732.139000", "140732.141000", "140732.144000", "140732.147000", "140732.149000", "140732.152000", "140732.154000", "140732.157000", "140732.159000", "140732.162000", "140732.164000", "140812.082000", "140812.085000", "140812.087000", "140812.090000", "140812.112000", "140812.115000", "140812.117000", "140812.120000", "140812.122000", "140812.125000", "140812.127000", "140812.130000", "140812.133000", "140812.135000", "140812.138000", "140812.140000", "140812.143000", "140812.145000", "140812.148000", "140812.151000", "140812.153000", "140812.156000", "140812.158000", "140812.161000", "140812.163000", "140812.166000", "140812.169000", "140845.753000", "140845.756000", "140845.765000", "140845.768000", "140845.770000", "140845.773000", "140845.776000", "140845.778000", "140845.781000", "140845.783000", "140845.786000", "140845.789000", "140845.791000", "140845.794000", "140845.796000", "140845.799000", "140845.802000", "140845.804000", "140845.807000", "140845.809000", "140845.812000", "140845.814000", "140845.817000"],
