{
  "AcquisitionMatrixPE": 104,
  "AcquisitionNumber": 1,
  "AcquisitionTime": "14:11:45.580000",
  "BandwidthPerPixelPhaseEncode": 17.17,
  "BaseResolution": 104,
  "BodyPartExamined": "BRAIN",
  "CoilCombinationMethod": "Sum of Squares",
  "ConsistencyInfo": "N4_VE11C_LATEST_20160120",
  "ConversionSoftware": "dcm2niix",
  "ConversionSoftwareVersion": "v1.0.20211006",
  "DerivedVendorReportedEchoSpacing": 0.000560011,
  "DeviceSerialNumber": "167006",
  "DwellTime": 2.1e-06,
  "EchoTime": 0.037,
  "EchoTrainLength": 104,
  "EffectiveEchoSpacing": 0.000560011,
  "FlipAngle": 52,
  "HeudiconvVersion": "0.11.3.post9+gc939bf8",
  "ImageComments": "Unaliased MB4/PE3/LB",
  "ImageOrientationPatientDICOM": [0.999748, 0.00232223, 0.0223475, 0.00383877, 0.962364, -0.271737],
  "ImageOrientationText": "Tra>Cor(-15.8)>Sag(1.3)",
  "ImageType": [
    "ORIGINAL",
    "PRIMARY",
    "M",
    "MB",
    "ND",
    "MOSAIC"
],
  "ImagingFrequency": 123.259,
  "InPlanePhaseEncodingDirectionDICOM": "COL",
  "InstitutionAddress": "Chemin Queen-Mary 4565,Montreal,District,CA,H3W 1W5",
  "InstitutionName": "IUGM",
  "InstitutionalDepartmentName": "Department",
  "MRAcquisitionType": "2D",
  "MagneticFieldStrength": 3,
  "Manufacturer": "Siemens",
  "ManufacturersModelName": "Prisma_fit",
  "MatrixCoilMode": "SENSE",
  "Modality": "MR",
  "MultibandAccelerationFactor": 4,
  "PartialFourier": 1,
  "PatientPosition": "HFS",
  "PercentPhaseFOV": 100,
  "PercentSampling": 100,
  "PhaseEncodingDirection": "j",
  "PhaseEncodingSteps": 104,
  "PhaseResolution": 1,
  "PixelBandwidth": 2290,
  "ProcedureStepDescription": "games^mariostars",
  "ProtocolName": "func_task-mariostars_run-02",
  "PulseSequenceDetails": "%CustomerSeq%\\cmrr_mbep2d_bold",
  "ReceiveCoilActiveElements": "HC1-7;NC1,2",
  "ReceiveCoilName": "HeadNeck_64",
  "ReconMatrixPE": 104,
  "RepetitionTime": 1.49,
  "SAR": 0.0700758,
  "ScanOptions": "FS",
  "ScanningSequence": "EP",
  "SequenceName": "epfid2d1_104",
  "SequenceVariant": "SK\\SS",
  "SeriesDescription": "func_task-mariostars_run-02",
  "SeriesNumber": 14,
  "ShimSetting": [632, -7206, -8775, 680, 56, 6, 2, -28],
  "SliceThickness": 2,
  "SliceTiming": [0, 0.7825, 0.0975, 0.88, 0.195, 0.98, 0.2925, 1.0775, 0.3925, 1.175, 0.49, 1.2725, 0.5875, 1.37, 0.685, 0, 0.7825, 0.0975, 0.88, 0.195, 0.98, 0.2925, 1.0775, 0.3925, 1.175, 0.49, 1.2725, 0.5875, 1.37, 0.685, 0, 0.7825, 0.0975, 0.88, 0.195, 0.98, 0.2925, 1.0775, 0.3925, 1.175, 0.49, 1.2725, 0.5875, 1.37, 0.685, 0, 0.7825, 0.0975, 0.88, 0.195, 0.98, 0.2925, 1.0775, 0.3925, 1.175, 0.49, 1.2725, 0.5875, 1.37, 0.685],
  "SoftwareVersions": "syngo MR E11",
  "SpacingBetweenSlices": 2,
  "StationName": "MRC35049",
  "TaskName": "mariostars",
  "TotalReadoutTime": 0.0576811,
  "TxRefAmp": 245.242,
  "WipMemBlock": "639ccd74-e3c2-4bec-a060-901b436698be||Sequence: R017 ve11c/master r/75a17815+; Jun 28 2022 16:32:11 by eja",
  "dcmmeta_affine": [
    [-1.9994951486587524, 0.007677546702325344, 0.04427491873502731, 106.92797088623047],
    [-0.004644469358026981, 1.9247277975082397, -0.5435082316398621, -72.7157211303711],
    [0.04469498619437218, 0.5434738397598267, 1.9242241382598877, -60.39126968383789],
    [0.0, 0.0, 0.0, 1.0]
],
  "dcmmeta_reorient_transform": [
    [0.0, -1.0, 0.0, 103.0],
    [1.0, 0.0, 0.0, 0.0],
    [0.0, 0.0, 1.0, 0.0],
    [0.0, 0.0, 0.0, 1.0]
],
  "dcmmeta_shape": [104, 104, 60, 459],
  "dcmmeta_slice_dim": 2,
  "dcmmeta_version": 0.6,
  "global": {
    "const": {
      "AcquisitionMatrix": [104, 0, 0, 104],
      "AngioFlag": "N",
      "BitsAllocated": 16,
      "BitsStored": 16,
      "BodyPartExamined": "BRAIN",
      "Columns": 832,
      "EchoNumbers": 1,
      "EchoTime": 37.0,
      "EchoTrainLength": 104,
      "FlipAngle": 52.0,
      "HighBit": 15,
      "ImageOrientationPatient": [0.99974756651261, 0.00232223469628, 0.02234749377731, 0.00383877332926, 0.96236391715797, -0.2717369219883],
      "ImagePositionPatient": [-838.32961583631, -827.82276437484, 177.14203822239],
      "ImageType": [
        "ORIGINAL",
        "PRIMARY",
        "M",
        "MB",
        "ND",
        "MOSAIC"
],
      "ImagedNucleus": "1H",
      "ImagingFrequency": 123.258813,
      "InPlanePhaseEncodingDirection": "COL",
      "MRAcquisitionType": "2D",
      "MagneticFieldStrength": 3.0,
      "Manufacturer": "SIEMENS",
      "ManufacturerModelName": "Prisma_fit",
      "Modality": "MR",
      "NumberOfAverages": 1.0,
      "NumberOfPhaseEncodingSteps": 104,
      "PercentPhaseFieldOfView": 100.0,
      "PercentSampling": 100.0,
      "PerformedProcedureStepStartTime": "135307.940000",
      "PhotometricInterpretation": "MONOCHROME2",
      "PixelBandwidth": 2290.0,
      "PixelRepresentation": 0,
      "PixelSpacing": [2.0, 2.0],
      "ProtocolName": "func_task-mariostars_run-02",
      "RepetitionTime": 1490.0,
      "Rows": 832,
      "SAR": 0.07007574769251,
      "SamplesPerPixel": 1,
      "ScanOptions": "FS",
      "ScanningSequence": "EP",
      "SequenceName": "epfid2d1_104",
      "SequenceVariant": [
        "SK",
        "SS"
],
      "SeriesDescription": "func_task-mariostars_run-02",
      "SeriesNumber": 14,
      "SeriesTime": "141314.032000",
      "SliceLocation": -35.975261266334,
      "SliceThickness": 2.0,
      "SmallestImagePixelValue": 0,
      "SoftwareVersions": "syngo MR E11",
      "SpacingBetweenSlices": 2.0000000280277,
      "SpecificCharacterSet": "ISO_IR 100",
      "StudyID": "1",
      "StudyTime": "135307.863000",
      "TransmitCoilName": "Body",
      "VariableFlipAngleFlag": "N",
      "WindowCenterWidthExplanation": "Algo1",
      "dBdt": 0.0},
    "slices": {}
  },
  "time": {
    "samples": {
      "AcquisitionNumber": [1, 2, 3, 4, 5, 6, 7, 8, 9, 10, 11, 12, 13, 14, 15, 16, 17, 18, 19, 20, 21, 22, 23, 24, 25, 26, 27, 28, 29, 30, 31, 32, 33, 34, 35, 36, 37, 38, 39, 40, 41, 42, 43, 44, 45, 46, 47, 48, 49, 50, 51, 52, 53, 54, 55, 56, 57, 58, 59, 60, 61, 62, 63, 64, 65, 66, 67, 68, 69, 70, 71, 72, 73, 74, 75, 76, 77, 78, 79, 80, 81, 82, 83, 84, 85, 86, 87, 88, 89, 90, 91, 92, 93, 94, 95, 96, 97, 98, 99, 100, 101, 102, 103, 104, 105, 106, 107, 108, 109, 110, 111, 112, 113, 114, 115, 116, 117, 118, 119, 120, 121, 122, 123, 124, 125, 126, 127, 128, 129, 130, 131, 132, 133, 134, 135, 136, 137, 138, 139, 140, 141, 142, 143, 144, 145, 146, 147, 148, 149, 150, 151, 152, 153, 154, 155, 156, 157, 158, 159, 160, 161, 162, 163, 164, 165, 166, 167, 168, 169, 170, 171, 172, 173, 174, 175, 176, 177, 178, 179, 180, 181, 182, 183, 184, 185, 186, 187, 188, 189, 190, 191, 192, 193, 194, 195, 196, 197, 198, 199, 200, 201, 202, 203, 204, 205, 206, 207, 208, 209, 210, 211, 212, 213, 214, 215, 216, 217, 218, 219, 220, 221, 222, 223, 224, 225, 226, 227, 228, 229, 230, 231, 232, 233, 234, 235, 236, 237, 238, 239, 240, 241, 242, 243, 244, 245, 246, 247, 248, 249, 250, 251, 252, 253, 254, 255, 256, 257, 258, 259, 260, 261, 262, 263, 264, 265, 266, 267, 268, 269, 270, 271, 272, 273, 274, 275, 276, 277, 278, 279, 280, 281, 282, 283, 284, 285, 286, 287, 288, 289, 290, 291, 292, 293, 294, 295, 296, 297, 298, 299, 300, 301, 302, 303, 304, 305, 306, 307, 308, 309, 310, 311, 312, 313, 314, 315, 316, 317, 318, 319, 320, 321, 322, 323, 324, 325, 326, 327, 328, 329, 330, 331, 332, 333, 334, 335, 336, 337, 338, 339, 340, 341, 342, 343, 344, 345, 346, 347, 348, 349, 350, 351, 352, 353, 354, 355, 356, 357, 358, 359, 360, 361, 362, 363, 364, 365, 366, 367, 368, 369, 370, 371, 372, 373, 374, 375, 376, 377, 378, 379, 380, 381, 382, 383, 384, 385, 386, 387, 388, 389, 390, 391, 392, 393, 394, 395, 396, 397, 398, 399, 400, 401, 402, 403, 404, 405, 406, 407, 408, 409, 410, 411, 412, 413, 414, 415, 416, 417, 418, 419, 420, 421, 422, 423, 424, 425, 426, 427, 428, 429, 430, 431, 432, 433, 434, 435, 436, 437, 438, 439, 440, 441, 442, 443, 444, 445, 446, 447, 448, 449, 450, 451, 452, 453, 454, 455, 456, 457, 458, 459],
      "AcquisitionTime": ["141145.580000", "141147.070000", "141148.560000", "141150.050000", "141151.540000", "141153.030000", "141154.520000", "141156.010000", "141157.500000", "141158.990000", "141200.480000", "141201.970000", "141203.460000", "141204.950000", "141206.440000", "141207.930000", "141209.420000", "141210.910000", "141212.400000", "141213.890000", "141215.380000", "141216.870000", "141218.360000", "141219.850000", "141221.340000", "141222.830000", "141224.320000", "141225.810000", "141227.300000", "141228.790000", "141230.280000", "141231.770000", "141233.260000", "141234.750000", "141236.240000", "141237.730000", "141239.220000", "141240.710000", "141242.200000", "141243.690000", "141245.180000", "141246.670000", "141248.160000", "141249.650000", "141251.140000", "141252.630000", "141254.120000", "141255.610000", "141257.100000", "141258.590000", "141300.080000", "141301.570000", "141303.060000", "141304.550000", "141306.040000", "141307.530000", "141309.020000", "141310.510000", "141312.000000", "141313.490000", "141314.980000", "141316.470000", "141317.960000", "141319.450000", "141320.940000", "141322.430000", "141323.920000", "141325.410000", "141326.900000", "141328.390000", "141329.880000", "141331.370000", "141332.860000", "141334.350000", "141335.840000", "141337.330000", "141338.820000", "141340.310000", "141341.800000", "141343.290000", "141344.780000", "141346.270000", "141347.760000", "141349.250000", "141350.740000", "141352.230000", "141353.720000", "141355.210000", "141356.700000", "141358.190000", "141359.680000", "141401.170000", "141402.660000", "141404.150000", "141405.640000", "141407.130000", "141408.620000", "141410.110000", "141411.600000", "141413.090000", "141414.580000", "141416.070000", "141417.560000", "141419.050000", "141420.540000", "141422.030000", "141423.520000", "141425.010000", "141426.500000", "141427.990000", "141429.480000", "141430.970000", "141432.460000", "141433.950000", "141435.440000", "141436.930000", "141438.420000", "141439.910000", "141441.400000", "141442.890000", "141444.380000", "141445.870000", "141447.360000", "141448.850000", "141450.340000", "141451.830000", "141453.320000", "141454.810000", "141456.300000", "141457.790000", "141459.280000", "141500.770000", "141502.260000", "141503.750000", "141505.240000", "141506.730000", "141508.220000", "141509.710000", "141511.200000", "141512.690000", "141514.180000", "141515.670000", "141517.160000", "141518.650000", "141520.140000", "141521.630000", "141523.120000", "141524.610000", "141526.100000", "141527.590000", "141529.080000", "141530.570000", "141532.060000", "141533.550000", "141535.040000", "141536.530000", "141538.020000", "141539.510000", "141541.000000", "141542.490000", "141543.980000", "141545.470000", "141546.960000", "141548.450000", "141549.940000", "141551.430000", "141552.920000", "141554.410000", "141555.900000", "141557.390000", "141558.880000", "141600.370000", "141601.860000", "141603.350000", "141604.840000", "141606.330000", "141607.820000", "141609.310000", "141610.800000", "141612.290000", "141613.780000", "141615.270000", "141616.760000", "141618.250000", "141619.740000", "141621.230000", "141622.720000", "141624.210000", "141625.700000", "141627.190000", "141628.680000", "141630.170000", "141631.660000", "141633.150000", "141634.640000", "141636.130000", "141637.620000", "141639.110000", "141640.600000", "141642.090000", "141643.580000", "141645.070000", "141646.560000", "141648.050000", "141649.540000", "141651.030000", "141652.520000", "141654.010000", "141655.500000", "141656.990000", "141658.480000", "141659.970000", "141701.460000", "141702.950000", "141704.440000", "141705.930000", "141707.420000", "141708.910000", "141710.400000", "141711.890000", "141713.380000", "141714.870000", "141716.360000", "141717.850000", "141719.340000", "141720.830000", "141722.320000", "141723.810000", "141725.300000", "141726.790000", "141728.280000", "141729.770000", "141731.260000", "141732.750000", "141734.240000", "141735.730000", "141737.220000", "141738.710000", "141740.200000", "141741.690000", "141743.180000", "141744.670000", "141746.160000", "141747.650000", "141749.140000", "141750.630000", "141752.120000", "141753.610000", "141755.100000", "141756.590000", "141758.080000", "141759.570000", "141801.060000", "141802.550000", "141804.040000", "141805.530000", "141807.020000", "141808.510000", "141810.000000", "141811.490000", "141812.980000", "141814.470000", "141815.960000", "141817.450000", "141818.940000", "141820.430000", "141821.920000", "141823.410000", "141824.900000", "141826.390000", "141827.880000", "141829.370000", "141830.860000", "141832.350000", "141833.840000", "141835.330000", "141836.820000", "141838.310000", "141839.800000", "141841.290000", "141842.780000", "141844.270000", "141845.760000", "141847.250000", "141848.740000", "141850.230000", "141851.720000", "141853.210000", "141854.700000", "141856.190000", "141857.680000", "141859.170000", "141900.660000", "141902.150000", "141903.640000", "141905.130000", "141906.620000", "141908.110000", "141909.600000", "141911.090000", "141912.580000", "141914.070000", "141915.560000", "141917.050000", "141918.540000", "141920.030000", "141921.520000", "141923.010000", "141924.500000", "141925.990000", "141927.480000", "141928.970000", "141930.460000", "141931.950000", "141933.440000", "141934.930000", "141936.420000", "141937.910000", "141939.400000", "141940.890000", "141942.380000", "141943.870000", "141945.360000", "141946.850000", "141948.340000", "141949.830000", "141951.320000", "141952.810000", "141954.300000", "141955.790000", "141957.280000", "141958.770000", "142000.260000", "142001.750000", "142003.240000", "142004.730000", "142006.220000", "142007.710000", "142009.200000", "142010.690000", "142012.180000", "142013.670000", "142015.160000", "142016.650000", "142018.140000", "142019.630000", "142021.120000", "142022.610000", "142024.100000", "142025.590000", "142027.080000", "142028.570000", "142030.060000", "142031.550000", "142033.040000", "142034.530000", "142036.020000", "142037.510000", "142039.000000", "142040.490000", "142041.980000", "142043.470000", "142044.960000", "142046.450000", "142047.940000", "142049.430000", "142050.920000", "142052.410000", "142053.900000", "142055.390000", "142056.880000", "142058.370000", "142059.860000", "142101.350000", "142102.840000", "142104.330000", "142105.820000", "142107.310000", "142108.800000", "142110.290000", "142111.780000", "142113.270000", "142114.760000", "142116.250000", "142117.740000", "142119.230000", "142120.720000", "142122.210000", "142123.700000", "142125.190000", "142126.680000", "142128.170000", "142129.660000", "142131.150000", "142132.640000", "142134.130000", "142135.620000", "142137.110000", "142138.600000", "142140.090000", "142141.580000", "142143.070000", "142144.560000", "142146.050000", "142147.540000", "142149.030000", "142150.520000", "142152.010000", "142153.500000", "142154.990000", "142156.480000", "142157.970000", "142159.460000", "142200.950000", "142202.440000", "142203.930000", "142205.420000", "142206.910000", "142208.400000", "142209.890000", "142211.380000", "142212.870000", "142214.360000", "142215.850000", "142217.340000", "142218.830000", "142220.320000", "142221.810000", "142223.300000", "142224.790000", "142226.280000", "142227.770000", "142229.260000", "142230.750000", "142232.240000", "142233.730000", "142235.220000", "142236.710000", "142238.200000", "142239.690000", "142241.180000", "142242.670000", "142244.160000", "142245.650000", "142247.140000", "142248.630000", "142250.120000", "142251.610000", "142253.100000", "142254.590000", "142256.080000", "142257.570000", "142259.060000", "142300.550000", "142302.040000", "142303.530000", "142305.020000", "142306.510000", "142308.000000"],
      "ContentTime": ["141314.035000", "141314.038000", "141314.042000", "141314.045000", "141314.049000", "141314.052000", "141314.055000", "141314.059000", "141314.069000", "141314.072000", "141314.076000", "141314.079000", "141314.082000", "141314.086000", "141314.089000", "141314.093000", "141314.096000", "141314.099000", "141314.102000", "141314.106000", "141314.109000", "141314.113000", "141314.123000", "141314.126000", "141314.129000", "141314.133000", "141314.136000", "141314.139000", "141314.143000", "141314.146000", "141314.150000", "141314.153000", "141314.156000", "141314.160000", "141314.163000", "141314.167000", "141314.170000", "141314.174000", "141314.177000", "141334.003000", "141334.007000", "141334.010000", "141334.014000", "141334.018000", "141334.022000", "141334.025000", "141334.029000", "141334.033000", "141334.037000", "141334.040000", "141334.044000", "141334.047000", "141334.051000", "141334.055000", "141334.058000", "141334.061000", "141334.065000", "141334.068000", "141334.071000", "141354.003000", "141354.017000", "141354.020000", "141354.023000", "141354.027000", "141354.030000", "141354.034000", "141354.037000", "141354.041000", "141354.044000", "141354.047000", "141354.051000", "141354.054000", "141354.057000", "141354.061000", "141354.064000", "141354.067000", "141354.071000", "141354.075000", "141354.078000", "141354.082000", "141434.003000", "141434.007000", "141434.010000", "141434.014000", "141434.017000", "141434.021000", "141434.024000", "141434.028000", "141434.031000", "141434.034000", "141434.038000", "141434.041000", "141434.045000", "141434.048000", "141434.051000", "141434.055000", "141434.058000", "141434.062000", "141434.065000", "141434.068000", "141434.072000", "141434.075000", "141434.078000", "141434.082000", "141434.085000", "141434.088000", "141434.092000", "141434.095000", "141434.104000", "141434.108000", "141434.111000", "141434.114000", "141514.004000", "141514.008000", "141514.011000", "141514.015000", "141514.018000", "141514.021000", "141514.025000", "141514.028000", "141514.032000", "141514.035000", "141514.038000", "141514.042000", "141514.045000", "141514.048000", "141514.052000", "141514.055000", "141514.059000", "141514.062000", "141514.065000", "141514.069000", "141514.072000", "141514.075000", "141514.079000", "141514.082000", "141514.086000", "141514.089000", "141514.092000", "141534.003000", "141534.007000", "141534.011000", "141534.014000", "141534.017000", "141534.021000", "141534.024000", "141534.028000", "141534.031000", "141534.034000", "141534.038000", "141534.041000", "141534.044000", "141614.003000", "141614.007000", "141614.011000", "141614.027000", "141614.030000", "141614.033000", "141614.037000", "141614.040000", "141614.044000", "141614.047000", "141614.050000", "141614.054000", "141614.057000", "141614.060000", "141614.064000", "141614.067000", "141614.079000", "141614.083000", "141614.086000", "141614.089000", "141614.093000", "141614.096000", "141614.099000", "141614.103000", "141614.106000", "141614.110000", "141614.113000", "141654.003000", "141654.007000", "141654.010000", "141654.014000", "141654.017000", "141654.021000", "141654.024000", "141654.028000", "141654.031000", "141654.035000", "141654.038000", "141654.042000", "141654.045000", "141654.048000", "141654.052000", "141654.055000", "141654.059000", "141654.071000", "141654.075000", "141654.078000", "141654.081000", "141654.088000", "141654.092000", "141654.095000", "141654.098000", "141654.102000", "141654.105000", "141734.004000", "141734.008000", "141734.012000", "141734.020000", "141734.023000", "141734.026000", "141734.030000", "141734.033000", "141734.037000", "141734.040000", "141734.044000", "141734.047000", "141734.050000", "141734.054000", "141734.057000", "141734.064000", "141734.067000", "141734.070000", "141734.074000", "141734.077000", "141734.080000", "141734.084000", "141734.087000", "141734.091000", "141734.094000", "141734.098000", "141734.101000", "141814.003000", "141814.007000", "141814.011000", "141814.014000", "141814.018000", "141814.021000", "141814.025000", "141814.028000", "141814.031000", "141814.035000", "141814.038000", "141814.042000", "141814.045000", "141814.048000", "141814.052000", "141814.055000", "141814.059000", "141814.062000", "141814.065000", "141814.069000", "141814.072000", "141814.076000", "141814.090000", "141814.094000", "141814.097000", "141814.101000", "141814.104000", "141854.003000", "141854.007000", "141854.010000", "141854.014000", "141854.017000", "141854.021000", "141854.024000", "141854.027000", "141854.031000", "141854.034000", "141854.037000", "141854.041000", "141854.044000", "141854.048000", "141854.052000", "141854.055000", "141854.058000", "141854.062000", "141854.065000", "141854.069000", "141854.073000", "141854.076000", "141854.079000", "141854.083000", "141854.086000", "141854.089000", "141934.003000", "141934.017000", "141934.021000", "141934.025000", "141934.029000", "141934.033000", "141934.036000", "141934.040000", "141934.043000", "141934.047000", "141934.051000", "141934.054000", "141934.058000", "141934.062000", "141934.065000", "141934.069000", "141934.072000", "141934.076000", "141934.079000", "141934.083000", "141934.087000", "141934.091000", "141934.094000", "141934.097000", "141934.101000", "141934.104000", "141934.108000", "142014.003000", "142014.007000", "142014.011000", "142014.014000", "142014.018000", "142014.021000", "142014.025000", "142014.028000", "142014.032000", "142014.035000", "142014.039000", "142014.042000", "142014.045000", "142014.049000", "142014.052000", "142014.056000", "142014.059000", "142014.062000", "142014.066000", "142014.069000", "142014.073000", "142014.076000", "142014.080000", "142014.083000", "142014.086000", "142014.090000", "142014.093000", "142054.003000", "142054.007000", "142054.010000", "142054.014000", "142054.018000", "142054.021000", "142054.024000", "142054.028000", "142054.031000", "142054.035000", "142054.038000", "142054.041000", "142054.045000", "142054.048000", "142054.052000", "142054.055000", "142054.058000", "142054.062000", "142054.065000", "142054.069000", "142054.072000", "142054.076000", "142054.079000", "142054.082000", "142054.086000", "142054.089000", "142054.093000", "142134.003000", "142134.007000", "142134.010000", "142134.014000", "142134.017000", "142134.021000", "142134.024000", "142134.028000", "142134.031000", "142134.034000", "142134.038000", "142134.041000", "142134.045000", "142134.048000", "142134.051000", "142134.055000", "142134.058000", "142134.061000", "142134.065000", "142134.068000", "142134.080000", "142134.083000", "142134.087000", "142134.090000", "142134.093000", "142134.097000", "142134.100000", "142214.004000", "142214.008000", "142214.012000", "142214.015000", "142214.018000", "142214.022000", "142214.025000", "142214.029000", "142214.032000", "142214.035000", "142214.039000", "142214.042000", "142214.046000", "142214.049000", "142214.052000", "142214.056000", "142214.059000", "142214.063000", "142214.066000", "142214.069000", "142214.073000", "142214.081000", "142214.084000", "142214.088000", "142214.091000", "142214.094000", "142214.098000", "142254.003000", "142254.008000", "142254.012000", "142254.016000", "142254.020000", "142254.024000", "142254.028000", "142254.031000", "142254.035000", "142254.038000", "142254.042000", "142254.045000", "142254.048000", "142254.052000", "142254.055000", "142254.059000", "142254.073000", "142254.077000", "142254.080000", "142254.084000", "142254.087000", "142254.090000", "142254.094000", "142254.104000", "142254.107000", "142254.110000", "142310.638000", "142310.641000", "142310.645000", "142310.648000", "142310.651000", "142310.655000", "142310.658000", "142310.662000", "142310.665000", "142310.668000", "142310.672000", "142310.675000"],
