{
  "AcquisitionMatrixPE": 104,
  "AcquisitionNumber": 1,
  "AcquisitionTime": "11:23:51.932500",
  "BandwidthPerPixelPhaseEncode": 17.17,
  "BaseResolution": 104,
  "BodyPartExamined": "BRAIN",
  "CoilCombinationMethod": "Sum of Squares",
  "ConsistencyInfo": "N4_VE11C_LATEST_20160120",
  "ConversionSoftware": "dcm2niix",
  "ConversionSoftwareVersion": "v1.0.20211006",
  "DerivedVendorReportedEchoSpacing": 0.000560011,
  "DeviceSerialNumber": "167006",
  "DwellTime": 2.1e-06,
  "EchoTime": 0.037,
  "EchoTime1": 0.037,
  "EchoTime2": 0.001,
  "EchoTrainLength": 104,
  "EffectiveEchoSpacing": 0.000560011,
  "FlipAngle": 52,
  "HeudiconvVersion": "0.11.3.post9+gc939bf8",
  "ImageComments": "Unaliased MB4/PE3/LB",
  "ImageOrientationPatientDICOM": [0.998884, -0.00868031, 0.0464287, 0.0324382, 0.840567, -0.540736],
  "ImageOrientationText": "Tra>Cor(-32.8)>Sag(2.0)",
  "ImageType": [
    "ORIGINAL",
    "PRIMARY",
    "P",
    "MB",
    "ND",
    "MOSAIC",
    "PHASE"
],
  "ImagingFrequency": 123.259,
  "InPlanePhaseEncodingDirectionDICOM": "COL",
  "InstitutionAddress": "Chemin Queen-Mary 4565,Montreal,District,CA,H3W 1W5",
  "InstitutionName": "IUGM",
  "InstitutionalDepartmentName": "Department",
  "MRAcquisitionType": "2D",
  "MagneticFieldStrength": 3,
  "Manufacturer": "Siemens",
  "ManufacturersModelName": "Prisma_fit",
  "MatrixCoilMode": "SENSE",
  "Modality": "MR",
  "MultibandAccelerationFactor": 4,
  "PartialFourier": 1,
  "PatientPosition": "HFS",
  "PercentPhaseFOV": 100,
  "PercentSampling": 100,
  "PhaseEncodingDirection": "j",
  "PhaseEncodingSteps": 104,
  "PhaseResolution": 1,
  "PixelBandwidth": 2290,
  "ProcedureStepDescription": "games^mariostars",
  "ProtocolName": "func_task-mariostars_run-01",
  "PulseSequenceDetails": "%CustomerSeq%\\cmrr_mbep2d_bold",
  "ReceiveCoilActiveElements": "HC1-7;NC1,2",
  "ReceiveCoilName": "HeadNeck_64",
  "ReconMatrixPE": 104,
  "RepetitionTime": 1.49,
  "SAR": 0.0888272,
  "ScanOptions": "FS",
  "ScanningSequence": "EP",
  "SequenceName": "epfid2d1_104",
  "SequenceVariant": "SK\\SS",
  "SeriesDescription": "func_task-mariostars_run-01",
  "SeriesNumber": 12,
  "ShimSetting": [613, -7199, -8869, 253, 1, -188, 77, 2],
  "SliceThickness": 2,
  "SliceTiming": [0, 0.785, 0.0975, 0.8825, 0.195, 0.98, 0.295, 1.0775, 0.3925, 1.175, 0.49, 1.275, 0.5875, 1.3725, 0.685, 0, 0.785, 0.0975, 0.8825, 0.195, 0.98, 0.295, 1.0775, 0.3925, 1.175, 0.49, 1.275, 0.5875, 1.3725, 0.685, 0, 0.785, 0.0975, 0.8825, 0.195, 0.98, 0.295, 1.0775, 0.3925, 1.175, 0.49, 1.275, 0.5875, 1.3725, 0.685, 0, 0.785, 0.0975, 0.8825, 0.195, 0.98, 0.295, 1.0775, 0.3925, 1.175, 0.49, 1.275, 0.5875, 1.3725, 0.685],
  "SoftwareVersions": "syngo MR E11",
  "SpacingBetweenSlices": 2,
  "StationName": "MRC35049",
  "TaskName": "mariostars",
  "TotalReadoutTime": 0.0576811,
  "TxRefAmp": 341.953,
  "WipMemBlock": "6ad9efb4-a333-46f3-9bfc-06fa712d93f6||Sequence: R017 ve11c/master r/75a17815+; Jun 28 2022 16:32:11 by eja",
  "dcmmeta_affine": [
    [-1.9977678060531616, 0.0648764967918396, 0.06866530328989029, 102.30748748779297],
    [0.0173606239259243, 1.6811333894729614, -1.0832769870758057, -48.8770637512207],
    [0.09285737574100494, 1.0814719200134277, 1.67982017993927, -96.2498550415039],
    [0.0, 0.0, 0.0, 1.0]
],
  "dcmmeta_reorient_transform": [
    [0.0, -1.0, 0.0, 103.0],
    [1.0, 0.0, 0.0, 0.0],
    [0.0, 0.0, 1.0, 0.0],
    [0.0, 0.0, 0.0, 1.0]
],
  "dcmmeta_shape": [104, 104, 60, 481],
  "dcmmeta_slice_dim": 2,
  "dcmmeta_version": 0.6,
  "global": {
    "const": {
      "AcquisitionMatrix": [104, 0, 0, 104],
      "AngioFlag": "N",
      "BitsAllocated": 16,
      "BitsStored": 16,
      "BodyPartExamined": "BRAIN",
      "Columns": 832,
      "EchoNumbers": 1,
      "EchoTime": 37.0,
      "EchoTrainLength": 104,
      "FlipAngle": 52.0,
      "HighBit": 15,
      "ImageOrientationPatient": [0.9988838916905, -0.008680311795, 0.04642868841991, 0.03243824780698, 0.84056669100106, -0.5407359781434],
      "ImagePositionPatient": [-859.79228398459, -729.89296008365, 374.99746403069],
      "ImageType": [
        "ORIGINAL",
        "PRIMARY",
        "P",
        "MB",
        "ND",
        "MOSAIC"
],
      "ImagedNucleus": "1H",
      "ImagingFrequency": 123.258792,
      "InPlanePhaseEncodingDirection": "COL",
      "LargestImagePixelValue": 4095,
      "MRAcquisitionType": "2D",
      "MagneticFieldStrength": 3.0,
      "Manufacturer": "SIEMENS",
      "ManufacturerModelName": "Prisma_fit",
      "Modality": "MR",
      "NumberOfAverages": 1.0,
      "NumberOfPhaseEncodingSteps": 104,
      "PercentPhaseFieldOfView": 100.0,
      "PercentSampling": 100.0,
      "PerformedProcedureStepStartTime": "112005.055000",
      "PhotometricInterpretation": "MONOCHROME2",
      "PixelBandwidth": 2290.0,
      "PixelRepresentation": 0,
      "PixelSpacing": [2.0, 2.0],
      "ProtocolName": "func_task-mariostars_run-01",
      "RepetitionTime": 1490.0,
      "RescaleIntercept": -4096.0,
      "RescaleSlope": 2.0,
      "RescaleType": "US",
      "Rows": 832,
      "SAR": 0.08882718516587,
      "SamplesPerPixel": 1,
      "ScanOptions": "FS",
      "ScanningSequence": "EP",
      "SequenceName": "epfid2d1_104",
      "SequenceVariant": [
        "SK",
        "SS"
],
      "SeriesDescription": "func_task-mariostars_run-01",
      "SeriesNumber": 12,
      "SeriesTime": "112506.239000",
      "SliceLocation": -50.85503773599,
      "SliceThickness": 2.0,
      "SmallestImagePixelValue": 0,
      "SoftwareVersions": "syngo MR E11",
      "SpacingBetweenSlices": 1.9999999518332,
      "SpecificCharacterSet": "ISO_IR 100",
      "StudyID": "1",
      "StudyTime": "112004.971000",
      "TransmitCoilName": "Body",
      "VariableFlipAngleFlag": "N",
      "WindowCenterWidthExplanation": "Algo1",
      "dBdt": 0.0},
    "slices": {}
  },
  "time": {
    "samples": {
      "AcquisitionNumber": [1, 2, 3, 4, 5, 6, 7, 8, 9, 10, 11, 12, 13, 14, 15, 16, 17, 18, 19, 20, 21, 22, 23, 24, 25, 26, 27, 28, 29, 30, 31, 32, 33, 34, 35, 36, 37, 38, 39, 40, 41, 42, 43, 44, 45, 46, 47, 48, 49, 50, 51, 52, 53, 54, 55, 56, 57, 58, 59, 60, 61, 62, 63, 64, 65, 66, 67, 68, 69, 70, 71, 72, 73, 74, 75, 76, 77, 78, 79, 80, 81, 82, 83, 84, 85, 86, 87, 88, 89, 90, 91, 92, 93, 94, 95, 96, 97, 98, 99, 100, 101, 102, 103, 104, 105, 106, 107, 108, 109, 110, 111, 112, 113, 114, 115, 116, 117, 118, 119, 120, 121, 122, 123, 124, 125, 126, 127, 128, 129, 130, 131, 132, 133, 134, 135, 136, 137, 138, 139, 140, 141, 142, 143, 144, 145, 146, 147, 148, 149, 150, 151, 152, 153, 154, 155, 156, 157, 158, 159, 160, 161, 162, 163, 164, 165, 166, 167, 168, 169, 170, 171, 172, 173, 174, 175, 176, 177, 178, 179, 180, 181, 182, 183, 184, 185, 186, 187, 188, 189, 190, 191, 192, 193, 194, 195, 196, 197, 198, 199, 200, 201, 202, 203, 204, 205, 206, 207, 208, 209, 210, 211, 212, 213, 214, 215, 216, 217, 218, 219, 220, 221, 222, 223, 224, 225, 226, 227, 228, 229, 230, 231, 232, 233, 234, 235, 236, 237, 238, 239, 240, 241, 242, 243, 244, 245, 246, 247, 248, 249, 250, 251, 252, 253, 254, 255, 256, 257, 258, 259, 260, 261, 262, 263, 264, 265, 266, 267, 268, 269, 270, 271, 272, 273, 274, 275, 276, 277, 278, 279, 280, 281, 282, 283, 284, 285, 286, 287, 288, 289, 290, 291, 292, 293, 294, 295, 296, 297, 298, 299, 300, 301, 302, 303, 304, 305, 306, 307, 308, 309, 310, 311, 312, 313, 314, 315, 316, 317, 318, 319, 320, 321, 322, 323, 324, 325, 326, 327, 328, 329, 330, 331, 332, 333, 334, 335, 336, 337, 338, 339, 340, 341, 342, 343, 344, 345, 346, 347, 348, 349, 350, 351, 352, 353, 354, 355, 356, 357, 358, 359, 360, 361, 362, 363, 364, 365, 366, 367, 368, 369, 370, 371, 372, 373, 374, 375, 376, 377, 378, 379, 380, 381, 382, 383, 384, 385, 386, 387, 388, 389, 390, 391, 392, 393, 394, 395, 396, 397, 398, 399, 400, 401, 402, 403, 404, 405, 406, 407, 408, 409, 410, 411, 412, 413, 414, 415, 416, 417, 418, 419, 420, 421, 422, 423, 424, 425, 426, 427, 428, 429, 430, 431, 432, 433, 434, 435, 436, 437, 438, 439, 440, 441, 442, 443, 444, 445, 446, 447, 448, 449, 450, 451, 452, 453, 454, 455, 456, 457, 458, 459, 460, 461, 462, 463, 464, 465, 466, 467, 468, 469, 470, 471, 472, 473, 474, 475, 476, 477, 478, 479, 480, 481],
      "AcquisitionTime": ["112351.932500", "112353.422500", "112354.912500", "112356.402500", "112357.892500", "112359.382500", "112400.872500", "112402.362500", "112403.852500", "112405.342500", "112406.832500", "112408.322500", "112409.812500", "112411.302500", "112412.792500", "112414.282500", "112415.772500", "112417.262500", "112418.752500", "112420.242500", "112421.732500", "112423.222500", "112424.712500", "112426.202500", "112427.692500", "112429.182500", "112430.672500", "112432.162500", "112433.652500", "112435.142500", "112436.632500", "112438.122500", "112439.612500", "112441.102500", "112442.592500", "112444.082500", "112445.572500", "112447.062500", "112448.552500", "112450.042500", "112451.532500", "112453.022500", "112454.512500", "112456.002500", "112457.492500", "112458.982500", "112500.472500", "112501.962500", "112503.452500", "112504.942500", "112506.432500", "112507.922500", "112509.412500", "112510.902500", "112512.392500", "112513.882500", "112515.372500", "112516.862500", "112518.352500", "112519.842500", "112521.332500", "112522.822500", "112524.312500", "112525.802500", "112527.292500", "112528.782500", "112530.272500", "112531.762500", "112533.252500", "112534.742500", "112536.232500", "112537.722500", "112539.212500", "112540.702500", "112542.192500", "112543.682500", "112545.172500", "112546.662500", "112548.152500", "112549.642500", "112551.132500", "112552.622500", "112554.112500", "112555.602500", "112557.092500", "112558.582500", "112600.072500", "112601.562500", "112603.052500", "112604.542500", "112606.032500", "112607.522500", "112609.012500", "112610.502500", "112611.992500", "112613.482500", "112614.972500", "112616.462500", "112617.952500", "112619.442500", "112620.932500", "112622.422500", "112623.912500", "112625.402500", "112626.892500", "112628.382500", "112629.872500", "112631.362500", "112632.852500", "112634.342500", "112635.832500", "112637.322500", "112638.812500", "112640.302500", "112641.792500", "112643.282500", "112644.772500", "112646.262500", "112647.752500", "112649.242500", "112650.732500", "112652.222500", "112653.712500", "112655.202500", "112656.692500", "112658.182500", "112659.672500", "112701.162500", "112702.652500", "112704.142500", "112705.632500", "112707.122500", "112708.612500", "112710.102500", "112711.592500", "112713.082500", "112714.572500", "112716.062500", "112717.552500", "112719.042500", "112720.532500", "112722.022500", "112723.512500", "112725.002500", "112726.492500", "112727.982500", "112729.472500", "112730.962500", "112732.452500", "112733.942500", "112735.432500", "112736.922500", "112738.412500", "112739.902500", "112741.392500", "112742.882500", "112744.372500", "112745.862500", "112747.352500", "112748.842500", "112750.332500", "112751.822500", "112753.312500", "112754.802500", "112756.292500", "112757.782500", "112759.272500", "112800.762500", "112802.252500", "112803.742500", "112805.232500", "112806.722500", "112808.212500", "112809.702500", "112811.192500", "112812.682500", "112814.172500", "112815.662500", "112817.152500", "112818.642500", "112820.132500", "112821.622500", "112823.112500", "112824.602500", "112826.092500", "112827.582500", "112829.072500", "112830.562500", "112832.052500", "112833.542500", "112835.032500", "112836.522500", "112838.012500", "112839.502500", "112840.992500", "112842.482500", "112843.972500", "112845.462500", "112846.952500", "112848.442500", "112849.932500", "112851.422500", "112852.912500", "112854.402500", "112855.892500", "112857.382500", "112858.872500", "112900.362500", "112901.852500", "112903.342500", "112904.832500", "112906.322500", "112907.812500", "112909.302500", "112910.792500", "112912.282500", "112913.772500", "112915.262500", "112916.752500", "112918.242500", "112919.732500", "112921.222500", "112922.712500", "112924.202500", "112925.692500", "112927.182500", "112928.672500", "112930.162500", "112931.652500", "112933.142500", "112934.632500", "112936.122500", "112937.612500", "112939.102500", "112940.592500", "112942.082500", "112943.572500", "112945.062500", "112946.552500", "112948.042500", "112949.532500", "112951.022500", "112952.512500", "112954.002500", "112955.492500", "112956.982500", "112958.472500", "112959.962500", "113001.452500", "113002.942500", "113004.432500", "113005.922500", "113007.412500", "113008.902500", "113010.392500", "113011.882500", "113013.372500", "113014.862500", "113016.352500", "113017.842500", "113019.332500", "113020.822500", "113022.312500", "113023.802500", "113025.292500", "113026.782500", "113028.272500", "113029.762500", "113031.252500", "113032.742500", "113034.232500", "113035.722500", "113037.212500", "113038.702500", "113040.192500", "113041.682500", "113043.172500", "113044.662500", "113046.152500", "113047.642500", "113049.132500", "113050.622500", "113052.112500", "113053.602500", "113055.092500", "113056.582500", "113058.072500", "113059.562500", "113101.052500", "113102.542500", "113104.032500", "113105.522500", "113107.012500", "113108.502500", "113109.992500", "113111.482500", "113112.972500", "113114.462500", "113115.952500", "113117.442500", "113118.932500", "113120.422500", "113121.912500", "113123.402500", "113124.892500", "113126.382500", "113127.872500", "113129.362500", "113130.852500", "113132.342500", "113133.832500", "113135.322500", "113136.812500", "113138.302500", "113139.792500", "113141.282500", "113142.772500", "113144.262500", "113145.752500", "113147.242500", "113148.732500", "113150.222500", "113151.712500", "113153.202500", "113154.692500", "113156.182500", "113157.672500", "113159.162500", "113200.652500", "113202.142500", "113203.632500", "113205.122500", "113206.612500", "113208.102500", "113209.592500", "113211.082500", "113212.572500", "113214.062500", "113215.552500", "113217.042500", "113218.532500", "113220.022500", "113221.512500", "113223.002500", "113224.492500", "113225.982500", "113227.472500", "113228.962500", "113230.452500", "113231.942500", "113233.432500", "113234.922500", "113236.412500", "113237.902500", "113239.392500", "113240.882500", "113242.372500", "113243.862500", "113245.352500", "113246.842500", "113248.332500", "113249.822500", "113251.312500", "113252.802500", "113254.292500", "113255.782500", "113257.272500", "113258.762500", "113300.252500", "113301.742500", "113303.232500", "113304.722500", "113306.212500", "113307.702500", "113309.192500", "113310.682500", "113312.172500", "113313.662500", "113315.152500", "113316.642500", "113318.132500", "113319.622500", "113321.112500", "113322.602500", "113324.092500", "113325.582500", "113327.072500", "113328.562500", "113330.052500", "113331.542500", "113333.032500", "113334.522500", "113336.012500", "113337.502500", "113338.992500", "113340.482500", "113341.972500", "113343.462500", "113344.952500", "113346.442500", "113347.932500", "113349.422500", "113350.912500", "113352.402500", "113353.892500", "113355.382500", "113356.872500", "113358.362500", "113359.852500", "113401.342500", "113402.832500", "113404.322500", "113405.812500", "113407.302500", "113408.792500", "113410.282500", "113411.772500", "113413.262500", "113414.752500", "113416.242500", "113417.732500", "113419.222500", "113420.712500", "113422.202500", "113423.692500", "113425.182500", "113426.672500", "113428.162500", "113429.652500", "113431.142500", "113432.632500", "113434.122500", "113435.612500", "113437.102500", "113438.592500", "113440.082500", "113441.572500", "113443.062500", "113444.552500", "113446.042500", "113447.532500", "113449.022500", "113450.512500", "113452.002500", "113453.492500", "113454.982500", "113456.472500", "113457.962500", "113459.452500", "113500.942500", "113502.432500", "113503.922500", "113505.412500", "113506.902500", "113508.392500", "113509.882500", "113511.372500", "113512.862500", "113514.352500", "113515.842500", "113517.332500", "113518.822500", "113520.312500", "113521.802500", "113523.292500", "113524.782500", "113526.272500", "113527.762500", "113529.252500", "113530.742500", "113532.232500", "113533.722500", "113535.212500", "113536.702500", "113538.192500", "113539.682500", "113541.172500", "113542.662500", "113544.152500", "113545.642500", "113547.132500"],
      "ContentTime": ["112506.241000", "112506.244000", "112506.246000", "112506.249000", "112506.252000", "112506.254000", "112506.257000", "112506.259000", "112506.262000", "112506.265000", "112506.267000", "112506.270000", "112506.272000", "112506.275000", "112506.277000", "112506.280000", "112506.283000", "112506.285000", "112506.288000", "112506.290000", "112506.293000", "112506.296000", "112506.298000", "112506.301000", "112506.303000", "112506.306000", "112526.192000", "112526.195000", "112526.198000", "112526.201000", "112526.203000", "112526.206000", "112526.219000", "112526.221000", "112526.224000", "112526.227000", "112526.229000", "112526.232000", "112526.234000", "112526.237000", "112526.240000", "112526.242000", "112526.245000", "112526.247000", "112526.250000", "112526.252000", "112546.186000", "112546.189000", "112546.192000", "112546.195000", "112546.197000", "112546.200000", "112546.202000", "112546.205000", "112546.208000", "112546.210000", "112546.213000", "112546.221000", "112546.223000", "112546.226000", "112546.229000", "112546.231000", "112546.234000", "112546.236000", "112546.239000", "112546.242000", "112606.208000", "112606.212000", "112606.214000", "112606.217000", "112606.220000", "112606.222000", "112606.225000", "112606.227000", "112606.230000", "112606.233000", "112606.235000", "112606.238000", "112606.241000", "112606.243000", "112606.246000", "112606.249000", "112606.252000", "112606.254000", "112606.257000", "112606.259000", "112646.241000", "112646.243000", "112646.246000", "112646.249000", "112646.251000", "112646.254000", "112646.256000", "112646.259000", "112646.262000", "112646.264000", "112646.267000", "112646.269000", "112646.272000", "112646.275000", "112646.277000", "112646.280000", "112646.282000", "112646.285000", "112646.288000", "112646.290000", "112646.293000", "112646.295000", "112646.298000", "112646.301000", "112646.303000", "112646.306000", "112646.309000", "112646.311000", "112646.314000", "112646.317000", "112726.214000", "112726.217000", "112726.220000", "112726.223000", "112726.226000", "112726.228000", "112726.231000", "112726.233000", "112726.236000", "112726.239000", "112726.241000", "112726.244000", "112726.247000", "112726.249000", "112726.252000", "112726.254000", "112726.257000", "112726.260000", "112726.263000", "112726.266000", "112726.268000", "112726.271000", "112726.274000", "112726.276000", "112726.279000", "112726.282000", "112726.284000", "112806.223000", "112806.226000", "112806.229000", "112806.231000", "112806.234000", "112806.236000", "112806.239000", "112806.242000", "112806.244000", "112806.247000", "112806.250000", "112806.252000", "112806.255000", "112806.257000", "112806.260000", "112806.263000", "112806.265000", "112806.268000", "112806.271000", "112806.273000", "112806.276000", "112806.278000", "112806.281000", "112806.284000", "112806.286000", "112806.289000", "112806.291000", "112846.215000", "112846.219000", "112846.223000", "112846.226000", "112846.229000", "112846.231000", "112846.234000", "112846.236000", "112846.239000", "112846.242000", "112846.244000", "112846.247000", "112846.249000", "112846.252000", "112846.255000", "112846.257000", "112846.260000", "112846.263000", "112846.266000", "112846.269000", "112846.271000", "112846.274000", "112846.277000", "112846.279000", "112846.282000", "112846.284000", "112926.218000", "112926.221000", "112926.224000", "112926.226000", "112926.229000", "112926.232000", "112926.234000", "112926.237000", "112926.239000", "112926.242000", "112926.244000", "112926.247000", "112926.250000", "112926.252000", "112926.255000", "112926.258000", "112926.260000", "112926.263000", "112926.265000", "112926.268000", "112926.271000", "112926.273000", "112926.276000", "112926.279000", "112926.281000", "112926.284000", "112926.286000", "113006.208000", "113006.211000", "113006.214000", "113006.216000", "113006.219000", "113006.222000", "113006.224000", "113006.227000", "113006.230000", "113006.232000", "113006.235000", "113006.237000", "113006.240000", "113006.243000", "113006.245000", "113006.248000", "113006.250000", "113006.253000", "113006.256000", "113006.258000", "113006.261000", "113006.263000", "113006.266000", "113006.269000", "113006.271000", "113006.274000", "113006.277000", "113046.765000", "113047.033000", "113047.036000", "113047.039000", "113047.041000", "113047.044000", "113047.047000", "113047.049000", "113047.052000", "113047.054000", "113047.057000", "113047.060000", "113047.062000", "113047.065000", "113047.067000", "113047.070000", "113047.073000", "113047.075000", "113047.078000", "113047.080000", "113047.083000", "113047.086000", "113047.088000", "113047.091000", "113047.093000", "113047.096000", "113047.099000", "113126.210000", "113126.213000", "113126.216000", "113126.218000", "113126.221000", "113126.223000", "113126.226000", "113126.229000", "113126.231000", "113126.234000", "113126.236000", "113126.239000", "113126.242000", "113126.244000", "113126.247000", "113126.249000", "113126.252000", "113126.255000", "113126.257000", "113126.260000", "113126.263000", "113126.265000", "113126.268000", "113126.270000", "113126.273000", "113126.276000", "113126.278000", "113206.225000", "113206.228000", "113206.231000", "113206.233000", "113206.236000", "113206.239000", "113206.241000", "113206.244000", "113206.246000", "113206.249000", "113206.252000", "113206.254000", "113206.257000", "113206.260000", "113206.262000", "113206.265000", "113206.267000", "113206.270000", "113206.273000", "113206.275000", "113206.278000", "113206.281000", "113206.283000", "113206.286000", "113206.288000", "113206.291000", "113206.294000", "113246.212000", "113246.215000", "113246.217000", "113246.220000", "113246.222000", "113246.225000", "113246.228000", "113246.230000", "113246.233000", "113246.235000", "113246.238000", "113246.241000", "113246.243000", "113246.246000", "113246.249000", "113246.251000", "113246.254000", "113246.256000", "113246.259000", "113246.262000", "113246.264000", "113246.267000", "113246.269000", "113246.272000", "113246.275000", "113246.277000", "113326.211000", "113326.214000", "113326.216000", "113326.219000", "113326.222000", "113326.224000", "113326.227000", "113326.229000", "113326.232000", "113326.235000", "113326.237000", "113326.240000", "113326.243000", "113326.245000", "113326.248000", "113326.251000", "113326.253000", "113326.256000", "113326.259000", "113326.261000", "113326.264000", "113326.267000", "113326.269000", "113326.272000", "113326.274000", "113326.277000", "113326.280000", "113406.209000", "113406.212000", "113406.214000", "113406.217000", "113406.220000", "113406.223000", "113406.226000", "113406.228000", "113406.231000", "113406.234000", "113406.236000", "113406.239000", "113406.242000", "113406.244000", "113406.247000", "113406.249000", "113406.252000", "113406.255000", "113406.257000", "113406.260000", "113406.263000", "113406.265000", "113406.268000", "113406.270000", "113406.273000", "113406.276000", "113406.278000", "113446.231000", "113446.234000", "113446.237000", "113446.239000", "113446.242000", "113446.245000", "113446.248000", "113446.250000", "113446.253000", "113446.255000", "113446.258000", "113446.261000", "113446.263000", "113446.266000", "113446.269000", "113446.271000", "113446.274000", "113446.277000", "113446.279000", "113446.282000", "113446.285000", "113446.287000", "113446.290000", "113446.292000", "113446.295000", "113446.298000", "113446.300000", "113526.229000", "113526.232000", "113526.234000", "113526.237000", "113526.240000", "113526.242000", "113526.245000", "113526.247000", "113526.250000", "113526.253000", "113526.255000", "113526.258000", "113526.260000", "113526.263000", "113526.266000", "113526.268000", "113526.271000", "113526.274000", "113526.276000", "113526.279000", "113526.282000", "113526.284000", "113526.287000", "113526.290000", "113526.292000", "113526.295000", "113526.297000", "113550.103000", "113550.106000", "113550.109000", "113550.112000", "113550.114000", "113550.117000", "113550.120000", "113550.122000", "113550.125000", "113550.127000", "113550.130000", "113550.133000", "113550.136000", "113550.139000", "113550.141000", "113550.144000"],
