{
  "AcquisitionMatrixPE": 104,
  "AcquisitionNumber": 1,
  "AcquisitionTime": "11:23:51.932500",
  "BandwidthPerPixelPhaseEncode": 17.17,
  "BaseResolution": 104,
  "BodyPartExamined": "BRAIN",
  "CoilCombinationMethod": "Sum of Squares",
  "ConsistencyInfo": "N4_VE11C_LATEST_20160120",
  "ConversionSoftware": "dcm2niix",
  "ConversionSoftwareVersion": "v1.0.20211006",
  "DerivedVendorReportedEchoSpacing": 0.000560011,
  "DeviceSerialNumber": "167006",
  "DwellTime": 2.1e-06,
  "EchoTime": 0.037,
  "EchoTrainLength": 104,
  "EffectiveEchoSpacing": 0.000560011,
  "FlipAngle": 52,
  "HeudiconvVersion": "0.11.3.post9+gc939bf8",
  "ImageComments": "Unaliased MB4/PE3/LB",
  "ImageOrientationPatientDICOM": [0.998884, -0.00868031, 0.0464287, 0.0324382, 0.840567, -0.540736],
  "ImageOrientationText": "Tra>Cor(-32.8)>Sag(2.0)",
  "ImageType": [
    "ORIGINAL",
    "PRIMARY",
    "M",
    "MB",
    "ND",
    "MOSAIC"
],
  "ImagingFrequency": 123.259,
  "InPlanePhaseEncodingDirectionDICOM": "COL",
  "InstitutionAddress": "Chemin Queen-Mary 4565,Montreal,District,CA,H3W 1W5",
  "InstitutionName": "IUGM",
  "InstitutionalDepartmentName": "Department",
  "MRAcquisitionType": "2D",
  "MagneticFieldStrength": 3,
  "Manufacturer": "Siemens",
  "ManufacturersModelName": "Prisma_fit",
  "MatrixCoilMode": "SENSE",
  "Modality": "MR",
  "MultibandAccelerationFactor": 4,
  "PartialFourier": 1,
  "PatientPosition": "HFS",
  "PercentPhaseFOV": 100,
  "PercentSampling": 100,
  "PhaseEncodingDirection": "j",
  "PhaseEncodingSteps": 104,
  "PhaseResolution": 1,
  "PixelBandwidth": 2290,
  "ProcedureStepDescription": "games^mariostars",
  "ProtocolName": "func_task-mariostars_run-01",
  "PulseSequenceDetails": "%CustomerSeq%\\cmrr_mbep2d_bold",
  "ReceiveCoilActiveElements": "HC1-7;NC1,2",
  "ReceiveCoilName": "HeadNeck_64",
  "ReconMatrixPE": 104,
  "RepetitionTime": 1.49,
  "SAR": 0.0888272,
  "ScanOptions": "FS",
  "ScanningSequence": "EP",
  "SequenceName": "epfid2d1_104",
  "SequenceVariant": "SK\\SS",
  "SeriesDescription": "func_task-mariostars_run-01",
  "SeriesNumber": 11,
  "ShimSetting": [613, -7199, -8869, 253, 1, -188, 77, 2],
  "SliceThickness": 2,
  "SliceTiming": [0, 0.785, 0.0975, 0.8825, 0.195, 0.98, 0.295, 1.0775, 0.3925, 1.175, 0.49, 1.275, 0.5875, 1.3725, 0.685, 0, 0.785, 0.0975, 0.8825, 0.195, 0.98, 0.295, 1.0775, 0.3925, 1.175, 0.49, 1.275, 0.5875, 1.3725, 0.685, 0, 0.785, 0.0975, 0.8825, 0.195, 0.98, 0.295, 1.0775, 0.3925, 1.175, 0.49, 1.275, 0.5875, 1.3725, 0.685, 0, 0.785, 0.0975, 0.8825, 0.195, 0.98, 0.295, 1.0775, 0.3925, 1.175, 0.49, 1.275, 0.5875, 1.3725, 0.685],
  "SoftwareVersions": "syngo MR E11",
  "SpacingBetweenSlices": 2,
  "StationName": "MRC35049",
  "TaskName": "mariostars",
  "TotalReadoutTime": 0.0576811,
  "TxRefAmp": 341.953,
  "WipMemBlock": "6ad9efb4-a333-46f3-9bfc-06fa712d93f6||Sequence: R017 ve11c/master r/75a17815+; Jun 28 2022 16:32:11 by eja",
  "dcmmeta_affine": [
    [-1.9977678060531616, 0.0648764967918396, 0.06866530328989029, 102.30748748779297],
    [0.0173606239259243, 1.6811333894729614, -1.0832769870758057, -48.8770637512207],
    [0.09285737574100494, 1.0814719200134277, 1.67982017993927, -96.2498550415039],
    [0.0, 0.0, 0.0, 1.0]
],
  "dcmmeta_reorient_transform": [
    [0.0, -1.0, 0.0, 103.0],
    [1.0, 0.0, 0.0, 0.0],
    [0.0, 0.0, 1.0, 0.0],
    [0.0, 0.0, 0.0, 1.0]
],
  "dcmmeta_shape": [104, 104, 60, 481],
  "dcmmeta_slice_dim": 2,
  "dcmmeta_version": 0.6,
  "global": {
    "const": {
      "AcquisitionMatrix": [104, 0, 0, 104],
      "AngioFlag": "N",
      "BitsAllocated": 16,
      "BitsStored": 16,
      "BodyPartExamined": "BRAIN",
      "Columns": 832,
      "EchoNumbers": 1,
      "EchoTime": 37.0,
      "EchoTrainLength": 104,
      "FlipAngle": 52.0,
      "HighBit": 15,
      "ImageOrientationPatient": [0.9988838916905, -0.008680311795, 0.04642868841991, 0.03243824780698, 0.84056669100106, -0.5407359781434],
      "ImagePositionPatient": [-859.79228398459, -729.89296008365, 374.99746403069],
      "ImageType": [
        "ORIGINAL",
        "PRIMARY",
        "M",
        "MB",
        "ND",
        "MOSAIC"
],
      "ImagedNucleus": "1H",
      "ImagingFrequency": 123.258792,
      "InPlanePhaseEncodingDirection": "COL",
      "MRAcquisitionType": "2D",
      "MagneticFieldStrength": 3.0,
      "Manufacturer": "SIEMENS",
      "ManufacturerModelName": "Prisma_fit",
      "Modality": "MR",
      "NumberOfAverages": 1.0,
      "NumberOfPhaseEncodingSteps": 104,
      "PercentPhaseFieldOfView": 100.0,
      "PercentSampling": 100.0,
      "PerformedProcedureStepStartTime": "112005.055000",
      "PhotometricInterpretation": "MONOCHROME2",
      "PixelBandwidth": 2290.0,
      "PixelRepresentation": 0,
      "PixelSpacing": [2.0, 2.0],
      "ProtocolName": "func_task-mariostars_run-01",
      "RepetitionTime": 1490.0,
      "Rows": 832,
      "SAR": 0.08882718516587,
      "SamplesPerPixel": 1,
      "ScanOptions": "FS",
      "ScanningSequence": "EP",
      "SequenceName": "epfid2d1_104",
      "SequenceVariant": [
        "SK",
        "SS"
],
      "SeriesDescription": "func_task-mariostars_run-01",
      "SeriesNumber": 11,
      "SeriesTime": "112506.109000",
      "SliceLocation": -50.85503773599,
      "SliceThickness": 2.0,
      "SmallestImagePixelValue": 0,
      "SoftwareVersions": "syngo MR E11",
      "SpacingBetweenSlices": 1.9999999518332,
      "SpecificCharacterSet": "ISO_IR 100",
      "StudyID": "1",
      "StudyTime": "112004.971000",
      "TransmitCoilName": "Body",
      "VariableFlipAngleFlag": "N",
      "WindowCenterWidthExplanation": "Algo1",
      "dBdt": 0.0},
    "slices": {}
  },
  "time": {
    "samples": {
      "AcquisitionNumber": [1, 2, 3, 4, 5, 6, 7, 8, 9, 10, 11, 12, 13, 14, 15, 16, 17, 18, 19, 20, 21, 22, 23, 24, 25, 26, 27, 28, 29, 30, 31, 32, 33, 34, 35, 36, 37, 38, 39, 40, 41, 42, 43, 44, 45, 46, 47, 48, 49, 50, 51, 52, 53, 54, 55, 56, 57, 58, 59, 60, 61, 62, 63, 64, 65, 66, 67, 68, 69, 70, 71, 72, 73, 74, 75, 76, 77, 78, 79, 80, 81, 82, 83, 84, 85, 86, 87, 88, 89, 90, 91, 92, 93, 94, 95, 96, 97, 98, 99, 100, 101, 102, 103, 104, 105, 106, 107, 108, 109, 110, 111, 112, 113, 114, 115, 116, 117, 118, 119, 120, 121, 122, 123, 124, 125, 126, 127, 128, 129, 130, 131, 132, 133, 134, 135, 136, 137, 138, 139, 140, 141, 142, 143, 144, 145, 146, 147, 148, 149, 150, 151, 152, 153, 154, 155, 156, 157, 158, 159, 160, 161, 162, 163, 164, 165, 166, 167, 168, 169, 170, 171, 172, 173, 174, 175, 176, 177, 178, 179, 180, 181, 182, 183, 184, 185, 186, 187, 188, 189, 190, 191, 192, 193, 194, 195, 196, 197, 198, 199, 200, 201, 202, 203, 204, 205, 206, 207, 208, 209, 210, 211, 212, 213, 214, 215, 216, 217, 218, 219, 220, 221, 222, 223, 224, 225, 226, 227, 228, 229, 230, 231, 232, 233, 234, 235, 236, 237, 238, 239, 240, 241, 242, 243, 244, 245, 246, 247, 248, 249, 250, 251, 252, 253, 254, 255, 256, 257, 258, 259, 260, 261, 262, 263, 264, 265, 266, 267, 268, 269, 270, 271, 272, 273, 274, 275, 276, 277, 278, 279, 280, 281, 282, 283, 284, 285, 286, 287, 288, 289, 290, 291, 292, 293, 294, 295, 296, 297, 298, 299, 300, 301, 302, 303, 304, 305, 306, 307, 308, 309, 310, 311, 312, 313, 314, 315, 316, 317, 318, 319, 320, 321, 322, 323, 324, 325, 326, 327, 328, 329, 330, 331, 332, 333, 334, 335, 336, 337, 338, 339, 340, 341, 342, 343, 344, 345, 346, 347, 348, 349, 350, 351, 352, 353, 354, 355, 356, 357, 358, 359, 360, 361, 362, 363, 364, 365, 366, 367, 368, 369, 370, 371, 372, 373, 374, 375, 376, 377, 378, 379, 380, 381, 382, 383, 384, 385, 386, 387, 388, 389, 390, 391, 392, 393, 394, 395, 396, 397, 398, 399, 400, 401, 402, 403, 404, 405, 406, 407, 408, 409, 410, 411, 412, 413, 414, 415, 416, 417, 418, 419, 420, 421, 422, 423, 424, 425, 426, 427, 428, 429, 430, 431, 432, 433, 434, 435, 436, 437, 438, 439, 440, 441, 442, 443, 444, 445, 446, 447, 448, 449, 450, 451, 452, 453, 454, 455, 456, 457, 458, 459, 460, 461, 462, 463, 464, 465, 466, 467, 468, 469, 470, 471, 472, 473, 474, 475, 476, 477, 478, 479, 480, 481],
      "AcquisitionTime": ["112351.932500", "112353.422500", "112354.912500", "112356.402500", "112357.892500", "112359.382500", "112400.872500", "112402.362500", "112403.852500", "112405.342500", "112406.832500", "112408.322500", "112409.812500", "112411.302500", "112412.792500", "112414.282500", "112415.772500", "112417.262500", "112418.752500", "112420.242500", "112421.732500", "112423.222500", "112424.712500", "112426.202500", "112427.692500", "112429.182500", "112430.672500", "112432.162500", "112433.652500", "112435.142500", "112436.632500", "112438.122500", "112439.612500", "112441.102500", "112442.592500", "112444.082500", "112445.572500", "112447.062500", "112448.552500", "112450.042500", "112451.532500", "112453.022500", "112454.512500", "112456.002500", "112457.492500", "112458.982500", "112500.472500", "112501.962500", "112503.452500", "112504.942500", "112506.432500", "112507.922500", "112509.412500", "112510.902500", "112512.392500", "112513.882500", "112515.372500", "112516.862500", "112518.352500", "112519.842500", "112521.332500", "112522.822500", "112524.312500", "112525.802500", "112527.292500", "112528.782500", "112530.272500", "112531.762500", "112533.252500", "112534.742500", "112536.232500", "112537.722500", "112539.212500", "112540.702500", "112542.192500", "112543.682500", "112545.172500", "112546.662500", "112548.152500", "112549.642500", "112551.132500", "112552.622500", "112554.112500", "112555.602500", "112557.092500", "112558.582500", "112600.072500", "112601.562500", "112603.052500", "112604.542500", "112606.032500", "112607.522500", "112609.012500", "112610.502500", "112611.992500", "112613.482500", "112614.972500", "112616.462500", "112617.952500", "112619.442500", "112620.932500", "112622.422500", "112623.912500", "112625.402500", "112626.892500", "112628.382500", "112629.872500", "112631.362500", "112632.852500", "112634.342500", "112635.832500", "112637.322500", "112638.812500", "112640.302500", "112641.792500", "112643.282500", "112644.772500", "112646.262500", "112647.752500", "112649.242500", "112650.732500", "112652.222500", "112653.712500", "112655.202500", "112656.692500", "112658.182500", "112659.672500", "112701.162500", "112702.652500", "112704.142500", "112705.632500", "112707.122500", "112708.612500", "112710.102500", "112711.592500", "112713.082500", "112714.572500", "112716.062500", "112717.552500", "112719.042500", "112720.532500", "112722.022500", "112723.512500", "112725.002500", "112726.492500", "112727.982500", "112729.472500", "112730.962500", "112732.452500", "112733.942500", "112735.432500", "112736.922500", "112738.412500", "112739.902500", "112741.392500", "112742.882500", "112744.372500", "112745.862500", "112747.352500", "112748.842500", "112750.332500", "112751.822500", "112753.312500", "112754.802500", "112756.292500", "112757.782500", "112759.272500", "112800.762500", "112802.252500", "112803.742500", "112805.232500", "112806.722500", "112808.212500", "112809.702500", "112811.192500", "112812.682500", "112814.172500", "112815.662500", "112817.152500", "112818.642500", "112820.132500", "112821.622500", "112823.112500", "112824.602500", "112826.092500", "112827.582500", "112829.072500", "112830.562500", "112832.052500", "112833.542500", "112835.032500", "112836.522500", "112838.012500", "112839.502500", "112840.992500", "112842.482500", "112843.972500", "112845.462500", "112846.952500", "112848.442500", "112849.932500", "112851.422500", "112852.912500", "112854.402500", "112855.892500", "112857.382500", "112858.872500", "112900.362500", "112901.852500", "112903.342500", "112904.832500", "112906.322500", "112907.812500", "112909.302500", "112910.792500", "112912.282500", "112913.772500", "112915.262500", "112916.752500", "112918.242500", "112919.732500", "112921.222500", "112922.712500", "112924.202500", "112925.692500", "112927.182500", "112928.672500", "112930.162500", "112931.652500", "112933.142500", "112934.632500", "112936.122500", "112937.612500", "112939.102500", "112940.592500", "112942.082500", "112943.572500", "112945.062500", "112946.552500", "112948.042500", "112949.532500", "112951.022500", "112952.512500", "112954.002500", "112955.492500", "112956.982500", "112958.472500", "112959.962500", "113001.452500", "113002.942500", "113004.432500", "113005.922500", "113007.412500", "113008.902500", "113010.392500", "113011.882500", "113013.372500", "113014.862500", "113016.352500", "113017.842500", "113019.332500", "113020.822500", "113022.312500", "113023.802500", "113025.292500", "113026.782500", "113028.272500", "113029.762500", "113031.252500", "113032.742500", "113034.232500", "113035.722500", "113037.212500", "113038.702500", "113040.192500", "113041.682500", "113043.172500", "113044.662500", "113046.152500", "113047.642500", "113049.132500", "113050.622500", "113052.112500", "113053.602500", "113055.092500", "113056.582500", "113058.072500", "113059.562500", "113101.052500", "113102.542500", "113104.032500", "113105.522500", "113107.012500", "113108.502500", "113109.992500", "113111.482500", "113112.972500", "113114.462500", "113115.952500", "113117.442500", "113118.932500", "113120.422500", "113121.912500", "113123.402500", "113124.892500", "113126.382500", "113127.872500", "113129.362500", "113130.852500", "113132.342500", "113133.832500", "113135.322500", "113136.812500", "113138.302500", "113139.792500", "113141.282500", "113142.772500", "113144.262500", "113145.752500", "113147.242500", "113148.732500", "113150.222500", "113151.712500", "113153.202500", "113154.692500", "113156.182500", "113157.672500", "113159.162500", "113200.652500", "113202.142500", "113203.632500", "113205.122500", "113206.612500", "113208.102500", "113209.592500", "113211.082500", "113212.572500", "113214.062500", "113215.552500", "113217.042500", "113218.532500", "113220.022500", "113221.512500", "113223.002500", "113224.492500", "113225.982500", "113227.472500", "113228.962500", "113230.452500", "113231.942500", "113233.432500", "113234.922500", "113236.412500", "113237.902500", "113239.392500", "113240.882500", "113242.372500", "113243.862500", "113245.352500", "113246.842500", "113248.332500", "113249.822500", "113251.312500", "113252.802500", "113254.292500", "113255.782500", "113257.272500", "113258.762500", "113300.252500", "113301.742500", "113303.232500", "113304.722500", "113306.212500", "113307.702500", "113309.192500", "113310.682500", "113312.172500", "113313.662500", "113315.152500", "113316.642500", "113318.132500", "113319.622500", "113321.112500", "113322.602500", "113324.092500", "113325.582500", "113327.072500", "113328.562500", "113330.052500", "113331.542500", "113333.032500", "113334.522500", "113336.012500", "113337.502500", "113338.992500", "113340.482500", "113341.972500", "113343.462500", "113344.952500", "113346.442500", "113347.932500", "113349.422500", "113350.912500", "113352.402500", "113353.892500", "113355.382500", "113356.872500", "113358.362500", "113359.852500", "113401.342500", "113402.832500", "113404.322500", "113405.812500", "113407.302500", "113408.792500", "113410.282500", "113411.772500", "113413.262500", "113414.752500", "113416.242500", "113417.732500", "113419.222500", "113420.712500", "113422.202500", "113423.692500", "113425.182500", "113426.672500", "113428.162500", "113429.652500", "113431.142500", "113432.632500", "113434.122500", "113435.612500", "113437.102500", "113438.592500", "113440.082500", "113441.572500", "113443.062500", "113444.552500", "113446.042500", "113447.532500", "113449.022500", "113450.512500", "113452.002500", "113453.492500", "113454.982500", "113456.472500", "113457.962500", "113459.452500", "113500.942500", "113502.432500", "113503.922500", "113505.412500", "113506.902500", "113508.392500", "113509.882500", "113511.372500", "113512.862500", "113514.352500", "113515.842500", "113517.332500", "113518.822500", "113520.312500", "113521.802500", "113523.292500", "113524.782500", "113526.272500", "113527.762500", "113529.252500", "113530.742500", "113532.232500", "113533.722500", "113535.212500", "113536.702500", "113538.192500", "113539.682500", "113541.172500", "113542.662500", "113544.152500", "113545.642500", "113547.132500"],
      "ContentTime": ["112506.113000", "112506.117000", "112506.120000", "112506.124000", "112506.127000", "112506.130000", "112506.134000", "112506.137000", "112506.141000", "112506.144000", "112506.148000", "112506.152000", "112506.155000", "112506.159000", "112506.162000", "112506.166000", "112506.169000", "112506.173000", "112506.179000", "112506.183000", "112506.186000", "112506.190000", "112506.193000", "112506.197000", "112506.200000", "112506.203000", "112526.069000", "112526.073000", "112526.076000", "112526.080000", "112526.083000", "112526.086000", "112526.090000", "112526.093000", "112526.097000", "112526.100000", "112526.104000", "112526.107000", "112526.110000", "112526.114000", "112526.117000", "112526.121000", "112526.124000", "112526.128000", "112526.131000", "112526.134000", "112546.068000", "112546.072000", "112546.075000", "112546.079000", "112546.082000", "112546.086000", "112546.089000", "112546.092000", "112546.096000", "112546.099000", "112546.103000", "112546.106000", "112546.110000", "112546.113000", "112546.116000", "112546.120000", "112546.123000", "112546.127000", "112546.130000", "112546.133000", "112606.068000", "112606.072000", "112606.076000", "112606.079000", "112606.083000", "112606.086000", "112606.090000", "112606.093000", "112606.097000", "112606.100000", "112606.104000", "112606.107000", "112606.111000", "112606.114000", "112606.118000", "112606.121000", "112606.125000", "112606.128000", "112606.132000", "112606.136000", "112646.070000", "112646.073000", "112646.077000", "112646.080000", "112646.101000", "112646.105000", "112646.108000", "112646.112000", "112646.116000", "112646.119000", "112646.123000", "112646.127000", "112646.130000", "112646.133000", "112646.137000", "112646.140000", "112646.144000", "112646.147000", "112646.151000", "112646.159000", "112646.162000", "112646.166000", "112646.169000", "112646.172000", "112646.176000", "112646.179000", "112646.183000", "112646.186000", "112646.190000", "112646.193000", "112726.069000", "112726.073000", "112726.077000", "112726.080000", "112726.084000", "112726.087000", "112726.090000", "112726.094000", "112726.097000", "112726.101000", "112726.104000", "112726.108000", "112726.111000", "112726.115000", "112726.118000", "112726.122000", "112726.125000", "112726.129000", "112726.132000", "112726.135000", "112726.139000", "112726.142000", "112726.146000", "112726.149000", "112726.153000", "112726.156000", "112726.160000", "112806.068000", "112806.072000", "112806.075000", "112806.079000", "112806.082000", "112806.086000", "112806.089000", "112806.093000", "112806.096000", "112806.100000", "112806.103000", "112806.106000", "112806.110000", "112806.113000", "112806.117000", "112806.120000", "112806.124000", "112806.127000", "112806.130000", "112806.134000", "112806.137000", "112806.141000", "112806.145000", "112806.148000", "112806.151000", "112806.155000", "112806.158000", "112846.069000", "112846.073000", "112846.077000", "112846.081000", "112846.084000", "112846.088000", "112846.091000", "112846.095000", "112846.098000", "112846.102000", "112846.105000", "112846.108000", "112846.122000", "112846.125000", "112846.129000", "112846.132000", "112846.136000", "112846.139000", "112846.143000", "112846.146000", "112846.150000", "112846.153000", "112846.157000", "112846.160000", "112846.163000", "112846.167000", "112926.069000", "112926.073000", "112926.077000", "112926.080000", "112926.083000", "112926.087000", "112926.091000", "112926.094000", "112926.097000", "112926.101000", "112926.104000", "112926.108000", "112926.111000", "112926.115000", "112926.118000", "112926.122000", "112926.125000", "112926.129000", "112926.132000", "112926.135000", "112926.139000", "112926.142000", "112926.146000", "112926.149000", "112926.153000", "112926.156000", "112926.159000", "113006.069000", "113006.073000", "113006.077000", "113006.080000", "113006.084000", "113006.087000", "113006.091000", "113006.094000", "113006.098000", "113006.102000", "113006.105000", "113006.109000", "113006.112000", "113006.116000", "113006.119000", "113006.122000", "113006.126000", "113006.129000", "113006.133000", "113006.136000", "113006.140000", "113006.144000", "113006.147000", "113006.151000", "113006.154000", "113006.158000", "113006.161000", "113046.068000", "113046.072000", "113046.075000", "113046.079000", "113046.083000", "113046.086000", "113046.090000", "113046.093000", "113046.096000", "113046.100000", "113046.103000", "113046.107000", "113046.110000", "113046.114000", "113046.117000", "113046.121000", "113046.124000", "113046.128000", "113046.131000", "113046.135000", "113046.138000", "113046.141000", "113046.145000", "113046.148000", "113046.152000", "113046.169000", "113046.173000", "113126.069000", "113126.073000", "113126.077000", "113126.080000", "113126.084000", "113126.087000", "113126.091000", "113126.094000", "113126.098000", "113126.101000", "113126.105000", "113126.109000", "113126.112000", "113126.116000", "113126.119000", "113126.123000", "113126.126000", "113126.130000", "113126.133000", "113126.137000", "113126.140000", "113126.144000", "113126.147000", "113126.151000", "113126.154000", "113126.158000", "113126.161000", "113206.070000", "113206.073000", "113206.077000", "113206.080000", "113206.084000", "113206.087000", "113206.091000", "113206.094000", "113206.098000", "113206.101000", "113206.105000", "113206.109000", "113206.113000", "113206.116000", "113206.119000", "113206.123000", "113206.126000", "113206.130000", "113206.133000", "113206.137000", "113206.140000", "113206.144000", "113206.147000", "113206.151000", "113206.154000", "113206.157000", "113206.161000", "113246.069000", "113246.072000", "113246.076000", "113246.079000", "113246.083000", "113246.087000", "113246.092000", "113246.097000", "113246.101000", "113246.105000", "113246.108000", "113246.112000", "113246.115000", "113246.119000", "113246.123000", "113246.126000", "113246.130000", "113246.133000", "113246.136000", "113246.140000", "113246.143000", "113246.147000", "113246.150000", "113246.154000", "113246.157000", "113246.161000", "113326.069000", "113326.073000", "113326.077000", "113326.080000", "113326.084000", "113326.087000", "113326.091000", "113326.094000", "113326.098000", "113326.101000", "113326.105000", "113326.108000", "113326.112000", "113326.115000", "113326.118000", "113326.122000", "113326.125000", "113326.129000", "113326.132000", "113326.136000", "113326.141000", "113326.144000", "113326.148000", "113326.152000", "113326.155000", "113326.159000", "113326.163000", "113406.069000", "113406.073000", "113406.077000", "113406.080000", "113406.084000", "113406.087000", "113406.091000", "113406.094000", "113406.098000", "113406.101000", "113406.105000", "113406.108000", "113406.111000", "113406.115000", "113406.119000", "113406.122000", "113406.125000", "113406.129000", "113406.132000", "113406.136000", "113406.139000", "113406.143000", "113406.146000", "113406.150000", "113406.153000", "113406.156000", "113406.160000", "113446.070000", "113446.074000", "113446.077000", "113446.081000", "113446.084000", "113446.088000", "113446.091000", "113446.095000", "113446.098000", "113446.102000", "113446.105000", "113446.109000", "113446.112000", "113446.116000", "113446.119000", "113446.123000", "113446.126000", "113446.130000", "113446.133000", "113446.137000", "113446.140000", "113446.144000", "113446.147000", "113446.151000", "113446.155000", "113446.158000", "113446.161000", "113526.069000", "113526.072000", "113526.076000", "113526.079000", "113526.083000", "113526.086000", "113526.090000", "113526.093000", "113526.097000", "113526.100000", "113526.103000", "113526.107000", "113526.111000", "113526.114000", "113526.117000", "113526.121000", "113526.125000", "113526.128000", "113526.132000", "113526.136000", "113526.139000", "113526.143000", "113526.146000", "113526.150000", "113526.153000", "113526.157000", "113526.160000", "113549.991000", "113549.995000", "113550.000000", "113550.003000", "113550.007000", "113550.010000", "113550.014000", "113550.017000", "113550.021000", "113550.024000", "113550.028000", "113550.031000", "113550.035000", "113550.038000", "113550.041000", "113550.045000"],
