{
  "AcquisitionMatrixPE": 104,
  "AcquisitionNumber": 1,
  "AcquisitionTime": "11:50:3.890000",
  "BandwidthPerPixelPhaseEncode": 17.17,
  "BaseResolution": 104,
  "BodyPartExamined": "BRAIN",
  "CoilCombinationMethod": "Sum of Squares",
  "ConsistencyInfo": "N4_VE11C_LATEST_20160120",
  "ConversionSoftware": "dcm2niix",
  "ConversionSoftwareVersion": "v1.0.20211006",
  "DerivedVendorReportedEchoSpacing": 0.000560011,
  "DeviceSerialNumber": "167006",
  "DwellTime": 2.1e-06,
  "EchoTime": 0.037,
  "EchoTime1": 0.037,
  "EchoTime2": 0.001,
  "EchoTrainLength": 104,
  "EffectiveEchoSpacing": 0.000560011,
  "FlipAngle": 52,
  "HeudiconvVersion": "0.11.3.post9+gc939bf8",
  "ImageComments": "Unaliased MB4/PE3/LB",
  "ImageOrientationPatientDICOM": [0.998884, -0.00868031, 0.0464287, 0.0324382, 0.840567, -0.540736],
  "ImageOrientationText": "Tra>Cor(-32.8)>Sag(2.0)",
  "ImageType": [
    "ORIGINAL",
    "PRIMARY",
    "P",
    "MB",
    "ND",
    "MOSAIC",
    "PHASE"
],
  "ImagingFrequency": 123.259,
  "InPlanePhaseEncodingDirectionDICOM": "COL",
  "InstitutionAddress": "Chemin Queen-Mary 4565,Montreal,District,CA,H3W 1W5",
  "InstitutionName": "IUGM",
  "InstitutionalDepartmentName": "Department",
  "MRAcquisitionType": "2D",
  "MagneticFieldStrength": 3,
  "Manufacturer": "Siemens",
  "ManufacturersModelName": "Prisma_fit",
  "MatrixCoilMode": "SENSE",
  "Modality": "MR",
  "MultibandAccelerationFactor": 4,
  "PartialFourier": 1,
  "PatientPosition": "HFS",
  "PercentPhaseFOV": 100,
  "PercentSampling": 100,
  "PhaseEncodingDirection": "j",
  "PhaseEncodingSteps": 104,
  "PhaseResolution": 1,
  "PixelBandwidth": 2290,
  "ProcedureStepDescription": "games^mariostars",
  "ProtocolName": "func_task-mariostars_run-03",
  "PulseSequenceDetails": "%CustomerSeq%\\cmrr_mbep2d_bold",
  "ReceiveCoilActiveElements": "HC1-7;NC1,2",
  "ReceiveCoilName": "HeadNeck_64",
  "ReconMatrixPE": 104,
  "RepetitionTime": 1.49,
  "SAR": 0.0888272,
  "ScanOptions": "FS",
  "ScanningSequence": "EP",
  "SequenceName": "epfid2d1_104",
  "SequenceVariant": "SK\\SS",
  "SeriesDescription": "func_task-mariostars_run-03",
  "SeriesNumber": 18,
  "ShimSetting": [613, -7199, -8869, 253, 1, -188, 77, 2],
  "SliceThickness": 2,
  "SliceTiming": [0, 0.785, 0.1, 0.8825, 0.1975, 0.98, 0.295, 1.08, 0.3925, 1.1775, 0.49, 1.275, 0.59, 1.3725, 0.6875, 0, 0.785, 0.1, 0.8825, 0.1975, 0.98, 0.295, 1.08, 0.3925, 1.1775, 0.49, 1.275, 0.59, 1.3725, 0.6875, 0, 0.785, 0.1, 0.8825, 0.1975, 0.98, 0.295, 1.08, 0.3925, 1.1775, 0.49, 1.275, 0.59, 1.3725, 0.6875, 0, 0.785, 0.1, 0.8825, 0.1975, 0.98, 0.295, 1.08, 0.3925, 1.1775, 0.49, 1.275, 0.59, 1.3725, 0.6875],
  "SoftwareVersions": "syngo MR E11",
  "SpacingBetweenSlices": 2,
  "StationName": "MRC35049",
  "TaskName": "mariostars",
  "TotalReadoutTime": 0.0576811,
  "TxRefAmp": 341.953,
  "WipMemBlock": "bb6ef5b2-1f1f-43c2-81d5-d467748e94d8||Sequence: R017 ve11c/master r/75a17815+; Jun 28 2022 16:32:11 by eja",
  "dcmmeta_affine": [
    [-1.9977678060531616, 0.0648764967918396, 0.06866530328989029, 102.30748748779297],
    [0.0173606239259243, 1.6811333894729614, -1.0832769870758057, -48.8770637512207],
    [0.09285737574100494, 1.0814719200134277, 1.67982017993927, -96.2498550415039],
    [0.0, 0.0, 0.0, 1.0]
],
  "dcmmeta_reorient_transform": [
    [0.0, -1.0, 0.0, 103.0],
    [1.0, 0.0, 0.0, 0.0],
    [0.0, 0.0, 1.0, 0.0],
    [0.0, 0.0, 0.0, 1.0]
],
  "dcmmeta_shape": [104, 104, 60, 435],
  "dcmmeta_slice_dim": 2,
  "dcmmeta_version": 0.6,
  "global": {
    "const": {
      "AcquisitionMatrix": [104, 0, 0, 104],
      "AngioFlag": "N",
      "BitsAllocated": 16,
      "BitsStored": 16,
      "BodyPartExamined": "BRAIN",
      "Columns": 832,
      "EchoNumbers": 1,
      "EchoTime": 37.0,
      "EchoTrainLength": 104,
      "FlipAngle": 52.0,
      "HighBit": 15,
      "ImageOrientationPatient": [0.9988838916905, -0.008680311795, 0.04642868841991, 0.03243824780698, 0.84056669100106, -0.5407359781434],
      "ImagePositionPatient": [-859.79228398459, -729.89296008365, 374.99746403069],
      "ImageType": [
        "ORIGINAL",
        "PRIMARY",
        "P",
        "MB",
        "ND",
        "MOSAIC"
],
      "ImagedNucleus": "1H",
      "ImagingFrequency": 123.258803,
      "InPlanePhaseEncodingDirection": "COL",
      "LargestImagePixelValue": 4095,
      "MRAcquisitionType": "2D",
      "MagneticFieldStrength": 3.0,
      "Manufacturer": "SIEMENS",
      "ManufacturerModelName": "Prisma_fit",
      "Modality": "MR",
      "NumberOfAverages": 1.0,
      "NumberOfPhaseEncodingSteps": 104,
      "PercentPhaseFieldOfView": 100.0,
      "PercentSampling": 100.0,
      "PerformedProcedureStepStartTime": "112005.055000",
      "PhotometricInterpretation": "MONOCHROME2",
      "PixelBandwidth": 2290.0,
      "PixelRepresentation": 0,
      "PixelSpacing": [2.0, 2.0],
      "ProtocolName": "func_task-mariostars_run-03",
      "RepetitionTime": 1490.0,
      "RescaleIntercept": -4096.0,
      "RescaleSlope": 2.0,
      "RescaleType": "US",
      "Rows": 832,
      "SAR": 0.08882718516587,
      "SamplesPerPixel": 1,
      "ScanOptions": "FS",
      "ScanningSequence": "EP",
      "SequenceName": "epfid2d1_104",
      "SequenceVariant": [
        "SK",
        "SS"
],
      "SeriesDescription": "func_task-mariostars_run-03",
      "SeriesNumber": 18,
      "SeriesTime": "115121.728000",
      "SliceLocation": -50.85503773599,
      "SliceThickness": 2.0,
      "SmallestImagePixelValue": 0,
      "SoftwareVersions": "syngo MR E11",
      "SpacingBetweenSlices": 1.9999999518332,
      "SpecificCharacterSet": "ISO_IR 100",
      "StudyID": "1",
      "StudyTime": "112004.971000",
      "TransmitCoilName": "Body",
      "VariableFlipAngleFlag": "N",
      "WindowCenterWidthExplanation": "Algo1",
      "dBdt": 0.0},
    "slices": {}
  },
  "time": {
    "samples": {
      "AcquisitionNumber": [1, 2, 3, 4, 5, 6, 7, 8, 9, 10, 11, 12, 13, 14, 15, 16, 17, 18, 19, 20, 21, 22, 23, 24, 25, 26, 27, 28, 29, 30, 31, 32, 33, 34, 35, 36, 37, 38, 39, 40, 41, 42, 43, 44, 45, 46, 47, 48, 49, 50, 51, 52, 53, 54, 55, 56, 57, 58, 59, 60, 61, 62, 63, 64, 65, 66, 67, 68, 69, 70, 71, 72, 73, 74, 75, 76, 77, 78, 79, 80, 81, 82, 83, 84, 85, 86, 87, 88, 89, 90, 91, 92, 93, 94, 95, 96, 97, 98, 99, 100, 101, 102, 103, 104, 105, 106, 107, 108, 109, 110, 111, 112, 113, 114, 115, 116, 117, 118, 119, 120, 121, 122, 123, 124, 125, 126, 127, 128, 129, 130, 131, 132, 133, 134, 135, 136, 137, 138, 139, 140, 141, 142, 143, 144, 145, 146, 147, 148, 149, 150, 151, 152, 153, 154, 155, 156, 157, 158, 159, 160, 161, 162, 163, 164, 165, 166, 167, 168, 169, 170, 171, 172, 173, 174, 175, 176, 177, 178, 179, 180, 181, 182, 183, 184, 185, 186, 187, 188, 189, 190, 191, 192, 193, 194, 195, 196, 197, 198, 199, 200, 201, 202, 203, 204, 205, 206, 207, 208, 209, 210, 211, 212, 213, 214, 215, 216, 217, 218, 219, 220, 221, 222, 223, 224, 225, 226, 227, 228, 229, 230, 231, 232, 233, 234, 235, 236, 237, 238, 239, 240, 241, 242, 243, 244, 245, 246, 247, 248, 249, 250, 251, 252, 253, 254, 255, 256, 257, 258, 259, 260, 261, 262, 263, 264, 265, 266, 267, 268, 269, 270, 271, 272, 273, 274, 275, 276, 277, 278, 279, 280, 281, 282, 283, 284, 285, 286, 287, 288, 289, 290, 291, 292, 293, 294, 295, 296, 297, 298, 299, 300, 301, 302, 303, 304, 305, 306, 307, 308, 309, 310, 311, 312, 313, 314, 315, 316, 317, 318, 319, 320, 321, 322, 323, 324, 325, 326, 327, 328, 329, 330, 331, 332, 333, 334, 335, 336, 337, 338, 339, 340, 341, 342, 343, 344, 345, 346, 347, 348, 349, 350, 351, 352, 353, 354, 355, 356, 357, 358, 359, 360, 361, 362, 363, 364, 365, 366, 367, 368, 369, 370, 371, 372, 373, 374, 375, 376, 377, 378, 379, 380, 381, 382, 383, 384, 385, 386, 387, 388, 389, 390, 391, 392, 393, 394, 395, 396, 397, 398, 399, 400, 401, 402, 403, 404, 405, 406, 407, 408, 409, 410, 411, 412, 413, 414, 415, 416, 417, 418, 419, 420, 421, 422, 423, 424, 425, 426, 427, 428, 429, 430, 431, 432, 433, 434, 435],
      "AcquisitionTime": ["115003.890000", "115005.380000", "115006.870000", "115008.360000", "115009.850000", "115011.340000", "115012.830000", "115014.320000", "115015.810000", "115017.300000", "115018.790000", "115020.280000", "115021.770000", "115023.260000", "115024.750000", "115026.240000", "115027.730000", "115029.220000", "115030.710000", "115032.200000", "115033.690000", "115035.180000", "115036.670000", "115038.160000", "115039.650000", "115041.140000", "115042.630000", "115044.120000", "115045.610000", "115047.100000", "115048.590000", "115050.080000", "115051.570000", "115053.060000", "115054.550000", "115056.040000", "115057.530000", "115059.020000", "115100.510000", "115102.000000", "115103.490000", "115104.980000", "115106.470000", "115107.960000", "115109.450000", "115110.940000", "115112.430000", "115113.920000", "115115.410000", "115116.900000", "115118.390000", "115119.880000", "115121.370000", "115122.860000", "115124.350000", "115125.840000", "115127.330000", "115128.820000", "115130.310000", "115131.800000", "115133.290000", "115134.780000", "115136.270000", "115137.760000", "115139.250000", "115140.740000", "115142.230000", "115143.720000", "115145.210000", "115146.700000", "115148.190000", "115149.680000", "115151.170000", "115152.660000", "115154.150000", "115155.640000", "115157.130000", "115158.620000", "115200.110000", "115201.600000", "115203.090000", "115204.580000", "115206.070000", "115207.560000", "115209.050000", "115210.540000", "115212.030000", "115213.520000", "115215.010000", "115216.500000", "115217.990000", "115219.480000", "115220.970000", "115222.460000", "115223.950000", "115225.440000", "115226.930000", "115228.420000", "115229.910000", "115231.400000", "115232.890000", "115234.380000", "115235.870000", "115237.360000", "115238.850000", "115240.340000", "115241.830000", "115243.320000", "115244.810000", "115246.300000", "115247.790000", "115249.280000", "115250.770000", "115252.260000", "115253.750000", "115255.240000", "115256.730000", "115258.220000", "115259.710000", "115301.200000", "115302.690000", "115304.180000", "115305.670000", "115307.160000", "115308.650000", "115310.140000", "115311.630000", "115313.120000", "115314.610000", "115316.100000", "115317.590000", "115319.080000", "115320.570000", "115322.060000", "115323.550000", "115325.040000", "115326.530000", "115328.020000", "115329.510000", "115331.000000", "115332.490000", "115333.980000", "115335.470000", "115336.960000", "115338.450000", "115339.940000", "115341.430000", "115342.920000", "115344.410000", "115345.900000", "115347.390000", "115348.880000", "115350.370000", "115351.860000", "115353.350000", "115354.840000", "115356.330000", "115357.820000", "115359.310000", "115400.800000", "115402.290000", "115403.780000", "115405.270000", "115406.760000", "115408.250000", "115409.740000", "115411.230000", "115412.720000", "115414.210000", "115415.700000", "115417.190000", "115418.680000", "115420.170000", "115421.660000", "115423.150000", "115424.640000", "115426.130000", "115427.620000", "115429.110000", "115430.600000", "115432.090000", "115433.580000", "115435.070000", "115436.560000", "115438.050000", "115439.540000", "115441.030000", "115442.520000", "115444.010000", "115445.500000", "115446.990000", "115448.480000", "115449.970000", "115451.460000", "115452.950000", "115454.440000", "115455.930000", "115457.420000", "115458.910000", "115500.400000", "115501.890000", "115503.380000", "115504.870000", "115506.360000", "115507.850000", "115509.340000", "115510.830000", "115512.320000", "115513.810000", "115515.300000", "115516.790000", "115518.280000", "115519.770000", "115521.260000", "115522.750000", "115524.240000", "115525.730000", "115527.220000", "115528.710000", "115530.200000", "115531.690000", "115533.180000", "115534.670000", "115536.160000", "115537.650000", "115539.140000", "115540.630000", "115542.120000", "115543.610000", "115545.100000", "115546.590000", "115548.080000", "115549.570000", "115551.060000", "115552.550000", "115554.040000", "115555.530000", "115557.020000", "115558.510000", "115600.000000", "115601.490000", "115602.980000", "115604.470000", "115605.960000", "115607.450000", "115608.940000", "115610.430000", "115611.920000", "115613.410000", "115614.900000", "115616.390000", "115617.880000", "115619.370000", "115620.860000", "115622.350000", "115623.840000", "115625.330000", "115626.820000", "115628.310000", "115629.800000", "115631.290000", "115632.780000", "115634.270000", "115635.760000", "115637.250000", "115638.740000", "115640.230000", "115641.720000", "115643.210000", "115644.700000", "115646.190000", "115647.680000", "115649.170000", "115650.660000", "115652.150000", "115653.640000", "115655.130000", "115656.620000", "115658.110000", "115659.600000", "115701.090000", "115702.580000", "115704.070000", "115705.560000", "115707.050000", "115708.540000", "115710.030000", "115711.520000", "115713.010000", "115714.500000", "115715.990000", "115717.480000", "115718.970000", "115720.460000", "115721.950000", "115723.440000", "115724.930000", "115726.420000", "115727.910000", "115729.400000", "115730.890000", "115732.380000", "115733.870000", "115735.360000", "115736.850000", "115738.340000", "115739.830000", "115741.320000", "115742.810000", "115744.300000", "115745.790000", "115747.280000", "115748.770000", "115750.260000", "115751.750000", "115753.240000", "115754.730000", "115756.220000", "115757.710000", "115759.200000", "115800.690000", "115802.180000", "115803.670000", "115805.160000", "115806.650000", "115808.140000", "115809.630000", "115811.120000", "115812.610000", "115814.100000", "115815.590000", "115817.080000", "115818.570000", "115820.060000", "115821.550000", "115823.040000", "115824.530000", "115826.020000", "115827.510000", "115829.000000", "115830.490000", "115831.980000", "115833.470000", "115834.960000", "115836.450000", "115837.940000", "115839.430000", "115840.920000", "115842.410000", "115843.900000", "115845.390000", "115846.880000", "115848.370000", "115849.860000", "115851.350000", "115852.840000", "115854.330000", "115855.820000", "115857.310000", "115858.800000", "115900.290000", "115901.780000", "115903.270000", "115904.760000", "115906.250000", "115907.740000", "115909.230000", "115910.720000", "115912.210000", "115913.700000", "115915.190000", "115916.680000", "115918.170000", "115919.660000", "115921.150000", "115922.640000", "115924.130000", "115925.620000", "115927.110000", "115928.600000", "115930.090000", "115931.580000", "115933.070000", "115934.560000", "115936.050000", "115937.540000", "115939.030000", "115940.520000", "115942.010000", "115943.500000", "115944.990000", "115946.480000", "115947.970000", "115949.460000", "115950.950000", "115952.440000", "115953.930000", "115955.420000", "115956.910000", "115958.400000", "115959.890000", "120001.380000", "120002.870000", "120004.360000", "120005.850000", "120007.340000", "120008.830000", "120010.320000", "120011.810000", "120013.300000", "120014.790000", "120016.280000", "120017.770000", "120019.260000", "120020.750000", "120022.240000", "120023.730000", "120025.220000", "120026.710000", "120028.200000", "120029.690000", "120031.180000", "120032.670000", "120034.160000", "120035.650000", "120037.140000", "120038.630000", "120040.120000", "120041.610000", "120043.100000", "120044.590000", "120046.080000", "120047.570000", "120049.060000", "120050.550000"],
      "ContentTime": ["115121.730000", "115121.733000", "115121.735000", "115121.738000", "115121.740000", "115121.743000", "115121.745000", "115121.748000", "115121.750000", "115121.753000", "115121.755000", "115121.758000", "115121.767000", "115121.769000", "115121.772000", "115121.774000", "115121.777000", "115121.780000", "115121.782000", "115121.784000", "115121.787000", "115121.789000", "115121.792000", "115121.794000", "115121.797000", "115121.800000", "115121.803000", "115121.805000", "115121.809000", "115141.654000", "115141.656000", "115141.659000", "115141.661000", "115141.664000", "115141.667000", "115141.669000", "115141.672000", "115141.674000", "115141.677000", "115141.679000", "115141.682000", "115141.684000", "115141.687000", "115141.689000", "115141.692000", "115141.694000", "115141.697000", "115141.699000", "115141.702000", "115201.637000", "115201.640000", "115201.643000", "115201.645000", "115201.648000", "115201.650000", "115201.653000", "115201.655000", "115201.658000", "115201.660000", "115201.663000", "115201.665000", "115201.668000", "115201.670000", "115201.673000", "115201.675000", "115201.678000", "115201.680000", "115201.683000", "115201.685000", "115201.688000", "115221.640000", "115221.642000", "115221.645000", "115221.648000", "115221.651000", "115221.653000", "115221.656000", "115221.659000", "115221.662000", "115221.665000", "115221.668000", "115221.672000", "115221.676000", "115221.678000", "115221.681000", "115221.683000", "115221.686000", "115221.688000", "115221.691000", "115221.694000", "115302.064000", "115302.067000", "115302.070000", "115302.072000", "115302.075000", "115302.077000", "115302.080000", "115302.082000", "115302.085000", "115302.088000", "115302.090000", "115302.093000", "115302.095000", "115302.098000", "115302.100000", "115302.103000", "115302.105000", "115302.108000", "115302.111000", "115302.113000", "115302.116000", "115302.118000", "115302.121000", "115302.123000", "115302.126000", "115302.128000", "115302.131000", "115302.133000", "115341.659000", "115341.662000", "115341.664000", "115341.667000", "115341.670000", "115341.672000", "115341.675000", "115341.677000", "115341.680000", "115341.682000", "115341.685000", "115341.687000", "115341.690000", "115341.692000", "115341.695000", "115341.698000", "115341.700000", "115341.703000", "115341.705000", "115341.708000", "115341.710000", "115341.713000", "115341.715000", "115341.718000", "115341.721000", "115341.723000", "115341.726000", "115421.671000", "115421.674000", "115421.677000", "115421.680000", "115421.682000", "115421.685000", "115421.687000", "115421.690000", "115421.692000", "115421.695000", "115421.697000", "115421.700000", "115421.703000", "115421.705000", "115421.708000", "115421.710000", "115421.713000", "115421.715000", "115421.718000", "115421.721000", "115421.723000", "115421.726000", "115421.728000", "115421.731000", "115421.733000", "115421.736000", "115421.739000", "115501.695000", "115501.698000", "115501.701000", "115501.704000", "115501.707000", "115501.710000", "115501.713000", "115501.719000", "115501.721000", "115501.724000", "115501.727000", "115501.729000", "115501.732000", "115501.735000", "115501.738000", "115501.745000", "115501.748000", "115501.751000", "115501.753000", "115501.758000", "115501.761000", "115501.764000", "115501.766000", "115501.770000", "115501.773000", "115501.775000", "115501.778000", "115541.660000", "115541.663000", "115541.666000", "115541.669000", "115541.671000", "115541.674000", "115541.676000", "115541.679000", "115541.681000", "115541.684000", "115541.687000", "115541.689000", "115541.692000", "115541.694000", "115541.697000", "115541.699000", "115541.702000", "115541.705000", "115541.707000", "115541.710000", "115541.712000", "115541.715000", "115541.718000", "115541.720000", "115541.723000", "115541.725000", "115541.728000", "115621.684000", "115621.687000", "115621.690000", "115621.692000", "115621.695000", "115621.697000", "115621.700000", "115621.702000", "115621.705000", "115621.708000", "115621.710000", "115621.713000", "115621.715000", "115621.718000", "115621.721000", "115621.724000", "115621.727000", "115621.729000", "115621.732000", "115621.735000", "115621.737000", "115621.740000", "115621.742000", "115621.745000", "115621.747000", "115621.750000", "115621.752000", "115701.657000", "115701.661000", "115701.664000", "115701.668000", "115701.670000", "115701.674000", "115701.677000", "115701.680000", "115701.682000", "115701.685000", "115701.688000", "115701.690000", "115701.693000", "115701.696000", "115701.698000", "115701.701000", "115701.703000", "115701.706000", "115701.709000", "115701.711000", "115701.714000", "115701.716000", "115701.719000", "115701.722000", "115701.743000", "115701.746000", "115741.669000", "115741.672000", "115741.675000", "115741.677000", "115741.680000", "115741.683000", "115741.685000", "115741.688000", "115741.690000", "115741.693000", "115741.696000", "115741.699000", "115741.702000", "115741.704000", "115741.707000", "115741.710000", "115741.712000", "115741.715000", "115741.717000", "115741.720000", "115741.723000", "115741.725000", "115741.728000", "115741.730000", "115741.733000", "115741.736000", "115741.738000", "115821.659000", "115821.662000", "115821.664000", "115821.667000", "115821.669000", "115821.672000", "115821.675000", "115821.677000", "115821.680000", "115821.682000", "115821.685000", "115821.688000", "115821.690000", "115821.693000", "115821.695000", "115821.698000", "115821.700000", "115821.703000", "115821.706000", "115821.709000", "115821.711000", "115821.714000", "115821.716000", "115821.719000", "115821.722000", "115821.724000", "115821.727000", "115901.676000", "115901.679000", "115901.681000", "115901.684000", "115901.686000", "115901.689000", "115901.692000", "115901.694000", "115901.697000", "115901.699000", "115901.702000", "115901.705000", "115901.707000", "115901.710000", "115901.712000", "115901.715000", "115901.717000", "115901.720000", "115901.723000", "115901.725000", "115901.728000", "115901.730000", "115901.733000", "115901.735000", "115901.738000", "115901.741000", "115901.743000", "115941.684000", "115941.687000", "115941.689000", "115941.692000", "115941.695000", "115941.697000", "115941.700000", "115941.702000", "115941.705000", "115941.708000", "115941.710000", "115941.713000", "115941.715000", "115941.718000", "115941.721000", "115941.723000", "115941.726000", "115941.728000", "115941.731000", "115941.733000", "115941.736000", "115941.739000", "115941.741000", "115941.744000", "115941.746000", "115941.749000", "115941.751000", "120021.672000", "120021.675000", "120021.677000", "120021.680000", "120021.682000", "120021.685000", "120021.688000", "120021.690000", "120021.693000", "120021.695000", "120021.698000", "120021.701000", "120021.703000", "120021.706000", "120021.708000", "120021.711000", "120021.713000", "120021.716000", "120021.719000", "120021.721000", "120021.724000", "120021.726000", "120021.729000", "120021.732000", "120021.734000", "120021.737000", "120021.739000", "120053.455000", "120053.457000", "120053.460000", "120053.463000", "120053.465000", "120053.468000", "120053.471000", "120053.473000", "120053.476000", "120053.479000", "120053.481000", "120053.484000", "120053.486000", "120053.489000", "120053.492000", "120053.494000", "120053.497000", "120053.500000", "120053.502000", "120053.505000", "120053.507000"],
