{
  "AcquisitionMatrixPE": 104,
  "AcquisitionNumber": 1,
  "AcquisitionTime": "16:44:47.767500",
  "BandwidthPerPixelPhaseEncode": 17.17,
  "BaseResolution": 104,
  "BodyPartExamined": "BRAIN",
  "CoilCombinationMethod": "Sum of Squares",
  "ConsistencyInfo": "N4_VE11C_LATEST_20160120",
  "ConversionSoftware": "dcm2niix",
  "ConversionSoftwareVersion": "v1.0.20220505",
  "DerivedVendorReportedEchoSpacing": 0.000560011,
  "DeviceSerialNumber": "167006",
  "DwellTime": 2.1e-06,
  "EchoTime": 0.037,
  "EchoTrainLength": 104,
  "EffectiveEchoSpacing": 0.000560011,
  "FlipAngle": 52,
  "HeudiconvVersion": "0.5.3.post811+g6206e14",
  "ImageComments": "Unaliased MB4/PE3/LB",
  "ImageOrientationPatientDICOM": [0.99895, 0.0231207, 0.0395523, -0.000348717, 0.86713, -0.498082],
  "ImageOrientationText": "Tra>Cor(-29.9)>Sag(2.6)",
  "ImageType": [
    "ORIGINAL",
    "PRIMARY",
    "M",
    "MB",
    "ND",
    "MOSAIC"
],
  "ImagingFrequency": 123.259,
  "InPlanePhaseEncodingDirectionDICOM": "COL",
  "InstitutionAddress": "Chemin Queen-Mary 4565,Montreal,District,CA,H3W 1W5",
  "InstitutionName": "IUGM",
  "InstitutionalDepartmentName": "Department",
  "MRAcquisitionType": "2D",
  "MagneticFieldStrength": 3,
  "Manufacturer": "Siemens",
  "ManufacturersModelName": "Prisma_fit",
  "MatrixCoilMode": "SENSE",
  "Modality": "MR",
  "MultibandAccelerationFactor": 4,
  "PartialFourier": 1,
  "PatientPosition": "HFS",
  "PercentPhaseFOV": 100,
  "PercentSampling": 100,
  "PhaseEncodingDirection": "j",
  "PhaseEncodingSteps": 104,
  "PhaseResolution": 1,
  "PixelBandwidth": 2290,
  "ProcedureStepDescription": "games^mariostars",
  "ProtocolName": "func_task-mariostars_run-03",
  "PulseSequenceDetails": "%CustomerSeq%\\cmrr_mbep2d_bold",
  "ReceiveCoilActiveElements": "HC1-7;NC1,2",
  "ReceiveCoilName": "HeadNeck_64",
  "ReconMatrixPE": 104,
  "RepetitionTime": 1.49,
  "SAR": 0.0930279,
  "ScanOptions": "FS",
  "ScanningSequence": "EP",
  "SequenceName": "epfid2d1_104",
  "SequenceVariant": "SK\\SS",
  "SeriesDescription": "func_task-mariostars_run-03",
  "SeriesNumber": 17,
  "ShimSetting": [627, -7208, -8859, 231, 57, -212, 6, 21],
  "SliceThickness": 2,
  "SliceTiming": [0, 0.7825, 0.0975, 0.8825, 0.195, 0.98, 0.2925, 1.0775, 0.3925, 1.175, 0.49, 1.2725, 0.5875, 1.37, 0.685, 0, 0.7825, 0.0975, 0.8825, 0.195, 0.98, 0.2925, 1.0775, 0.3925, 1.175, 0.49, 1.2725, 0.5875, 1.37, 0.685, 0, 0.7825, 0.0975, 0.8825, 0.195, 0.98, 0.2925, 1.0775, 0.3925, 1.175, 0.49, 1.2725, 0.5875, 1.37, 0.685, 0, 0.7825, 0.0975, 0.8825, 0.195, 0.98, 0.2925, 1.0775, 0.3925, 1.175, 0.49, 1.2725, 0.5875, 1.37, 0.685],
  "SoftwareVersions": "syngo MR E11",
  "SpacingBetweenSlices": 2,
  "StationName": "MRC35049",
  "TaskName": "mariostars",
  "TotalReadoutTime": 0.0576811,
  "TxRefAmp": 348.066,
  "WipMemBlock": "e67f33f4-d93d-4823-975f-935193c4a262||Sequence: R017 ve11c/master r/75a17815+; Jun 28 2022 16:32:11 by eja",
  "dcmmeta_affine": [
    [-1.9978998899459839, -0.0006974331918172538, 0.09162595123052597, 104.9738540649414],
    [-0.04624137282371521, 1.7342597246170044, -0.9950904250144958, -48.60295867919922],
    [0.07910459488630295, 0.9961639642715454, 1.7324548959732056, -82.53707885742188],
    [0.0, 0.0, 0.0, 1.0]
],
  "dcmmeta_reorient_transform": [
    [0.0, -1.0, 0.0, 103.0],
    [1.0, 0.0, 0.0, 0.0],
    [0.0, 0.0, 1.0, 0.0],
    [0.0, 0.0, 0.0, 1.0]
],
  "dcmmeta_shape": [104, 104, 60, 444],
  "dcmmeta_slice_dim": 2,
  "dcmmeta_version": 0.6,
  "global": {
    "const": {
      "AcquisitionMatrix": [104, 0, 0, 104],
      "AngioFlag": "N",
      "BitsAllocated": 16,
      "BitsStored": 16,
      "BodyPartExamined": "BRAIN",
      "Columns": 832,
      "EchoNumbers": 1,
      "EchoTime": 37.0,
      "EchoTrainLength": 104,
      "FlipAngle": 52.0,
      "HighBit": 15,
      "ImageOrientationPatient": [0.99894997351557, 0.02312068611532, 0.0395522981228, -0.0003487166016, 0.86712987196387, -0.4980819847622],
      "ImagePositionPatient": [-831.88373348813, -778.12819973448, 353.87742514458],
      "ImageType": [
        "ORIGINAL",
        "PRIMARY",
        "M",
        "MB",
        "ND",
        "MOSAIC"
],
      "ImagedNucleus": "1H",
      "ImagingFrequency": 123.25878,
      "InPlanePhaseEncodingDirection": "COL",
      "MRAcquisitionType": "2D",
      "MagneticFieldStrength": 3.0,
      "Manufacturer": "SIEMENS",
      "ManufacturerModelName": "Prisma_fit",
      "Modality": "MR",
      "NumberOfAverages": 1.0,
      "NumberOfPhaseEncodingSteps": 104,
      "PercentPhaseFieldOfView": 100.0,
      "PercentSampling": 100.0,
      "PerformedProcedureStepStartTime": "161238.902000",
      "PhotometricInterpretation": "MONOCHROME2",
      "PixelBandwidth": 2290.0,
      "PixelRepresentation": 0,
      "PixelSpacing": [2.0, 2.0],
      "ProtocolName": "func_task-mariostars_run-03",
      "RepetitionTime": 1490.0,
      "Rows": 832,
      "SAR": 0.09302789781453,
      "SamplesPerPixel": 1,
      "ScanOptions": "FS",
      "ScanningSequence": "EP",
      "SequenceName": "epfid2d1_104",
      "SequenceVariant": [
        "SK",
        "SS"
],
      "SeriesDescription": "func_task-mariostars_run-03",
      "SeriesNumber": 17,
      "SeriesTime": "164602.988000",
      "SliceLocation": -42.504544572338,
      "SliceThickness": 2.0,
      "SmallestImagePixelValue": 0,
      "SoftwareVersions": "syngo MR E11",
      "SpacingBetweenSlices": 2.0000000387293,
      "SpecificCharacterSet": "ISO_IR 100",
      "StudyID": "1",
      "StudyTime": "161238.824000",
      "TransmitCoilName": "Body",
      "VariableFlipAngleFlag": "N",
      "WindowCenterWidthExplanation": "Algo1",
      "dBdt": 0.0},
    "slices": {}
  },
  "time": {
    "samples": {
      "AcquisitionNumber": [1, 2, 3, 4, 5, 6, 7, 8, 9, 10, 11, 12, 13, 14, 15, 16, 17, 18, 19, 20, 21, 22, 23, 24, 25, 26, 27, 28, 29, 30, 31, 32, 33, 34, 35, 36, 37, 38, 39, 40, 41, 42, 43, 44, 45, 46, 47, 48, 49, 50, 51, 52, 53, 54, 55, 56, 57, 58, 59, 60, 61, 62, 63, 64, 65, 66, 67, 68, 69, 70, 71, 72, 73, 74, 75, 76, 77, 78, 79, 80, 81, 82, 83, 84, 85, 86, 87, 88, 89, 90, 91, 92, 93, 94, 95, 96, 97, 98, 99, 100, 101, 102, 103, 104, 105, 106, 107, 108, 109, 110, 111, 112, 113, 114, 115, 116, 117, 118, 119, 120, 121, 122, 123, 124, 125, 126, 127, 128, 129, 130, 131, 132, 133, 134, 135, 136, 137, 138, 139, 140, 141, 142, 143, 144, 145, 146, 147, 148, 149, 150, 151, 152, 153, 154, 155, 156, 157, 158, 159, 160, 161, 162, 163, 164, 165, 166, 167, 168, 169, 170, 171, 172, 173, 174, 175, 176, 177, 178, 179, 180, 181, 182, 183, 184, 185, 186, 187, 188, 189, 190, 191, 192, 193, 194, 195, 196, 197, 198, 199, 200, 201, 202, 203, 204, 205, 206, 207, 208, 209, 210, 211, 212, 213, 214, 215, 216, 217, 218, 219, 220, 221, 222, 223, 224, 225, 226, 227, 228, 229, 230, 231, 232, 233, 234, 235, 236, 237, 238, 239, 240, 241, 242, 243, 244, 245, 246, 247, 248, 249, 250, 251, 252, 253, 254, 255, 256, 257, 258, 259, 260, 261, 262, 263, 264, 265, 266, 267, 268, 269, 270, 271, 272, 273, 274, 275, 276, 277, 278, 279, 280, 281, 282, 283, 284, 285, 286, 287, 288, 289, 290, 291, 292, 293, 294, 295, 296, 297, 298, 299, 300, 301, 302, 303, 304, 305, 306, 307, 308, 309, 310, 311, 312, 313, 314, 315, 316, 317, 318, 319, 320, 321, 322, 323, 324, 325, 326, 327, 328, 329, 330, 331, 332, 333, 334, 335, 336, 337, 338, 339, 340, 341, 342, 343, 344, 345, 346, 347, 348, 349, 350, 351, 352, 353, 354, 355, 356, 357, 358, 359, 360, 361, 362, 363, 364, 365, 366, 367, 368, 369, 370, 371, 372, 373, 374, 375, 376, 377, 378, 379, 380, 381, 382, 383, 384, 385, 386, 387, 388, 389, 390, 391, 392, 393, 394, 395, 396, 397, 398, 399, 400, 401, 402, 403, 404, 405, 406, 407, 408, 409, 410, 411, 412, 413, 414, 415, 416, 417, 418, 419, 420, 421, 422, 423, 424, 425, 426, 427, 428, 429, 430, 431, 432, 433, 434, 435, 436, 437, 438, 439, 440, 441, 442, 443, 444],
      "AcquisitionTime": ["164447.767500", "164449.257500", "164450.747500", "164452.237500", "164453.727500", "164455.217500", "164456.707500", "164458.197500", "164459.687500", "164501.177500", "164502.667500", "164504.157500", "164505.647500", "164507.137500", "164508.627500", "164510.117500", "164511.607500", "164513.097500", "164514.587500", "164516.077500", "164517.567500", "164519.057500", "164520.547500", "164522.037500", "164523.527500", "164525.017500", "164526.507500", "164527.997500", "164529.487500", "164530.977500", "164532.467500", "164533.957500", "164535.447500", "164536.937500", "164538.427500", "164539.917500", "164541.407500", "164542.897500", "164544.387500", "164545.877500", "164547.367500", "164548.857500", "164550.347500", "164551.837500", "164553.327500", "164554.817500", "164556.307500", "164557.797500", "164559.287500", "164600.777500", "164602.267500", "164603.757500", "164605.247500", "164606.737500", "164608.227500", "164609.717500", "164611.207500", "164612.697500", "164614.187500", "164615.677500", "164617.167500", "164618.657500", "164620.147500", "164621.637500", "164623.127500", "164624.617500", "164626.107500", "164627.597500", "164629.087500", "164630.577500", "164632.067500", "164633.557500", "164635.047500", "164636.537500", "164638.027500", "164639.517500", "164641.007500", "164642.497500", "164643.987500", "164645.477500", "164646.967500", "164648.457500", "164649.947500", "164651.437500", "164652.927500", "164654.417500", "164655.907500", "164657.397500", "164658.887500", "164700.377500", "164701.867500", "164703.357500", "164704.847500", "164706.337500", "164707.827500", "164709.317500", "164710.807500", "164712.297500", "164713.787500", "164715.277500", "164716.767500", "164718.257500", "164719.747500", "164721.237500", "164722.727500", "164724.217500", "164725.707500", "164727.197500", "164728.687500", "164730.177500", "164731.667500", "164733.157500", "164734.647500", "164736.137500", "164737.627500", "164739.117500", "164740.607500", "164742.097500", "164743.587500", "164745.077500", "164746.567500", "164748.057500", "164749.547500", "164751.037500", "164752.527500", "164754.017500", "164755.507500", "164756.997500", "164758.487500", "164759.977500", "164801.467500", "164802.957500", "164804.447500", "164805.937500", "164807.427500", "164808.917500", "164810.407500", "164811.897500", "164813.387500", "164814.877500", "164816.367500", "164817.857500", "164819.347500", "164820.837500", "164822.327500", "164823.817500", "164825.307500", "164826.797500", "164828.287500", "164829.777500", "164831.267500", "164832.757500", "164834.247500", "164835.737500", "164837.227500", "164838.717500", "164840.207500", "164841.697500", "164843.187500", "164844.677500", "164846.167500", "164847.657500", "164849.147500", "164850.637500", "164852.127500", "164853.617500", "164855.107500", "164856.597500", "164858.087500", "164859.577500", "164901.067500", "164902.557500", "164904.047500", "164905.537500", "164907.027500", "164908.517500", "164910.007500", "164911.497500", "164912.987500", "164914.477500", "164915.967500", "164917.457500", "164918.947500", "164920.437500", "164921.927500", "164923.417500", "164924.907500", "164926.397500", "164927.887500", "164929.377500", "164930.867500", "164932.357500", "164933.847500", "164935.337500", "164936.827500", "164938.317500", "164939.807500", "164941.297500", "164942.787500", "164944.277500", "164945.767500", "164947.257500", "164948.747500", "164950.237500", "164951.727500", "164953.217500", "164954.707500", "164956.197500", "164957.687500", "164959.177500", "165000.667500", "165002.157500", "165003.647500", "165005.137500", "165006.627500", "165008.117500", "165009.607500", "165011.097500", "165012.587500", "165014.077500", "165015.567500", "165017.057500", "165018.547500", "165020.037500", "165021.527500", "165023.017500", "165024.507500", "165025.997500", "165027.487500", "165028.977500", "165030.467500", "165031.957500", "165033.447500", "165034.937500", "165036.427500", "165037.917500", "165039.407500", "165040.897500", "165042.387500", "165043.877500", "165045.367500", "165046.857500", "165048.347500", "165049.837500", "165051.327500", "165052.817500", "165054.307500", "165055.797500", "165057.287500", "165058.777500", "165100.267500", "165101.757500", "165103.247500", "165104.737500", "165106.227500", "165107.717500", "165109.207500", "165110.697500", "165112.187500", "165113.677500", "165115.167500", "165116.657500", "165118.147500", "165119.637500", "165121.127500", "165122.617500", "165124.107500", "165125.597500", "165127.087500", "165128.577500", "165130.067500", "165131.557500", "165133.047500", "165134.537500", "165136.027500", "165137.517500", "165139.007500", "165140.497500", "165141.987500", "165143.477500", "165144.967500", "165146.457500", "165147.947500", "165149.437500", "165150.927500", "165152.417500", "165153.907500", "165155.397500", "165156.887500", "165158.377500", "165159.867500", "165201.357500", "165202.847500", "165204.337500", "165205.827500", "165207.317500", "165208.807500", "165210.297500", "165211.787500", "165213.277500", "165214.767500", "165216.257500", "165217.747500", "165219.237500", "165220.727500", "165222.217500", "165223.707500", "165225.197500", "165226.687500", "165228.177500", "165229.667500", "165231.157500", "165232.647500", "165234.137500", "165235.627500", "165237.117500", "165238.607500", "165240.097500", "165241.587500", "165243.077500", "165244.567500", "165246.057500", "165247.547500", "165249.037500", "165250.527500", "165252.017500", "165253.507500", "165254.997500", "165256.487500", "165257.977500", "165259.467500", "165300.957500", "165302.447500", "165303.937500", "165305.427500", "165306.917500", "165308.407500", "165309.897500", "165311.387500", "165312.877500", "165314.367500", "165315.857500", "165317.347500", "165318.837500", "165320.327500", "165321.817500", "165323.307500", "165324.797500", "165326.287500", "165327.777500", "165329.267500", "165330.757500", "165332.247500", "165333.737500", "165335.227500", "165336.717500", "165338.207500", "165339.697500", "165341.187500", "165342.677500", "165344.167500", "165345.657500", "165347.147500", "165348.637500", "165350.127500", "165351.617500", "165353.107500", "165354.597500", "165356.087500", "165357.577500", "165359.067500", "165400.557500", "165402.047500", "165403.537500", "165405.027500", "165406.517500", "165408.007500", "165409.497500", "165410.987500", "165412.477500", "165413.967500", "165415.457500", "165416.947500", "165418.437500", "165419.927500", "165421.417500", "165422.907500", "165424.397500", "165425.887500", "165427.377500", "165428.867500", "165430.357500", "165431.847500", "165433.337500", "165434.827500", "165436.317500", "165437.807500", "165439.297500", "165440.787500", "165442.277500", "165443.767500", "165445.257500", "165446.747500", "165448.237500", "165449.727500", "165451.217500", "165452.707500", "165454.197500", "165455.687500", "165457.177500", "165458.667500", "165500.157500", "165501.647500", "165503.137500", "165504.627500", "165506.117500", "165507.607500", "165509.097500", "165510.587500", "165512.077500", "165513.567500", "165515.057500", "165516.547500", "165518.037500", "165519.527500", "165521.017500", "165522.507500", "165523.997500", "165525.487500", "165526.977500", "165528.467500", "165529.957500", "165531.447500", "165532.937500", "165534.427500", "165535.917500", "165537.407500", "165538.897500", "165540.387500", "165541.877500", "165543.367500", "165544.857500", "165546.347500", "165547.837500"],
      "ContentTime": ["164602.992000", "164602.995000", "164603.000000", "164603.003000", "164603.007000", "164603.010000", "164603.014000", "164603.017000", "164603.021000", "164603.024000", "164603.027000", "164603.031000", "164603.034000", "164603.037000", "164603.041000", "164603.044000", "164603.048000", "164603.051000", "164603.054000", "164603.058000", "164603.061000", "164603.065000", "164603.068000", "164603.071000", "164603.075000", "164603.084000", "164622.961000", "164622.966000", "164622.969000", "164622.973000", "164622.976000", "164622.979000", "164622.983000", "164622.986000", "164622.990000", "164622.993000", "164622.997000", "164623.001000", "164623.004000", "164623.008000", "164623.012000", "164623.015000", "164623.019000", "164623.030000", "164623.033000", "164623.060000", "164642.961000", "164642.965000", "164642.976000", "164642.979000", "164642.983000", "164642.986000", "164642.990000", "164642.993000", "164642.996000", "164643.000000", "164643.004000", "164643.009000", "164643.013000", "164643.016000", "164643.020000", "164643.024000", "164643.027000", "164643.031000", "164643.034000", "164643.038000", "164702.962000", "164702.966000", "164702.969000", "164702.973000", "164702.976000", "164702.979000", "164702.983000", "164702.986000", "164702.989000", "164702.993000", "164703.002000", "164703.006000", "164703.009000", "164703.012000", "164703.016000", "164703.019000", "164703.023000", "164703.026000", "164703.037000", "164703.040000", "164703.044000", "164742.962000", "164742.966000", "164742.969000", "164742.973000", "164742.976000", "164742.980000", "164742.983000", "164742.986000", "164742.990000", "164742.993000", "164742.996000", "164743.001000", "164743.009000", "164743.012000", "164743.016000", "164743.026000", "164743.029000", "164743.032000", "164743.036000", "164743.040000", "164743.043000", "164743.046000", "164743.050000", "164743.053000", "164743.057000", "164743.060000", "164743.063000", "164743.067000", "164743.070000", "164743.074000", "164822.961000", "164822.965000", "164822.968000", "164822.972000", "164822.975000", "164822.979000", "164822.982000", "164822.985000", "164822.989000", "164822.992000", "164822.996000", "164823.000000", "164823.004000", "164823.007000", "164823.011000", "164823.014000", "164823.017000", "164823.021000", "164823.024000", "164823.028000", "164823.031000", "164823.035000", "164823.038000", "164823.041000", "164823.045000", "164823.048000", "164902.961000", "164902.965000", "164902.969000", "164902.972000", "164902.975000", "164902.979000", "164902.982000", "164902.986000", "164902.989000", "164902.992000", "164902.996000", "164903.000000", "164903.004000", "164903.007000", "164903.011000", "164903.014000", "164903.018000", "164903.021000", "164903.024000", "164903.028000", "164903.031000", "164903.035000", "164903.038000", "164903.042000", "164903.045000", "164903.048000", "164903.052000", "164942.962000", "164942.966000", "164942.969000", "164942.973000", "164942.977000", "164942.981000", "164942.984000", "164942.987000", "164942.991000", "164943.001000", "164943.004000", "164943.007000", "164943.011000", "164943.014000", "164943.018000", "164943.021000", "164943.024000", "164943.028000", "164943.031000", "164943.035000", "164943.038000", "164943.041000", "164943.045000", "164943.048000", "164943.052000", "164943.055000", "164943.059000", "165022.961000", "165022.965000", "165022.968000", "165022.972000", "165022.975000", "165022.979000", "165022.982000", "165022.985000", "165022.989000", "165022.992000", "165022.996000", "165023.000000", "165023.003000", "165023.007000", "165023.010000", "165023.014000", "165023.017000", "165023.020000", "165023.024000", "165023.027000", "165023.031000", "165023.034000", "165023.037000", "165023.041000", "165023.044000", "165023.048000", "165023.051000", "165102.961000", "165102.965000", "165102.968000", "165102.972000", "165102.981000", "165102.985000", "165102.988000", "165102.992000", "165102.995000", "165103.000000", "165103.003000", "165103.007000", "165103.010000", "165103.013000", "165103.017000", "165103.020000", "165103.024000", "165103.027000", "165103.043000", "165103.046000", "165103.050000", "165103.053000", "165103.056000", "165103.060000", "165103.063000", "165103.067000", "165103.070000", "165142.962000", "165142.966000", "165142.970000", "165142.973000", "165142.976000", "165142.980000", "165142.983000", "165142.986000", "165142.990000", "165142.993000", "165142.997000", "165143.001000", "165143.005000", "165143.008000", "165143.011000", "165143.015000", "165143.018000", "165143.022000", "165143.025000", "165143.029000", "165143.032000", "165143.035000", "165143.039000", "165143.042000", "165143.046000", "165143.049000", "165143.052000", "165222.962000", "165222.966000", "165222.970000", "165222.973000", "165222.976000", "165222.980000", "165222.983000", "165222.987000", "165222.990000", "165222.994000", "165222.997000", "165223.001000", "165223.005000", "165223.008000", "165223.012000", "165223.015000", "165223.019000", "165223.022000", "165223.026000", "165223.029000", "165223.033000", "165223.036000", "165223.039000", "165223.043000", "165223.046000", "165223.050000", "165302.961000", "165302.965000", "165302.968000", "165302.972000", "165302.975000", "165302.979000", "165302.982000", "165302.986000", "165302.989000", "165302.993000", "165302.996000", "165303.001000", "165303.004000", "165303.008000", "165303.011000", "165303.014000", "165303.018000", "165303.021000", "165303.025000", "165303.028000", "165303.032000", "165303.035000", "165303.039000", "165303.042000", "165303.046000", "165303.049000", "165303.052000", "165342.962000", "165342.966000", "165342.969000", "165342.973000", "165342.976000", "165342.980000", "165342.983000", "165342.987000", "165342.990000", "165342.993000", "165342.997000", "165343.000000", "165343.004000", "165343.007000", "165343.010000", "165343.014000", "165343.017000", "165343.021000", "165343.024000", "165343.027000", "165343.031000", "165343.034000", "165343.038000", "165343.041000", "165343.044000", "165343.048000", "165343.051000", "165422.962000", "165422.966000", "165422.969000", "165422.973000", "165422.978000", "165422.981000", "165422.985000", "165422.988000", "165422.991000", "165422.995000", "165422.998000", "165423.002000", "165423.006000", "165423.009000", "165423.013000", "165423.016000", "165423.020000", "165423.023000", "165423.026000", "165423.030000", "165423.033000", "165423.036000", "165423.040000", "165423.043000", "165423.047000", "165423.050000", "165423.053000", "165502.961000", "165502.965000", "165502.968000", "165502.972000", "165502.975000", "165502.979000", "165502.982000", "165502.986000", "165502.989000", "165502.992000", "165502.996000", "165503.000000", "165503.004000", "165503.007000", "165503.010000", "165503.014000", "165503.017000", "165503.021000", "165503.024000", "165503.027000", "165503.031000", "165503.034000", "165503.038000", "165503.041000", "165503.044000", "165503.048000", "165503.051000", "165542.961000", "165542.965000", "165542.968000", "165542.972000", "165542.983000", "165542.986000", "165542.990000", "165542.993000", "165542.997000", "165543.001000", "165543.004000", "165543.008000", "165543.011000", "165543.015000", "165543.018000", "165543.021000", "165543.025000", "165543.028000", "165543.031000", "165543.035000", "165543.042000", "165543.045000", "165543.048000", "165543.052000", "165543.055000", "165543.059000", "165543.062000", "165550.996000", "165551.008000", "165551.012000", "165551.015000", "165551.019000"],
