{
  "AcquisitionMatrixPE": 104,
  "AcquisitionNumber": 1,
  "AcquisitionTime": "16:20:54.632500",
  "BandwidthPerPixelPhaseEncode": 17.17,
  "BaseResolution": 104,
  "BodyPartExamined": "BRAIN",
  "CoilCombinationMethod": "Sum of Squares",
  "ConsistencyInfo": "N4_VE11C_LATEST_20160120",
  "ConversionSoftware": "dcm2niix",
  "ConversionSoftwareVersion": "v1.0.20220505",
  "DerivedVendorReportedEchoSpacing": 0.000560011,
  "DeviceSerialNumber": "167006",
  "DwellTime": 2.1e-06,
  "EchoTime": 0.037,
  "EchoTrainLength": 104,
  "EffectiveEchoSpacing": 0.000560011,
  "FlipAngle": 52,
  "HeudiconvVersion": "0.5.3.post811+g6206e14",
  "ImageComments": "Unaliased MB4/PE3/LB",
  "ImageOrientationPatientDICOM": [0.99895, 0.0231207, 0.0395523, -0.000348717, 0.86713, -0.498082],
  "ImageOrientationText": "Tra>Cor(-29.9)>Sag(2.6)",
  "ImageType": [
    "ORIGINAL",
    "PRIMARY",
    "M",
    "MB",
    "ND",
    "MOSAIC"
],
  "ImagingFrequency": 123.259,
  "InPlanePhaseEncodingDirectionDICOM": "COL",
  "InstitutionAddress": "Chemin Queen-Mary 4565,Montreal,District,CA,H3W 1W5",
  "InstitutionName": "IUGM",
  "InstitutionalDepartmentName": "Department",
  "MRAcquisitionType": "2D",
  "MagneticFieldStrength": 3,
  "Manufacturer": "Siemens",
  "ManufacturersModelName": "Prisma_fit",
  "MatrixCoilMode": "SENSE",
  "Modality": "MR",
  "MultibandAccelerationFactor": 4,
  "PartialFourier": 1,
  "PatientPosition": "HFS",
  "PercentPhaseFOV": 100,
  "PercentSampling": 100,
  "PhaseEncodingDirection": "j",
  "PhaseEncodingSteps": 104,
  "PhaseResolution": 1,
  "PixelBandwidth": 2290,
  "ProcedureStepDescription": "games^mariostars",
  "ProtocolName": "func_task-mariostars_run-01",
  "PulseSequenceDetails": "%CustomerSeq%\\cmrr_mbep2d_bold",
  "ReceiveCoilActiveElements": "HC1-7;NC1,2",
  "ReceiveCoilName": "HeadNeck_64",
  "ReconMatrixPE": 104,
  "RepetitionTime": 1.49,
  "SAR": 0.0930279,
  "ScanOptions": "FS",
  "ScanningSequence": "EP",
  "SequenceName": "epfid2d1_104",
  "SequenceVariant": "SK\\SS",
  "SeriesDescription": "func_task-mariostars_run-01",
  "SeriesNumber": 11,
  "ShimSetting": [627, -7208, -8859, 231, 57, -212, 6, 21],
  "SliceThickness": 2,
  "SliceTiming": [0, 0.7825, 0.0975, 0.88, 0.195, 0.98, 0.2925, 1.0775, 0.39, 1.175, 0.49, 1.2725, 0.5875, 1.37, 0.685, 0, 0.7825, 0.0975, 0.88, 0.195, 0.98, 0.2925, 1.0775, 0.39, 1.175, 0.49, 1.2725, 0.5875, 1.37, 0.685, 0, 0.7825, 0.0975, 0.88, 0.195, 0.98, 0.2925, 1.0775, 0.39, 1.175, 0.49, 1.2725, 0.5875, 1.37, 0.685, 0, 0.7825, 0.0975, 0.88, 0.195, 0.98, 0.2925, 1.0775, 0.39, 1.175, 0.49, 1.2725, 0.5875, 1.37, 0.685],
  "SoftwareVersions": "syngo MR E11",
  "SpacingBetweenSlices": 2,
  "StationName": "MRC35049",
  "TaskName": "mariostars",
  "TotalReadoutTime": 0.0576811,
  "TxRefAmp": 348.066,
  "WipMemBlock": "5620f13d-000a-4ee3-8bbe-502273c620d5||Sequence: R017 ve11c/master r/75a17815+; Jun 28 2022 16:32:11 by eja",
  "dcmmeta_affine": [
    [-1.9978998899459839, -0.0006974331918172538, 0.09162595123052597, 104.9738540649414],
    [-0.04624137282371521, 1.7342597246170044, -0.9950904250144958, -48.60295867919922],
    [0.07910459488630295, 0.9961639642715454, 1.7324548959732056, -82.53707885742188],
    [0.0, 0.0, 0.0, 1.0]
],
  "dcmmeta_reorient_transform": [
    [0.0, -1.0, 0.0, 103.0],
    [1.0, 0.0, 0.0, 0.0],
    [0.0, 0.0, 1.0, 0.0],
    [0.0, 0.0, 0.0, 1.0]
],
  "dcmmeta_shape": [104, 104, 60, 440],
  "dcmmeta_slice_dim": 2,
  "dcmmeta_version": 0.6,
  "global": {
    "const": {
      "AcquisitionMatrix": [104, 0, 0, 104],
      "AngioFlag": "N",
      "BitsAllocated": 16,
      "BitsStored": 16,
      "BodyPartExamined": "BRAIN",
      "Columns": 832,
      "EchoNumbers": 1,
      "EchoTime": 37.0,
      "EchoTrainLength": 104,
      "FlipAngle": 52.0,
      "HighBit": 15,
      "ImageOrientationPatient": [0.99894997351557, 0.02312068611532, 0.0395522981228, -0.0003487166016, 0.86712987196387, -0.4980819847622],
      "ImagePositionPatient": [-831.88373348813, -778.12819973448, 353.87742514458],
      "ImageType": [
        "ORIGINAL",
        "PRIMARY",
        "M",
        "MB",
        "ND",
        "MOSAIC"
],
      "ImagedNucleus": "1H",
      "ImagingFrequency": 123.258768,
      "InPlanePhaseEncodingDirection": "COL",
      "MRAcquisitionType": "2D",
      "MagneticFieldStrength": 3.0,
      "Manufacturer": "SIEMENS",
      "ManufacturerModelName": "Prisma_fit",
      "Modality": "MR",
      "NumberOfAverages": 1.0,
      "NumberOfPhaseEncodingSteps": 104,
      "PercentPhaseFieldOfView": 100.0,
      "PercentSampling": 100.0,
      "PerformedProcedureStepStartTime": "161238.902000",
      "PhotometricInterpretation": "MONOCHROME2",
      "PixelBandwidth": 2290.0,
      "PixelRepresentation": 0,
      "PixelSpacing": [2.0, 2.0],
      "ProtocolName": "func_task-mariostars_run-01",
      "RepetitionTime": 1490.0,
      "Rows": 832,
      "SAR": 0.09302789781453,
      "SamplesPerPixel": 1,
      "ScanOptions": "FS",
      "ScanningSequence": "EP",
      "SequenceName": "epfid2d1_104",
      "SequenceVariant": [
        "SK",
        "SS"
],
      "SeriesDescription": "func_task-mariostars_run-01",
      "SeriesNumber": 11,
      "SeriesTime": "162213.796000",
      "SliceLocation": -42.504544572338,
      "SliceThickness": 2.0,
      "SmallestImagePixelValue": 0,
      "SoftwareVersions": "syngo MR E11",
      "SpacingBetweenSlices": 2.0000000387293,
      "SpecificCharacterSet": "ISO_IR 100",
      "StudyID": "1",
      "StudyTime": "161238.824000",
      "TransmitCoilName": "Body",
      "VariableFlipAngleFlag": "N",
      "WindowCenterWidthExplanation": "Algo1",
      "dBdt": 0.0},
    "slices": {}
  },
  "time": {
    "samples": {
      "AcquisitionNumber": [1, 2, 3, 4, 5, 6, 7, 8, 9, 10, 11, 12, 13, 14, 15, 16, 17, 18, 19, 20, 21, 22, 23, 24, 25, 26, 27, 28, 29, 30, 31, 32, 33, 34, 35, 36, 37, 38, 39, 40, 41, 42, 43, 44, 45, 46, 47, 48, 49, 50, 51, 52, 53, 54, 55, 56, 57, 58, 59, 60, 61, 62, 63, 64, 65, 66, 67, 68, 69, 70, 71, 72, 73, 74, 75, 76, 77, 78, 79, 80, 81, 82, 83, 84, 85, 86, 87, 88, 89, 90, 91, 92, 93, 94, 95, 96, 97, 98, 99, 100, 101, 102, 103, 104, 105, 106, 107, 108, 109, 110, 111, 112, 113, 114, 115, 116, 117, 118, 119, 120, 121, 122, 123, 124, 125, 126, 127, 128, 129, 130, 131, 132, 133, 134, 135, 136, 137, 138, 139, 140, 141, 142, 143, 144, 145, 146, 147, 148, 149, 150, 151, 152, 153, 154, 155, 156, 157, 158, 159, 160, 161, 162, 163, 164, 165, 166, 167, 168, 169, 170, 171, 172, 173, 174, 175, 176, 177, 178, 179, 180, 181, 182, 183, 184, 185, 186, 187, 188, 189, 190, 191, 192, 193, 194, 195, 196, 197, 198, 199, 200, 201, 202, 203, 204, 205, 206, 207, 208, 209, 210, 211, 212, 213, 214, 215, 216, 217, 218, 219, 220, 221, 222, 223, 224, 225, 226, 227, 228, 229, 230, 231, 232, 233, 234, 235, 236, 237, 238, 239, 240, 241, 242, 243, 244, 245, 246, 247, 248, 249, 250, 251, 252, 253, 254, 255, 256, 257, 258, 259, 260, 261, 262, 263, 264, 265, 266, 267, 268, 269, 270, 271, 272, 273, 274, 275, 276, 277, 278, 279, 280, 281, 282, 283, 284, 285, 286, 287, 288, 289, 290, 291, 292, 293, 294, 295, 296, 297, 298, 299, 300, 301, 302, 303, 304, 305, 306, 307, 308, 309, 310, 311, 312, 313, 314, 315, 316, 317, 318, 319, 320, 321, 322, 323, 324, 325, 326, 327, 328, 329, 330, 331, 332, 333, 334, 335, 336, 337, 338, 339, 340, 341, 342, 343, 344, 345, 346, 347, 348, 349, 350, 351, 352, 353, 354, 355, 356, 357, 358, 359, 360, 361, 362, 363, 364, 365, 366, 367, 368, 369, 370, 371, 372, 373, 374, 375, 376, 377, 378, 379, 380, 381, 382, 383, 384, 385, 386, 387, 388, 389, 390, 391, 392, 393, 394, 395, 396, 397, 398, 399, 400, 401, 402, 403, 404, 405, 406, 407, 408, 409, 410, 411, 412, 413, 414, 415, 416, 417, 418, 419, 420, 421, 422, 423, 424, 425, 426, 427, 428, 429, 430, 431, 432, 433, 434, 435, 436, 437, 438, 439, 440],
      "AcquisitionTime": ["162054.632500", "162056.122500", "162057.612500", "162059.102500", "162100.592500", "162102.082500", "162103.572500", "162105.062500", "162106.552500", "162108.042500", "162109.532500", "162111.022500", "162112.512500", "162114.002500", "162115.492500", "162116.982500", "162118.472500", "162119.962500", "162121.452500", "162122.942500", "162124.432500", "162125.922500", "162127.412500", "162128.902500", "162130.392500", "162131.882500", "162133.372500", "162134.862500", "162136.352500", "162137.842500", "162139.332500", "162140.822500", "162142.312500", "162143.802500", "162145.292500", "162146.782500", "162148.272500", "162149.762500", "162151.252500", "162152.742500", "162154.232500", "162155.722500", "162157.212500", "162158.702500", "162200.192500", "162201.682500", "162203.172500", "162204.662500", "162206.152500", "162207.642500", "162209.132500", "162210.622500", "162212.112500", "162213.602500", "162215.092500", "162216.582500", "162218.072500", "162219.562500", "162221.052500", "162222.542500", "162224.032500", "162225.522500", "162227.012500", "162228.502500", "162229.992500", "162231.482500", "162232.972500", "162234.462500", "162235.952500", "162237.442500", "162238.932500", "162240.422500", "162241.912500", "162243.402500", "162244.892500", "162246.382500", "162247.872500", "162249.362500", "162250.852500", "162252.342500", "162253.832500", "162255.322500", "162256.812500", "162258.302500", "162259.792500", "162301.282500", "162302.772500", "162304.262500", "162305.752500", "162307.242500", "162308.732500", "162310.222500", "162311.712500", "162313.202500", "162314.692500", "162316.182500", "162317.672500", "162319.162500", "162320.652500", "162322.142500", "162323.632500", "162325.122500", "162326.612500", "162328.102500", "162329.592500", "162331.082500", "162332.572500", "162334.062500", "162335.552500", "162337.042500", "162338.532500", "162340.022500", "162341.512500", "162343.002500", "162344.492500", "162345.982500", "162347.472500", "162348.962500", "162350.452500", "162351.942500", "162353.432500", "162354.922500", "162356.412500", "162357.902500", "162359.392500", "162400.882500", "162402.372500", "162403.862500", "162405.352500", "162406.842500", "162408.332500", "162409.822500", "162411.312500", "162412.802500", "162414.292500", "162415.782500", "162417.272500", "162418.762500", "162420.252500", "162421.742500", "162423.232500", "162424.722500", "162426.212500", "162427.702500", "162429.192500", "162430.682500", "162432.172500", "162433.662500", "162435.152500", "162436.642500", "162438.132500", "162439.622500", "162441.112500", "162442.602500", "162444.092500", "162445.582500", "162447.072500", "162448.562500", "162450.052500", "162451.542500", "162453.032500", "162454.522500", "162456.012500", "162457.502500", "162458.992500", "162500.482500", "162501.972500", "162503.462500", "162504.952500", "162506.442500", "162507.932500", "162509.422500", "162510.912500", "162512.402500", "162513.892500", "162515.382500", "162516.872500", "162518.362500", "162519.852500", "162521.342500", "162522.832500", "162524.322500", "162525.812500", "162527.302500", "162528.792500", "162530.282500", "162531.772500", "162533.262500", "162534.752500", "162536.242500", "162537.732500", "162539.222500", "162540.712500", "162542.202500", "162543.692500", "162545.182500", "162546.672500", "162548.162500", "162549.652500", "162551.142500", "162552.632500", "162554.122500", "162555.612500", "162557.102500", "162558.592500", "162600.082500", "162601.572500", "162603.062500", "162604.552500", "162606.042500", "162607.532500", "162609.022500", "162610.512500", "162612.002500", "162613.492500", "162614.982500", "162616.472500", "162617.962500", "162619.452500", "162620.942500", "162622.432500", "162623.922500", "162625.412500", "162626.902500", "162628.392500", "162629.882500", "162631.372500", "162632.862500", "162634.352500", "162635.842500", "162637.332500", "162638.822500", "162640.312500", "162641.802500", "162643.292500", "162644.782500", "162646.272500", "162647.762500", "162649.252500", "162650.742500", "162652.232500", "162653.722500", "162655.212500", "162656.702500", "162658.192500", "162659.682500", "162701.172500", "162702.662500", "162704.152500", "162705.642500", "162707.132500", "162708.622500", "162710.112500", "162711.602500", "162713.092500", "162714.582500", "162716.072500", "162717.562500", "162719.052500", "162720.542500", "162722.032500", "162723.522500", "162725.012500", "162726.502500", "162727.992500", "162729.482500", "162730.972500", "162732.462500", "162733.952500", "162735.442500", "162736.932500", "162738.422500", "162739.912500", "162741.402500", "162742.892500", "162744.382500", "162745.872500", "162747.362500", "162748.852500", "162750.342500", "162751.832500", "162753.322500", "162754.812500", "162756.302500", "162757.792500", "162759.282500", "162800.772500", "162802.262500", "162803.752500", "162805.242500", "162806.732500", "162808.222500", "162809.712500", "162811.202500", "162812.692500", "162814.182500", "162815.672500", "162817.162500", "162818.652500", "162820.142500", "162821.632500", "162823.122500", "162824.612500", "162826.102500", "162827.592500", "162829.082500", "162830.572500", "162832.062500", "162833.552500", "162835.042500", "162836.532500", "162838.022500", "162839.512500", "162841.002500", "162842.492500", "162843.982500", "162845.472500", "162846.962500", "162848.452500", "162849.942500", "162851.432500", "162852.922500", "162854.412500", "162855.902500", "162857.392500", "162858.882500", "162900.372500", "162901.862500", "162903.352500", "162904.842500", "162906.332500", "162907.822500", "162909.312500", "162910.802500", "162912.292500", "162913.782500", "162915.272500", "162916.762500", "162918.252500", "162919.742500", "162921.232500", "162922.722500", "162924.212500", "162925.702500", "162927.192500", "162928.682500", "162930.172500", "162931.662500", "162933.152500", "162934.642500", "162936.132500", "162937.622500", "162939.112500", "162940.602500", "162942.092500", "162943.582500", "162945.072500", "162946.562500", "162948.052500", "162949.542500", "162951.032500", "162952.522500", "162954.012500", "162955.502500", "162956.992500", "162958.482500", "162959.972500", "163001.462500", "163002.952500", "163004.442500", "163005.932500", "163007.422500", "163008.912500", "163010.402500", "163011.892500", "163013.382500", "163014.872500", "163016.362500", "163017.852500", "163019.342500", "163020.832500", "163022.322500", "163023.812500", "163025.302500", "163026.792500", "163028.282500", "163029.772500", "163031.262500", "163032.752500", "163034.242500", "163035.732500", "163037.222500", "163038.712500", "163040.202500", "163041.692500", "163043.182500", "163044.672500", "163046.162500", "163047.652500", "163049.142500", "163050.632500", "163052.122500", "163053.612500", "163055.102500", "163056.592500", "163058.082500", "163059.572500", "163101.062500", "163102.552500", "163104.042500", "163105.532500", "163107.022500", "163108.512500", "163110.002500", "163111.492500", "163112.982500", "163114.472500", "163115.962500", "163117.452500", "163118.942500", "163120.432500", "163121.922500", "163123.412500", "163124.902500", "163126.392500", "163127.882500", "163129.372500", "163130.862500", "163132.352500", "163133.842500", "163135.332500", "163136.822500", "163138.312500", "163139.802500", "163141.292500", "163142.782500", "163144.272500", "163145.762500", "163147.252500", "163148.742500"],
      "ContentTime": ["162213.799000", "162213.803000", "162213.806000", "162213.810000", "162213.813000", "162213.816000", "162213.820000", "162213.827000", "162213.830000", "162213.834000", "162213.837000", "162213.841000", "162213.844000", "162213.848000", "162213.851000", "162213.854000", "162213.858000", "162213.861000", "162213.865000", "162213.868000", "162213.871000", "162213.875000", "162213.878000", "162213.881000", "162213.885000", "162213.888000", "162213.891000", "162213.895000", "162213.898000", "162213.902000", "162213.905000", "162233.757000", "162233.761000", "162233.764000", "162233.768000", "162233.771000", "162233.774000", "162233.778000", "162233.781000", "162233.785000", "162233.788000", "162233.792000", "162233.795000", "162233.800000", "162233.804000", "162233.807000", "162233.812000", "162233.815000", "162233.819000", "162233.822000", "162233.826000", "162253.756000", "162253.760000", "162253.763000", "162253.767000", "162253.770000", "162253.773000", "162253.777000", "162253.793000", "162253.797000", "162253.800000", "162253.804000", "162253.807000", "162253.810000", "162253.820000", "162253.824000", "162253.827000", "162253.830000", "162253.834000", "162253.837000", "162253.840000", "162253.844000", "162313.756000", "162313.760000", "162313.763000", "162313.767000", "162313.770000", "162313.774000", "162313.777000", "162313.780000", "162313.784000", "162313.787000", "162313.790000", "162313.794000", "162313.797000", "162313.801000", "162313.804000", "162313.807000", "162313.811000", "162313.814000", "162313.817000", "162313.821000", "162353.756000", "162353.760000", "162353.764000", "162353.775000", "162353.779000", "162353.783000", "162353.786000", "162353.790000", "162353.793000", "162353.796000", "162353.800000", "162353.803000", "162353.807000", "162353.810000", "162353.814000", "162353.817000", "162353.820000", "162353.824000", "162353.827000", "162353.831000", "162353.834000", "162353.837000", "162353.841000", "162353.844000", "162353.847000", "162353.851000", "162353.854000", "162433.756000", "162433.760000", "162433.763000", "162433.767000", "162433.770000", "162433.774000", "162433.777000", "162433.780000", "162433.784000", "162433.787000", "162433.790000", "162433.794000", "162433.797000", "162433.801000", "162433.804000", "162433.807000", "162433.811000", "162433.814000", "162433.818000", "162433.821000", "162433.824000", "162433.828000", "162433.831000", "162433.834000", "162433.838000", "162433.842000", "162433.846000", "162513.756000", "162513.760000", "162513.764000", "162513.767000", "162513.771000", "162513.774000", "162513.778000", "162513.781000", "162513.784000", "162513.788000", "162513.791000", "162513.795000", "162513.798000", "162513.801000", "162513.805000", "162513.808000", "162513.812000", "162513.826000", "162513.829000", "162513.833000", "162513.836000", "162513.839000", "162513.843000", "162513.846000", "162513.849000", "162513.853000", "162513.856000", "162553.756000", "162553.760000", "162553.763000", "162553.767000", "162553.770000", "162553.774000", "162553.777000", "162553.780000", "162553.784000", "162553.787000", "162553.791000", "162553.794000", "162553.797000", "162553.801000", "162553.804000", "162553.807000", "162553.811000", "162553.814000", "162553.818000", "162553.821000", "162553.824000", "162553.828000", "162553.831000", "162553.834000", "162553.838000", "162553.841000", "162553.845000", "162633.757000", "162633.760000", "162633.764000", "162633.767000", "162633.771000", "162633.774000", "162633.778000", "162633.781000", "162633.785000", "162633.788000", "162633.791000", "162633.795000", "162633.798000", "162633.802000", "162633.805000", "162633.809000", "162633.812000", "162633.815000", "162633.819000", "162633.822000", "162633.826000", "162633.829000", "162633.833000", "162633.836000", "162633.840000", "162633.843000", "162633.846000", "162713.757000", "162713.761000", "162713.765000", "162713.768000", "162713.771000", "162713.775000", "162713.778000", "162713.781000", "162713.785000", "162713.788000", "162713.792000", "162713.795000", "162713.798000", "162713.802000", "162713.805000", "162713.809000", "162713.812000", "162713.815000", "162713.819000", "162713.822000", "162713.826000", "162713.829000", "162713.832000", "162713.836000", "162713.839000", "162713.843000", "162713.846000", "162753.756000", "162753.760000", "162753.764000", "162753.767000", "162753.771000", "162753.774000", "162753.778000", "162753.781000", "162753.784000", "162753.788000", "162753.791000", "162753.795000", "162753.798000", "162753.802000", "162753.805000", "162753.809000", "162753.812000", "162753.815000", "162753.819000", "162753.822000", "162753.826000", "162753.829000", "162753.833000", "162753.836000", "162753.839000", "162753.843000", "162753.846000", "162833.756000", "162833.760000", "162833.763000", "162833.767000", "162833.770000", "162833.774000", "162833.777000", "162833.781000", "162833.784000", "162833.788000", "162833.791000", "162833.794000", "162833.798000", "162833.801000", "162833.805000", "162833.808000", "162833.811000", "162833.815000", "162833.818000", "162833.822000", "162833.835000", "162833.838000", "162833.841000", "162833.845000", "162833.848000", "162833.852000", "162913.756000", "162913.760000", "162913.763000", "162913.767000", "162913.771000", "162913.774000", "162913.777000", "162913.781000", "162913.784000", "162913.788000", "162913.791000", "162913.795000", "162913.798000", "162913.802000", "162913.805000", "162913.808000", "162913.812000", "162913.816000", "162913.819000", "162913.822000", "162913.826000", "162913.829000", "162913.833000", "162913.836000", "162913.840000", "162913.843000", "162913.846000", "162953.757000", "162953.760000", "162953.764000", "162953.767000", "162953.771000", "162953.774000", "162953.778000", "162953.781000", "162953.784000", "162953.788000", "162953.791000", "162953.807000", "162953.811000", "162953.814000", "162953.818000", "162953.821000", "162953.824000", "162953.828000", "162953.831000", "162953.835000", "162953.838000", "162953.842000", "162953.845000", "162953.848000", "162953.852000", "162953.855000", "162953.859000", "163033.756000", "163033.760000", "163033.764000", "163033.767000", "163033.771000", "163033.774000", "163033.778000", "163033.781000", "163033.785000", "163033.788000", "163033.791000", "163033.795000", "163033.798000", "163033.803000", "163033.807000", "163033.810000", "163033.814000", "163033.817000", "163033.820000", "163033.824000", "163033.827000", "163033.831000", "163033.834000", "163033.838000", "163033.841000", "163033.845000", "163033.848000", "163113.756000", "163113.760000", "163113.764000", "163113.767000", "163113.771000", "163113.774000", "163113.777000", "163113.781000", "163113.784000", "163113.788000", "163113.791000", "163113.795000", "163113.798000", "163113.801000", "163113.805000", "163113.808000", "163113.812000", "163113.815000", "163113.819000", "163113.822000", "163113.825000", "163113.829000", "163113.832000", "163113.836000", "163113.839000", "163113.842000", "163113.846000", "163151.743000", "163151.747000", "163151.751000", "163151.754000", "163151.758000", "163151.761000", "163151.765000", "163151.768000", "163151.772000", "163151.775000", "163151.779000", "163151.782000", "163151.786000", "163151.789000", "163151.793000", "163151.796000", "163151.800000", "163151.809000", "163151.813000", "163151.816000", "163151.820000", "163151.824000", "163151.827000", "163151.844000", "163151.853000"],
