{
  "AcquisitionMatrixPE": 104,
  "AcquisitionNumber": 1,
  "AcquisitionTime": "16:44:47.767500",
  "BandwidthPerPixelPhaseEncode": 17.17,
  "BaseResolution": 104,
  "BodyPartExamined": "BRAIN",
  "CoilCombinationMethod": "Sum of Squares",
  "ConsistencyInfo": "N4_VE11C_LATEST_20160120",
  "ConversionSoftware": "dcm2niix",
  "ConversionSoftwareVersion": "v1.0.20220505",
  "DerivedVendorReportedEchoSpacing": 0.000560011,
  "DeviceSerialNumber": "167006",
  "DwellTime": 2.1e-06,
  "EchoTime": 0.037,
  "EchoTime1": 0.037,
  "EchoTime2": 0.001,
  "EchoTrainLength": 104,
  "EffectiveEchoSpacing": 0.000560011,
  "FlipAngle": 52,
  "HeudiconvVersion": "0.5.3.post811+g6206e14",
  "ImageComments": "Unaliased MB4/PE3/LB",
  "ImageOrientationPatientDICOM": [0.99895, 0.0231207, 0.0395523, -0.000348717, 0.86713, -0.498082],
  "ImageOrientationText": "Tra>Cor(-29.9)>Sag(2.6)",
  "ImageType": [
    "ORIGINAL",
    "PRIMARY",
    "P",
    "MB",
    "ND",
    "MOSAIC",
    "PHASE"
],
  "ImagingFrequency": 123.259,
  "InPlanePhaseEncodingDirectionDICOM": "COL",
  "InstitutionAddress": "Chemin Queen-Mary 4565,Montreal,District,CA,H3W 1W5",
  "InstitutionName": "IUGM",
  "InstitutionalDepartmentName": "Department",
  "MRAcquisitionType": "2D",
  "MagneticFieldStrength": 3,
  "Manufacturer": "Siemens",
  "ManufacturersModelName": "Prisma_fit",
  "MatrixCoilMode": "SENSE",
  "Modality": "MR",
  "MultibandAccelerationFactor": 4,
  "PartialFourier": 1,
  "PatientPosition": "HFS",
  "PercentPhaseFOV": 100,
  "PercentSampling": 100,
  "PhaseEncodingDirection": "j",
  "PhaseEncodingSteps": 104,
  "PhaseResolution": 1,
  "PixelBandwidth": 2290,
  "ProcedureStepDescription": "games^mariostars",
  "ProtocolName": "func_task-mariostars_run-03",
  "PulseSequenceDetails": "%CustomerSeq%\\cmrr_mbep2d_bold",
  "ReceiveCoilActiveElements": "HC1-7;NC1,2",
  "ReceiveCoilName": "HeadNeck_64",
  "ReconMatrixPE": 104,
  "RepetitionTime": 1.49,
  "SAR": 0.0930279,
  "ScanOptions": "FS",
  "ScanningSequence": "EP",
  "SequenceName": "epfid2d1_104",
  "SequenceVariant": "SK\\SS",
  "SeriesDescription": "func_task-mariostars_run-03",
  "SeriesNumber": 18,
  "ShimSetting": [627, -7208, -8859, 231, 57, -212, 6, 21],
  "SliceThickness": 2,
  "SliceTiming": [0, 0.7825, 0.0975, 0.8825, 0.195, 0.98, 0.2925, 1.0775, 0.3925, 1.175, 0.49, 1.2725, 0.5875, 1.37, 0.685, 0, 0.7825, 0.0975, 0.8825, 0.195, 0.98, 0.2925, 1.0775, 0.3925, 1.175, 0.49, 1.2725, 0.5875, 1.37, 0.685, 0, 0.7825, 0.0975, 0.8825, 0.195, 0.98, 0.2925, 1.0775, 0.3925, 1.175, 0.49, 1.2725, 0.5875, 1.37, 0.685, 0, 0.7825, 0.0975, 0.8825, 0.195, 0.98, 0.2925, 1.0775, 0.3925, 1.175, 0.49, 1.2725, 0.5875, 1.37, 0.685],
  "SoftwareVersions": "syngo MR E11",
  "SpacingBetweenSlices": 2,
  "StationName": "MRC35049",
  "TaskName": "mariostars",
  "TotalReadoutTime": 0.0576811,
  "TxRefAmp": 348.066,
  "WipMemBlock": "e67f33f4-d93d-4823-975f-935193c4a262||Sequence: R017 ve11c/master r/75a17815+; Jun 28 2022 16:32:11 by eja",
  "dcmmeta_affine": [
    [-1.9978998899459839, -0.0006974331918172538, 0.09162595123052597, 104.9738540649414],
    [-0.04624137282371521, 1.7342597246170044, -0.9950904250144958, -48.60295867919922],
    [0.07910459488630295, 0.9961639642715454, 1.7324548959732056, -82.53707885742188],
    [0.0, 0.0, 0.0, 1.0]
],
  "dcmmeta_reorient_transform": [
    [0.0, -1.0, 0.0, 103.0],
    [1.0, 0.0, 0.0, 0.0],
    [0.0, 0.0, 1.0, 0.0],
    [0.0, 0.0, 0.0, 1.0]
],
  "dcmmeta_shape": [104, 104, 60, 444],
  "dcmmeta_slice_dim": 2,
  "dcmmeta_version": 0.6,
  "global": {
    "const": {
      "AcquisitionMatrix": [104, 0, 0, 104],
      "AngioFlag": "N",
      "BitsAllocated": 16,
      "BitsStored": 16,
      "BodyPartExamined": "BRAIN",
      "Columns": 832,
      "EchoNumbers": 1,
      "EchoTime": 37.0,
      "EchoTrainLength": 104,
      "FlipAngle": 52.0,
      "HighBit": 15,
      "ImageOrientationPatient": [0.99894997351557, 0.02312068611532, 0.0395522981228, -0.0003487166016, 0.86712987196387, -0.4980819847622],
      "ImagePositionPatient": [-831.88373348813, -778.12819973448, 353.87742514458],
      "ImageType": [
        "ORIGINAL",
        "PRIMARY",
        "P",
        "MB",
        "ND",
        "MOSAIC"
],
      "ImagedNucleus": "1H",
      "ImagingFrequency": 123.25878,
      "InPlanePhaseEncodingDirection": "COL",
      "LargestImagePixelValue": 4095,
      "MRAcquisitionType": "2D",
      "MagneticFieldStrength": 3.0,
      "Manufacturer": "SIEMENS",
      "ManufacturerModelName": "Prisma_fit",
      "Modality": "MR",
      "NumberOfAverages": 1.0,
      "NumberOfPhaseEncodingSteps": 104,
      "PercentPhaseFieldOfView": 100.0,
      "PercentSampling": 100.0,
      "PerformedProcedureStepStartTime": "161238.902000",
      "PhotometricInterpretation": "MONOCHROME2",
      "PixelBandwidth": 2290.0,
      "PixelRepresentation": 0,
      "PixelSpacing": [2.0, 2.0],
      "ProtocolName": "func_task-mariostars_run-03",
      "RepetitionTime": 1490.0,
      "RescaleIntercept": -4096.0,
      "RescaleSlope": 2.0,
      "RescaleType": "US",
      "Rows": 832,
      "SAR": 0.09302789781453,
      "SamplesPerPixel": 1,
      "ScanOptions": "FS",
      "ScanningSequence": "EP",
      "SequenceName": "epfid2d1_104",
      "SequenceVariant": [
        "SK",
        "SS"
],
      "SeriesDescription": "func_task-mariostars_run-03",
      "SeriesNumber": 18,
      "SeriesTime": "164603.117000",
      "SliceLocation": -42.504544572338,
      "SliceThickness": 2.0,
      "SmallestImagePixelValue": 0,
      "SoftwareVersions": "syngo MR E11",
      "SpacingBetweenSlices": 2.0000000387293,
      "SpecificCharacterSet": "ISO_IR 100",
      "StudyID": "1",
      "StudyTime": "161238.824000",
      "TransmitCoilName": "Body",
      "VariableFlipAngleFlag": "N",
      "WindowCenterWidthExplanation": "Algo1",
      "dBdt": 0.0},
    "slices": {}
  },
  "time": {
    "samples": {
      "AcquisitionNumber": [1, 2, 3, 4, 5, 6, 7, 8, 9, 10, 11, 12, 13, 14, 15, 16, 17, 18, 19, 20, 21, 22, 23, 24, 25, 26, 27, 28, 29, 30, 31, 32, 33, 34, 35, 36, 37, 38, 39, 40, 41, 42, 43, 44, 45, 46, 47, 48, 49, 50, 51, 52, 53, 54, 55, 56, 57, 58, 59, 60, 61, 62, 63, 64, 65, 66, 67, 68, 69, 70, 71, 72, 73, 74, 75, 76, 77, 78, 79, 80, 81, 82, 83, 84, 85, 86, 87, 88, 89, 90, 91, 92, 93, 94, 95, 96, 97, 98, 99, 100, 101, 102, 103, 104, 105, 106, 107, 108, 109, 110, 111, 112, 113, 114, 115, 116, 117, 118, 119, 120, 121, 122, 123, 124, 125, 126, 127, 128, 129, 130, 131, 132, 133, 134, 135, 136, 137, 138, 139, 140, 141, 142, 143, 144, 145, 146, 147, 148, 149, 150, 151, 152, 153, 154, 155, 156, 157, 158, 159, 160, 161, 162, 163, 164, 165, 166, 167, 168, 169, 170, 171, 172, 173, 174, 175, 176, 177, 178, 179, 180, 181, 182, 183, 184, 185, 186, 187, 188, 189, 190, 191, 192, 193, 194, 195, 196, 197, 198, 199, 200, 201, 202, 203, 204, 205, 206, 207, 208, 209, 210, 211, 212, 213, 214, 215, 216, 217, 218, 219, 220, 221, 222, 223, 224, 225, 226, 227, 228, 229, 230, 231, 232, 233, 234, 235, 236, 237, 238, 239, 240, 241, 242, 243, 244, 245, 246, 247, 248, 249, 250, 251, 252, 253, 254, 255, 256, 257, 258, 259, 260, 261, 262, 263, 264, 265, 266, 267, 268, 269, 270, 271, 272, 273, 274, 275, 276, 277, 278, 279, 280, 281, 282, 283, 284, 285, 286, 287, 288, 289, 290, 291, 292, 293, 294, 295, 296, 297, 298, 299, 300, 301, 302, 303, 304, 305, 306, 307, 308, 309, 310, 311, 312, 313, 314, 315, 316, 317, 318, 319, 320, 321, 322, 323, 324, 325, 326, 327, 328, 329, 330, 331, 332, 333, 334, 335, 336, 337, 338, 339, 340, 341, 342, 343, 344, 345, 346, 347, 348, 349, 350, 351, 352, 353, 354, 355, 356, 357, 358, 359, 360, 361, 362, 363, 364, 365, 366, 367, 368, 369, 370, 371, 372, 373, 374, 375, 376, 377, 378, 379, 380, 381, 382, 383, 384, 385, 386, 387, 388, 389, 390, 391, 392, 393, 394, 395, 396, 397, 398, 399, 400, 401, 402, 403, 404, 405, 406, 407, 408, 409, 410, 411, 412, 413, 414, 415, 416, 417, 418, 419, 420, 421, 422, 423, 424, 425, 426, 427, 428, 429, 430, 431, 432, 433, 434, 435, 436, 437, 438, 439, 440, 441, 442, 443, 444],
      "AcquisitionTime": ["164447.767500", "164449.257500", "164450.747500", "164452.237500", "164453.727500", "164455.217500", "164456.707500", "164458.197500", "164459.687500", "164501.177500", "164502.667500", "164504.157500", "164505.647500", "164507.137500", "164508.627500", "164510.117500", "164511.607500", "164513.097500", "164514.587500", "164516.077500", "164517.567500", "164519.057500", "164520.547500", "164522.037500", "164523.527500", "164525.017500", "164526.507500", "164527.997500", "164529.487500", "164530.977500", "164532.467500", "164533.957500", "164535.447500", "164536.937500", "164538.427500", "164539.917500", "164541.407500", "164542.897500", "164544.387500", "164545.877500", "164547.367500", "164548.857500", "164550.347500", "164551.837500", "164553.327500", "164554.817500", "164556.307500", "164557.797500", "164559.287500", "164600.777500", "164602.267500", "164603.757500", "164605.247500", "164606.737500", "164608.227500", "164609.717500", "164611.207500", "164612.697500", "164614.187500", "164615.677500", "164617.167500", "164618.657500", "164620.147500", "164621.637500", "164623.127500", "164624.617500", "164626.107500", "164627.597500", "164629.087500", "164630.577500", "164632.067500", "164633.557500", "164635.047500", "164636.537500", "164638.027500", "164639.517500", "164641.007500", "164642.497500", "164643.987500", "164645.477500", "164646.967500", "164648.457500", "164649.947500", "164651.437500", "164652.927500", "164654.417500", "164655.907500", "164657.397500", "164658.887500", "164700.377500", "164701.867500", "164703.357500", "164704.847500", "164706.337500", "164707.827500", "164709.317500", "164710.807500", "164712.297500", "164713.787500", "164715.277500", "164716.767500", "164718.257500", "164719.747500", "164721.237500", "164722.727500", "164724.217500", "164725.707500", "164727.197500", "164728.687500", "164730.177500", "164731.667500", "164733.157500", "164734.647500", "164736.137500", "164737.627500", "164739.117500", "164740.607500", "164742.097500", "164743.587500", "164745.077500", "164746.567500", "164748.057500", "164749.547500", "164751.037500", "164752.527500", "164754.017500", "164755.507500", "164756.997500", "164758.487500", "164759.977500", "164801.467500", "164802.957500", "164804.447500", "164805.937500", "164807.427500", "164808.917500", "164810.407500", "164811.897500", "164813.387500", "164814.877500", "164816.367500", "164817.857500", "164819.347500", "164820.837500", "164822.327500", "164823.817500", "164825.307500", "164826.797500", "164828.287500", "164829.777500", "164831.267500", "164832.757500", "164834.247500", "164835.737500", "164837.227500", "164838.717500", "164840.207500", "164841.697500", "164843.187500", "164844.677500", "164846.167500", "164847.657500", "164849.147500", "164850.637500", "164852.127500", "164853.617500", "164855.107500", "164856.597500", "164858.087500", "164859.577500", "164901.067500", "164902.557500", "164904.047500", "164905.537500", "164907.027500", "164908.517500", "164910.007500", "164911.497500", "164912.987500", "164914.477500", "164915.967500", "164917.457500", "164918.947500", "164920.437500", "164921.927500", "164923.417500", "164924.907500", "164926.397500", "164927.887500", "164929.377500", "164930.867500", "164932.357500", "164933.847500", "164935.337500", "164936.827500", "164938.317500", "164939.807500", "164941.297500", "164942.787500", "164944.277500", "164945.767500", "164947.257500", "164948.747500", "164950.237500", "164951.727500", "164953.217500", "164954.707500", "164956.197500", "164957.687500", "164959.177500", "165000.667500", "165002.157500", "165003.647500", "165005.137500", "165006.627500", "165008.117500", "165009.607500", "165011.097500", "165012.587500", "165014.077500", "165015.567500", "165017.057500", "165018.547500", "165020.037500", "165021.527500", "165023.017500", "165024.507500", "165025.997500", "165027.487500", "165028.977500", "165030.467500", "165031.957500", "165033.447500", "165034.937500", "165036.427500", "165037.917500", "165039.407500", "165040.897500", "165042.387500", "165043.877500", "165045.367500", "165046.857500", "165048.347500", "165049.837500", "165051.327500", "165052.817500", "165054.307500", "165055.797500", "165057.287500", "165058.777500", "165100.267500", "165101.757500", "165103.247500", "165104.737500", "165106.227500", "165107.717500", "165109.207500", "165110.697500", "165112.187500", "165113.677500", "165115.167500", "165116.657500", "165118.147500", "165119.637500", "165121.127500", "165122.617500", "165124.107500", "165125.597500", "165127.087500", "165128.577500", "165130.067500", "165131.557500", "165133.047500", "165134.537500", "165136.027500", "165137.517500", "165139.007500", "165140.497500", "165141.987500", "165143.477500", "165144.967500", "165146.457500", "165147.947500", "165149.437500", "165150.927500", "165152.417500", "165153.907500", "165155.397500", "165156.887500", "165158.377500", "165159.867500", "165201.357500", "165202.847500", "165204.337500", "165205.827500", "165207.317500", "165208.807500", "165210.297500", "165211.787500", "165213.277500", "165214.767500", "165216.257500", "165217.747500", "165219.237500", "165220.727500", "165222.217500", "165223.707500", "165225.197500", "165226.687500", "165228.177500", "165229.667500", "165231.157500", "165232.647500", "165234.137500", "165235.627500", "165237.117500", "165238.607500", "165240.097500", "165241.587500", "165243.077500", "165244.567500", "165246.057500", "165247.547500", "165249.037500", "165250.527500", "165252.017500", "165253.507500", "165254.997500", "165256.487500", "165257.977500", "165259.467500", "165300.957500", "165302.447500", "165303.937500", "165305.427500", "165306.917500", "165308.407500", "165309.897500", "165311.387500", "165312.877500", "165314.367500", "165315.857500", "165317.347500", "165318.837500", "165320.327500", "165321.817500", "165323.307500", "165324.797500", "165326.287500", "165327.777500", "165329.267500", "165330.757500", "165332.247500", "165333.737500", "165335.227500", "165336.717500", "165338.207500", "165339.697500", "165341.187500", "165342.677500", "165344.167500", "165345.657500", "165347.147500", "165348.637500", "165350.127500", "165351.617500", "165353.107500", "165354.597500", "165356.087500", "165357.577500", "165359.067500", "165400.557500", "165402.047500", "165403.537500", "165405.027500", "165406.517500", "165408.007500", "165409.497500", "165410.987500", "165412.477500", "165413.967500", "165415.457500", "165416.947500", "165418.437500", "165419.927500", "165421.417500", "165422.907500", "165424.397500", "165425.887500", "165427.377500", "165428.867500", "165430.357500", "165431.847500", "165433.337500", "165434.827500", "165436.317500", "165437.807500", "165439.297500", "165440.787500", "165442.277500", "165443.767500", "165445.257500", "165446.747500", "165448.237500", "165449.727500", "165451.217500", "165452.707500", "165454.197500", "165455.687500", "165457.177500", "165458.667500", "165500.157500", "165501.647500", "165503.137500", "165504.627500", "165506.117500", "165507.607500", "165509.097500", "165510.587500", "165512.077500", "165513.567500", "165515.057500", "165516.547500", "165518.037500", "165519.527500", "165521.017500", "165522.507500", "165523.997500", "165525.487500", "165526.977500", "165528.467500", "165529.957500", "165531.447500", "165532.937500", "165534.427500", "165535.917500", "165537.407500", "165538.897500", "165540.387500", "165541.877500", "165543.367500", "165544.857500", "165546.347500", "165547.837500"],
      "ContentTime": ["164603.119000", "164603.122000", "164603.125000", "164603.127000", "164603.130000", "164603.132000", "164603.135000", "164603.137000", "164603.140000", "164603.143000", "164603.145000", "164603.148000", "164603.150000", "164603.153000", "164603.155000", "164603.158000", "164603.160000", "164603.163000", "164603.166000", "164603.168000", "164603.171000", "164603.173000", "164603.176000", "164603.178000", "164603.181000", "164603.183000", "164623.128000", "164623.131000", "164623.133000", "164623.136000", "164623.138000", "164623.141000", "164623.143000", "164623.154000", "164623.156000", "164623.159000", "164623.162000", "164623.164000", "164623.167000", "164623.169000", "164623.172000", "164623.174000", "164623.177000", "164623.179000", "164623.182000", "164623.184000", "164643.087000", "164643.097000", "164643.100000", "164643.102000", "164643.105000", "164643.107000", "164643.110000", "164643.112000", "164643.122000", "164643.125000", "164643.128000", "164643.130000", "164643.133000", "164643.135000", "164643.138000", "164643.140000", "164643.143000", "164643.145000", "164643.148000", "164643.151000", "164703.087000", "164703.090000", "164703.092000", "164703.095000", "164703.097000", "164703.100000", "164703.102000", "164703.105000", "164703.107000", "164703.110000", "164703.112000", "164703.115000", "164703.118000", "164703.120000", "164703.123000", "164703.125000", "164703.128000", "164703.131000", "164703.133000", "164703.135000", "164703.138000", "164743.124000", "164743.127000", "164743.129000", "164743.132000", "164743.134000", "164743.137000", "164743.139000", "164743.142000", "164743.144000", "164743.147000", "164743.149000", "164743.152000", "164743.154000", "164743.157000", "164743.160000", "164743.162000", "164743.165000", "164743.167000", "164743.170000", "164743.172000", "164743.175000", "164743.177000", "164743.180000", "164743.182000", "164743.185000", "164743.187000", "164743.190000", "164743.193000", "164743.195000", "164743.198000", "164823.103000", "164823.106000", "164823.109000", "164823.111000", "164823.114000", "164823.117000", "164823.119000", "164823.122000", "164823.124000", "164823.127000", "164823.129000", "164823.132000", "164823.135000", "164823.137000", "164823.140000", "164823.142000", "164823.145000", "164823.147000", "164823.156000", "164823.158000", "164823.161000", "164823.163000", "164823.166000", "164823.168000", "164823.171000", "164823.174000", "164903.104000", "164903.107000", "164903.109000", "164903.112000", "164903.115000", "164903.117000", "164903.120000", "164903.122000", "164903.125000", "164903.127000", "164903.130000", "164903.133000", "164903.135000", "164903.138000", "164903.140000", "164903.143000", "164903.146000", "164903.148000", "164903.151000", "164903.153000", "164903.156000", "164903.158000", "164903.161000", "164903.163000", "164903.166000", "164903.168000", "164903.171000", "164943.101000", "164943.104000", "164943.107000", "164943.109000", "164943.112000", "164943.115000", "164943.117000", "164943.120000", "164943.122000", "164943.125000", "164943.127000", "164943.130000", "164943.132000", "164943.135000", "164943.138000", "164943.140000", "164943.143000", "164943.145000", "164943.148000", "164943.150000", "164943.153000", "164943.156000", "164943.158000", "164943.161000", "164943.163000", "164943.166000", "164943.168000", "165023.115000", "165023.118000", "165023.120000", "165023.123000", "165023.125000", "165023.128000", "165023.130000", "165023.133000", "165023.135000", "165023.138000", "165023.140000", "165023.143000", "165023.145000", "165023.148000", "165023.151000", "165023.153000", "165023.156000", "165023.158000", "165023.161000", "165023.163000", "165023.166000", "165023.168000", "165023.171000", "165023.174000", "165023.176000", "165023.179000", "165023.181000", "165103.533000", "165103.536000", "165103.538000", "165103.541000", "165103.544000", "165103.546000", "165103.549000", "165103.551000", "165103.554000", "165103.557000", "165103.559000", "165103.562000", "165103.564000", "165103.567000", "165103.569000", "165103.572000", "165103.574000", "165103.577000", "165103.580000", "165103.582000", "165103.585000", "165103.588000", "165103.590000", "165103.593000", "165103.595000", "165103.598000", "165103.601000", "165143.108000", "165143.111000", "165143.114000", "165143.116000", "165143.119000", "165143.121000", "165143.124000", "165143.126000", "165143.129000", "165143.131000", "165143.134000", "165143.136000", "165143.139000", "165143.141000", "165143.144000", "165143.146000", "165143.149000", "165143.152000", "165143.154000", "165143.157000", "165143.159000", "165143.162000", "165143.164000", "165143.167000", "165143.169000", "165143.172000", "165143.174000", "165223.104000", "165223.107000", "165223.110000", "165223.112000", "165223.115000", "165223.117000", "165223.120000", "165223.122000", "165223.125000", "165223.127000", "165223.130000", "165223.132000", "165223.135000", "165223.138000", "165223.140000", "165223.143000", "165223.145000", "165223.148000", "165223.150000", "165223.153000", "165223.155000", "165223.158000", "165223.160000", "165223.163000", "165223.165000", "165223.168000", "165303.106000", "165303.108000", "165303.111000", "165303.114000", "165303.116000", "165303.119000", "165303.122000", "165303.124000", "165303.127000", "165303.129000", "165303.132000", "165303.135000", "165303.137000", "165303.140000", "165303.142000", "165303.145000", "165303.147000", "165303.150000", "165303.153000", "165303.155000", "165303.158000", "165303.168000", "165303.171000", "165303.174000", "165303.176000", "165303.179000", "165303.195000", "165343.098000", "165343.100000", "165343.103000", "165343.106000", "165343.108000", "165343.111000", "165343.113000", "165343.116000", "165343.118000", "165343.127000", "165343.129000", "165343.132000", "165343.134000", "165343.137000", "165343.140000", "165343.142000", "165343.145000", "165343.148000", "165343.150000", "165343.153000", "165343.155000", "165343.158000", "165343.161000", "165343.163000", "165343.166000", "165343.168000", "165343.171000", "165423.105000", "165423.108000", "165423.111000", "165423.113000", "165423.116000", "165423.118000", "165423.121000", "165423.123000", "165423.126000", "165423.128000", "165423.131000", "165423.133000", "165423.136000", "165423.138000", "165423.141000", "165423.144000", "165423.146000", "165423.149000", "165423.151000", "165423.154000", "165423.156000", "165423.159000", "165423.166000", "165423.168000", "165423.171000", "165423.173000", "165423.176000", "165503.102000", "165503.105000", "165503.107000", "165503.110000", "165503.119000", "165503.121000", "165503.124000", "165503.126000", "165503.129000", "165503.132000", "165503.134000", "165503.137000", "165503.139000", "165503.142000", "165503.144000", "165503.147000", "165503.150000", "165503.152000", "165503.155000", "165503.157000", "165503.160000", "165503.163000", "165503.165000", "165503.168000", "165503.170000", "165503.173000", "165503.175000", "165543.098000", "165543.101000", "165543.104000", "165543.106000", "165543.109000", "165543.111000", "165543.114000", "165543.116000", "165543.119000", "165543.121000", "165543.124000", "165543.126000", "165543.129000", "165543.132000", "165543.134000", "165543.137000", "165543.139000", "165543.142000", "165543.144000", "165543.147000", "165543.149000", "165543.152000", "165543.154000", "165543.157000", "165543.160000", "165543.162000", "165543.165000", "165551.052000", "165551.055000", "165551.058000", "165551.061000", "165551.063000"],
