{
  "AcquisitionMatrixPE": 104,
  "AcquisitionNumber": 1,
  "AcquisitionTime": "15:47:0.030000",
  "BandwidthPerPixelPhaseEncode": 17.17,
  "BaseResolution": 104,
  "BodyPartExamined": "BRAIN",
  "CoilCombinationMethod": "Sum of Squares",
  "ConsistencyInfo": "N4_VE11C_LATEST_20160120",
  "ConversionSoftware": "dcm2niix",
  "ConversionSoftwareVersion": "v1.0.20211006",
  "DerivedVendorReportedEchoSpacing": 0.000560011,
  "DeviceSerialNumber": "167006",
  "DwellTime": 2.1e-06,
  "EchoTime": 0.037,
  "EchoTime1": 0.037,
  "EchoTime2": 0.001,
  "EchoTrainLength": 104,
  "EffectiveEchoSpacing": 0.000560011,
  "FlipAngle": 52,
  "HeudiconvVersion": "0.11.3.post9+gc939bf8",
  "ImageComments": "Unaliased MB4/PE3/LB",
  "ImageOrientationPatientDICOM": [0.999484, -0.0316117, 0.00575126, 0.0315847, 0.933776, -0.35646],
  "ImageOrientationText": "Tra>Cor(-20.9)>Sag(-0.3)",
  "ImageType": [
    "ORIGINAL",
    "PRIMARY",
    "P",
    "MB",
    "ND",
    "MOSAIC",
    "PHASE"
],
  "ImagingFrequency": 123.259,
  "InPlanePhaseEncodingDirectionDICOM": "COL",
  "InstitutionAddress": "Chemin Queen-Mary 4565,Montreal,District,CA,H3W 1W5",
  "InstitutionName": "IUGM",
  "InstitutionalDepartmentName": "Department",
  "MRAcquisitionType": "2D",
  "MagneticFieldStrength": 3,
  "Manufacturer": "Siemens",
  "ManufacturersModelName": "Prisma_fit",
  "MatrixCoilMode": "SENSE",
  "Modality": "MR",
  "MultibandAccelerationFactor": 4,
  "PartialFourier": 1,
  "PatientPosition": "HFS",
  "PercentPhaseFOV": 100,
  "PercentSampling": 100,
  "PhaseEncodingDirection": "j",
  "PhaseEncodingSteps": 104,
  "PhaseResolution": 1,
  "PixelBandwidth": 2290,
  "ProcedureStepDescription": "games^mariostars",
  "ProtocolName": "func_task-mariostars_run-02",
  "PulseSequenceDetails": "%CustomerSeq%\\cmrr_mbep2d_bold",
  "ReceiveCoilActiveElements": "HC1-7;NC1,2",
  "ReceiveCoilName": "HeadNeck_64",
  "ReconMatrixPE": 104,
  "RepetitionTime": 1.49,
  "SAR": 0.0325322,
  "ScanOptions": "FS",
  "ScanningSequence": "EP",
  "SequenceName": "epfid2d1_104",
  "SequenceVariant": "SK\\SS",
  "SeriesDescription": "func_task-mariostars_run-02",
  "SeriesNumber": 15,
  "ShimSetting": [619, -7250, -8823, 557, 9, -195, -94, -9],
  "SliceThickness": 2,
  "SliceTiming": [0, 0.7825, 0.0975, 0.8825, 0.195, 0.98, 0.2925, 1.0775, 0.3925, 1.175, 0.49, 1.2725, 0.5875, 1.3725, 0.685, 0, 0.7825, 0.0975, 0.8825, 0.195, 0.98, 0.2925, 1.0775, 0.3925, 1.175, 0.49, 1.2725, 0.5875, 1.3725, 0.685, 0, 0.7825, 0.0975, 0.8825, 0.195, 0.98, 0.2925, 1.0775, 0.3925, 1.175, 0.49, 1.2725, 0.5875, 1.3725, 0.685, 0, 0.7825, 0.0975, 0.8825, 0.195, 0.98, 0.2925, 1.0775, 0.3925, 1.175, 0.49, 1.2725, 0.5875, 1.3725, 0.685],
  "SoftwareVersions": "syngo MR E11",
  "SpacingBetweenSlices": 2,
  "StationName": "MRC35049",
  "TaskName": "mariostars",
  "TotalReadoutTime": 0.0576811,
  "TxRefAmp": 222.854,
  "WipMemBlock": "77a4573a-c841-492a-a247-53ce3b8ffc81||Sequence: R016 ve11c/master r/e634e98; Dec 19 2017 11:00:25 by eja",
  "dcmmeta_affine": [
    [-1.9989674091339111, 0.06316936761140823, -0.01179585698992014, 103.3826675415039],
    [0.06322343647480011, 1.8675529956817627, -0.7129157185554504, -66.27283477783203],
    [0.0115025220438838, 0.7129204869270325, 1.8685855865478516, -67.9195785522461],
    [0.0, 0.0, 0.0, 1.0]
],
  "dcmmeta_reorient_transform": [
    [0.0, -1.0, 0.0, 103.0],
    [1.0, 0.0, 0.0, 0.0],
    [0.0, 0.0, 1.0, 0.0],
    [0.0, 0.0, 0.0, 1.0]
],
  "dcmmeta_shape": [104, 104, 60, 498],
  "dcmmeta_slice_dim": 2,
  "dcmmeta_version": 0.6,
  "global": {
    "const": {
      "AcquisitionMatrix": [104, 0, 0, 104],
      "AngioFlag": "N",
      "BitsAllocated": 16,
      "BitsStored": 16,
      "BodyPartExamined": "BRAIN",
      "Columns": 832,
      "EchoNumbers": 1,
      "EchoTime": 37.0,
      "EchoTrainLength": 104,
      "FlipAngle": 52.0,
      "HighBit": 15,
      "ImageOrientationPatient": [0.99948367785231, -0.0316117178064, 0.00575126109281, 0.03158468213288, 0.9337764708591, -0.3564602506935],
      "ImagePositionPatient": [-860.50687550004, -782.86105760263, 260.82737972928],
      "ImageType": [
        "ORIGINAL",
        "PRIMARY",
        "P",
        "MB",
        "ND",
        "MOSAIC"
],
      "ImagedNucleus": "1H",
      "ImagingFrequency": 123.258793,
      "InPlanePhaseEncodingDirection": "COL",
      "LargestImagePixelValue": 4095,
      "MRAcquisitionType": "2D",
      "MagneticFieldStrength": 3.0,
      "Manufacturer": "SIEMENS",
      "ManufacturerModelName": "Prisma_fit",
      "Modality": "MR",
      "NumberOfAverages": 1.0,
      "NumberOfPhaseEncodingSteps": 104,
      "PercentPhaseFieldOfView": 100.0,
      "PercentSampling": 100.0,
      "PerformedProcedureStepStartTime": "143822.129000",
      "PhotometricInterpretation": "MONOCHROME2",
      "PixelBandwidth": 2290.0,
      "PixelRepresentation": 0,
      "PixelSpacing": [2.0, 2.0],
      "ProtocolName": "func_task-mariostars_run-02",
      "RepetitionTime": 1490.0,
      "RescaleIntercept": -4096.0,
      "RescaleSlope": 2.0,
      "RescaleType": "US",
      "Rows": 832,
      "SAR": 0.03253216711511,
      "SamplesPerPixel": 1,
      "ScanOptions": "FS",
      "ScanningSequence": "EP",
      "SequenceName": "epfid2d1_104",
      "SequenceVariant": [
        "SK",
        "SS"
],
      "SeriesDescription": "func_task-mariostars_run-02",
      "SeriesNumber": 15,
      "SeriesTime": "154832.642000",
      "SliceLocation": -40.443041105592,
      "SliceThickness": 2.0,
      "SmallestImagePixelValue": 0,
      "SoftwareVersions": "syngo MR E11",
      "SpacingBetweenSlices": 1.9999999948018,
      "SpecificCharacterSet": "ISO_IR 100",
      "StudyID": "1",
      "StudyTime": "143822.053000",
      "TransmitCoilName": "Body",
      "VariableFlipAngleFlag": "N",
      "WindowCenterWidthExplanation": "Algo1",
      "dBdt": 0.0},
    "slices": {}
  },
  "time": {
    "samples": {
      "AcquisitionNumber": [1, 2, 3, 4, 5, 6, 7, 8, 9, 10, 11, 12, 13, 14, 15, 16, 17, 18, 19, 20, 21, 22, 23, 24, 25, 26, 27, 28, 29, 30, 31, 32, 33, 34, 35, 36, 37, 38, 39, 40, 41, 42, 43, 44, 45, 46, 47, 48, 49, 50, 51, 52, 53, 54, 55, 56, 57, 58, 59, 60, 61, 62, 63, 64, 65, 66, 67, 68, 69, 70, 71, 72, 73, 74, 75, 76, 77, 78, 79, 80, 81, 82, 83, 84, 85, 86, 87, 88, 89, 90, 91, 92, 93, 94, 95, 96, 97, 98, 99, 100, 101, 102, 103, 104, 105, 106, 107, 108, 109, 110, 111, 112, 113, 114, 115, 116, 117, 118, 119, 120, 121, 122, 123, 124, 125, 126, 127, 128, 129, 130, 131, 132, 133, 134, 135, 136, 137, 138, 139, 140, 141, 142, 143, 144, 145, 146, 147, 148, 149, 150, 151, 152, 153, 154, 155, 156, 157, 158, 159, 160, 161, 162, 163, 164, 165, 166, 167, 168, 169, 170, 171, 172, 173, 174, 175, 176, 177, 178, 179, 180, 181, 182, 183, 184, 185, 186, 187, 188, 189, 190, 191, 192, 193, 194, 195, 196, 197, 198, 199, 200, 201, 202, 203, 204, 205, 206, 207, 208, 209, 210, 211, 212, 213, 214, 215, 216, 217, 218, 219, 220, 221, 222, 223, 224, 225, 226, 227, 228, 229, 230, 231, 232, 233, 234, 235, 236, 237, 238, 239, 240, 241, 242, 243, 244, 245, 246, 247, 248, 249, 250, 251, 252, 253, 254, 255, 256, 257, 258, 259, 260, 261, 262, 263, 264, 265, 266, 267, 268, 269, 270, 271, 272, 273, 274, 275, 276, 277, 278, 279, 280, 281, 282, 283, 284, 285, 286, 287, 288, 289, 290, 291, 292, 293, 294, 295, 296, 297, 298, 299, 300, 301, 302, 303, 304, 305, 306, 307, 308, 309, 310, 311, 312, 313, 314, 315, 316, 317, 318, 319, 320, 321, 322, 323, 324, 325, 326, 327, 328, 329, 330, 331, 332, 333, 334, 335, 336, 337, 338, 339, 340, 341, 342, 343, 344, 345, 346, 347, 348, 349, 350, 351, 352, 353, 354, 355, 356, 357, 358, 359, 360, 361, 362, 363, 364, 365, 366, 367, 368, 369, 370, 371, 372, 373, 374, 375, 376, 377, 378, 379, 380, 381, 382, 383, 384, 385, 386, 387, 388, 389, 390, 391, 392, 393, 394, 395, 396, 397, 398, 399, 400, 401, 402, 403, 404, 405, 406, 407, 408, 409, 410, 411, 412, 413, 414, 415, 416, 417, 418, 419, 420, 421, 422, 423, 424, 425, 426, 427, 428, 429, 430, 431, 432, 433, 434, 435, 436, 437, 438, 439, 440, 441, 442, 443, 444, 445, 446, 447, 448, 449, 450, 451, 452, 453, 454, 455, 456, 457, 458, 459, 460, 461, 462, 463, 464, 465, 466, 467, 468, 469, 470, 471, 472, 473, 474, 475, 476, 477, 478, 479, 480, 481, 482, 483, 484, 485, 486, 487, 488, 489, 490, 491, 492, 493, 494, 495, 496, 497, 498],
      "AcquisitionTime": ["154700.030000", "154701.520000", "154703.010000", "154704.500000", "154705.990000", "154707.480000", "154708.970000", "154710.460000", "154711.950000", "154713.440000", "154714.930000", "154716.420000", "154717.910000", "154719.400000", "154720.890000", "154722.380000", "154723.870000", "154725.360000", "154726.850000", "154728.340000", "154729.830000", "154731.320000", "154732.810000", "154734.300000", "154735.790000", "154737.280000", "154738.770000", "154740.260000", "154741.750000", "154743.240000", "154744.730000", "154746.220000", "154747.710000", "154749.200000", "154750.690000", "154752.180000", "154753.670000", "154755.160000", "154756.650000", "154758.140000", "154759.630000", "154801.120000", "154802.610000", "154804.100000", "154805.590000", "154807.080000", "154808.570000", "154810.060000", "154811.550000", "154813.040000", "154814.530000", "154816.020000", "154817.510000", "154819.000000", "154820.490000", "154821.980000", "154823.470000", "154824.960000", "154826.450000", "154827.940000", "154829.430000", "154830.920000", "154832.410000", "154833.900000", "154835.390000", "154836.880000", "154838.370000", "154839.860000", "154841.350000", "154842.840000", "154844.330000", "154845.820000", "154847.310000", "154848.800000", "154850.290000", "154851.780000", "154853.270000", "154854.760000", "154856.250000", "154857.740000", "154859.230000", "154900.720000", "154902.210000", "154903.700000", "154905.190000", "154906.680000", "154908.170000", "154909.660000", "154911.150000", "154912.640000", "154914.130000", "154915.620000", "154917.110000", "154918.600000", "154920.090000", "154921.580000", "154923.070000", "154924.560000", "154926.050000", "154927.540000", "154929.030000", "154930.520000", "154932.010000", "154933.500000", "154934.990000", "154936.480000", "154937.970000", "154939.460000", "154940.950000", "154942.440000", "154943.930000", "154945.420000", "154946.910000", "154948.400000", "154949.890000", "154951.380000", "154952.870000", "154954.360000", "154955.850000", "154957.340000", "154958.830000", "155000.320000", "155001.810000", "155003.300000", "155004.790000", "155006.280000", "155007.770000", "155009.260000", "155010.750000", "155012.240000", "155013.730000", "155015.220000", "155016.710000", "155018.200000", "155019.690000", "155021.180000", "155022.670000", "155024.160000", "155025.650000", "155027.140000", "155028.630000", "155030.120000", "155031.610000", "155033.100000", "155034.590000", "155036.080000", "155037.570000", "155039.060000", "155040.550000", "155042.040000", "155043.530000", "155045.020000", "155046.510000", "155048.000000", "155049.490000", "155050.980000", "155052.470000", "155053.960000", "155055.450000", "155056.940000", "155058.430000", "155059.920000", "155101.410000", "155102.900000", "155104.390000", "155105.880000", "155107.370000", "155108.860000", "155110.350000", "155111.840000", "155113.330000", "155114.820000", "155116.310000", "155117.800000", "155119.290000", "155120.780000", "155122.270000", "155123.760000", "155125.250000", "155126.740000", "155128.230000", "155129.720000", "155131.210000", "155132.700000", "155134.190000", "155135.680000", "155137.170000", "155138.660000", "155140.150000", "155141.640000", "155143.130000", "155144.620000", "155146.110000", "155147.600000", "155149.090000", "155150.580000", "155152.070000", "155153.560000", "155155.050000", "155156.540000", "155158.030000", "155159.520000", "155201.010000", "155202.500000", "155203.990000", "155205.480000", "155206.970000", "155208.460000", "155209.950000", "155211.440000", "155212.930000", "155214.420000", "155215.910000", "155217.400000", "155218.890000", "155220.380000", "155221.870000", "155223.360000", "155224.850000", "155226.340000", "155227.830000", "155229.320000", "155230.810000", "155232.300000", "155233.790000", "155235.280000", "155236.770000", "155238.260000", "155239.750000", "155241.240000", "155242.730000", "155244.220000", "155245.710000", "155247.200000", "155248.690000", "155250.180000", "155251.670000", "155253.160000", "155254.650000", "155256.140000", "155257.630000", "155259.120000", "155300.610000", "155302.100000", "155303.590000", "155305.080000", "155306.570000", "155308.060000", "155309.550000", "155311.040000", "155312.530000", "155314.020000", "155315.510000", "155317.000000", "155318.490000", "155319.980000", "155321.470000", "155322.960000", "155324.450000", "155325.940000", "155327.430000", "155328.920000", "155330.410000", "155331.900000", "155333.390000", "155334.880000", "155336.370000", "155337.860000", "155339.350000", "155340.840000", "155342.330000", "155343.820000", "155345.310000", "155346.800000", "155348.290000", "155349.780000", "155351.270000", "155352.760000", "155354.250000", "155355.740000", "155357.230000", "155358.720000", "155400.210000", "155401.700000", "155403.190000", "155404.680000", "155406.170000", "155407.660000", "155409.150000", "155410.640000", "155412.130000", "155413.620000", "155415.110000", "155416.600000", "155418.090000", "155419.580000", "155421.070000", "155422.560000", "155424.050000", "155425.540000", "155427.030000", "155428.520000", "155430.010000", "155431.500000", "155432.990000", "155434.480000", "155435.970000", "155437.460000", "155438.950000", "155440.440000", "155441.930000", "155443.420000", "155444.910000", "155446.400000", "155447.890000", "155449.380000", "155450.870000", "155452.360000", "155453.850000", "155455.340000", "155456.830000", "155458.320000", "155459.810000", "155501.300000", "155502.790000", "155504.280000", "155505.770000", "155507.260000", "155508.750000", "155510.240000", "155511.730000", "155513.220000", "155514.710000", "155516.200000", "155517.690000", "155519.180000", "155520.670000", "155522.160000", "155523.650000", "155525.140000", "155526.630000", "155528.120000", "155529.610000", "155531.100000", "155532.590000", "155534.080000", "155535.570000", "155537.060000", "155538.550000", "155540.040000", "155541.530000", "155543.020000", "155544.510000", "155546.000000", "155547.490000", "155548.980000", "155550.470000", "155551.960000", "155553.450000", "155554.940000", "155556.430000", "155557.920000", "155559.410000", "155600.900000", "155602.390000", "155603.880000", "155605.370000", "155606.860000", "155608.350000", "155609.840000", "155611.330000", "155612.820000", "155614.310000", "155615.800000", "155617.290000", "155618.780000", "155620.270000", "155621.760000", "155623.250000", "155624.740000", "155626.230000", "155627.720000", "155629.210000", "155630.700000", "155632.190000", "155633.680000", "155635.170000", "155636.660000", "155638.150000", "155639.640000", "155641.130000", "155642.620000", "155644.110000", "155645.600000", "155647.090000", "155648.580000", "155650.070000", "155651.560000", "155653.050000", "155654.540000", "155656.030000", "155657.520000", "155659.010000", "155700.500000", "155701.990000", "155703.480000", "155704.970000", "155706.460000", "155707.950000", "155709.440000", "155710.930000", "155712.420000", "155713.910000", "155715.400000", "155716.890000", "155718.380000", "155719.870000", "155721.360000", "155722.850000", "155724.340000", "155725.830000", "155727.320000", "155728.810000", "155730.300000", "155731.790000", "155733.280000", "155734.770000", "155736.260000", "155737.750000", "155739.240000", "155740.730000", "155742.220000", "155743.710000", "155745.200000", "155746.690000", "155748.180000", "155749.670000", "155751.160000", "155752.650000", "155754.140000", "155755.630000", "155757.120000", "155758.610000", "155800.100000", "155801.590000", "155803.080000", "155804.570000", "155806.060000", "155807.550000", "155809.040000", "155810.530000", "155812.020000", "155813.510000", "155815.000000", "155816.490000", "155817.980000", "155819.470000", "155820.960000", "155822.450000", "155823.940000", "155825.430000", "155826.920000", "155828.410000", "155829.900000", "155831.390000", "155832.880000", "155834.370000", "155835.860000", "155837.350000", "155838.840000", "155840.330000", "155841.820000", "155843.310000", "155844.800000", "155846.290000", "155847.780000", "155849.270000", "155850.760000", "155852.250000", "155853.740000", "155855.230000", "155856.720000", "155858.210000", "155859.700000", "155901.190000", "155902.680000", "155904.170000", "155905.660000", "155907.150000", "155908.640000", "155910.130000", "155911.620000", "155913.110000", "155914.600000", "155916.090000", "155917.580000", "155919.070000", "155920.560000"],
      "ContentTime": ["154832.644000", "154832.647000", "154832.650000", "154832.652000", "154832.655000", "154832.657000", "154832.660000", "154832.662000", "154832.665000", "154832.668000", "154832.670000", "154832.673000", "154832.675000", "154832.678000", "154832.680000", "154832.683000", "154832.685000", "154832.688000", "154832.691000", "154832.702000", "154832.705000", "154832.707000", "154832.710000", "154832.712000", "154832.715000", "154832.717000", "154832.720000", "154832.722000", "154832.725000", "154832.728000", "154832.730000", "154832.733000", "154832.735000", "154832.738000", "154832.740000", "154832.743000", "154832.745000", "154852.961000", "154852.964000", "154852.966000", "154852.969000", "154852.971000", "154852.974000", "154852.976000", "154852.979000", "154852.981000", "154852.984000", "154852.986000", "154852.989000", "154852.991000", "154852.994000", "154852.997000", "154853.000000", "154853.003000", "154853.005000", "154853.008000", "154853.010000", "154853.013000", "154912.509000", "154912.512000", "154912.514000", "154912.517000", "154912.519000", "154912.522000", "154912.525000", "154912.527000", "154912.530000", "154912.532000", "154912.535000", "154912.537000", "154912.540000", "154912.542000", "154912.545000", "154912.548000", "154912.550000", "154912.553000", "154912.555000", "154912.558000", "154932.525000", "154932.528000", "154932.530000", "154932.533000", "154932.535000", "154932.538000", "154932.541000", "154932.544000", "154932.546000", "154932.549000", "154932.551000", "154932.554000", "154932.556000", "154932.559000", "154932.562000", "154932.564000", "154932.567000", "154932.569000", "154932.572000", "154932.574000", "155012.573000", "155012.576000", "155012.579000", "155012.581000", "155012.584000", "155012.587000", "155012.589000", "155012.592000", "155012.594000", "155012.597000", "155012.599000", "155012.602000", "155012.604000", "155012.607000", "155012.610000", "155012.612000", "155012.615000", "155012.617000", "155012.620000", "155012.622000", "155012.625000", "155012.628000", "155012.630000", "155012.633000", "155012.635000", "155012.638000", "155012.641000", "155012.643000", "155012.646000", "155012.648000", "155052.529000", "155052.532000", "155052.534000", "155052.537000", "155052.539000", "155052.542000", "155052.545000", "155052.547000", "155052.550000", "155052.552000", "155052.555000", "155052.557000", "155052.560000", "155052.563000", "155052.565000", "155052.568000", "155052.570000", "155052.573000", "155052.575000", "155052.578000", "155052.581000", "155052.583000", "155052.586000", "155052.588000", "155052.591000", "155052.593000", "155052.596000", "155132.548000", "155132.551000", "155132.553000", "155132.556000", "155132.559000", "155132.561000", "155132.564000", "155132.566000", "155132.569000", "155132.571000", "155132.574000", "155132.577000", "155132.579000", "155132.582000", "155132.584000", "155132.587000", "155132.589000", "155132.592000", "155132.595000", "155132.597000", "155132.600000", "155132.602000", "155132.605000", "155132.607000", "155132.610000", "155132.612000", "155132.615000", "155212.544000", "155212.547000", "155212.549000", "155212.552000", "155212.554000", "155212.557000", "155212.560000", "155212.562000", "155212.565000", "155212.567000", "155212.570000", "155212.573000", "155212.575000", "155212.578000", "155212.580000", "155212.583000", "155212.585000", "155212.588000", "155212.591000", "155212.593000", "155212.596000", "155212.598000", "155212.601000", "155212.603000", "155212.606000", "155212.608000", "155212.611000", "155252.542000", "155252.545000", "155252.548000", "155252.551000", "155252.553000", "155252.556000", "155252.559000", "155252.561000", "155252.564000", "155252.566000", "155252.569000", "155252.572000", "155252.574000", "155252.577000", "155252.579000", "155252.582000", "155252.584000", "155252.587000", "155252.590000", "155252.592000", "155252.595000", "155252.597000", "155252.600000", "155252.602000", "155252.605000", "155252.608000", "155332.554000", "155332.557000", "155332.560000", "155332.562000", "155332.565000", "155332.568000", "155332.570000", "155332.573000", "155332.575000", "155332.578000", "155332.581000", "155332.583000", "155332.586000", "155332.588000", "155332.591000", "155332.593000", "155332.596000", "155332.599000", "155332.601000", "155332.604000", "155332.606000", "155332.609000", "155332.611000", "155332.614000", "155332.617000", "155332.619000", "155332.623000", "155412.540000", "155412.542000", "155412.545000", "155412.548000", "155412.550000", "155412.553000", "155412.555000", "155412.558000", "155412.561000", "155412.563000", "155412.566000", "155412.568000", "155412.571000", "155412.574000", "155412.576000", "155412.579000", "155412.581000", "155412.584000", "155412.586000", "155412.589000", "155412.592000", "155412.594000", "155412.597000", "155412.599000", "155412.602000", "155412.604000", "155412.607000", "155452.559000", "155452.562000", "155452.564000", "155452.567000", "155452.570000", "155452.572000", "155452.575000", "155452.577000", "155452.580000", "155452.582000", "155452.585000", "155452.587000", "155452.590000", "155452.593000", "155452.595000", "155452.598000", "155452.600000", "155452.603000", "155452.605000", "155452.608000", "155452.610000", "155452.613000", "155452.615000", "155452.618000", "155452.620000", "155452.623000", "155452.626000", "155532.556000", "155532.559000", "155532.562000", "155532.565000", "155532.567000", "155532.570000", "155532.572000", "155532.575000", "155532.577000", "155532.580000", "155532.583000", "155532.585000", "155532.588000", "155532.590000", "155532.593000", "155532.595000", "155532.598000", "155532.600000", "155532.603000", "155532.606000", "155532.608000", "155532.611000", "155532.613000", "155532.616000", "155532.618000", "155532.621000", "155532.624000", "155612.542000", "155612.544000", "155612.547000", "155612.550000", "155612.552000", "155612.555000", "155612.558000", "155612.560000", "155612.563000", "155612.565000", "155612.568000", "155612.570000", "155612.573000", "155612.575000", "155612.578000", "155612.581000", "155612.583000", "155612.586000", "155612.588000", "155612.592000", "155612.595000", "155612.598000", "155612.600000", "155612.603000", "155612.605000", "155612.608000", "155612.611000", "155652.555000", "155652.558000", "155652.561000", "155652.563000", "155652.566000", "155652.569000", "155652.571000", "155652.574000", "155652.576000", "155652.579000", "155652.581000", "155652.584000", "155652.587000", "155652.589000", "155652.592000", "155652.594000", "155652.597000", "155652.599000", "155652.602000", "155652.604000", "155652.607000", "155652.610000", "155652.612000", "155652.615000", "155652.617000", "155652.620000", "155732.553000", "155732.556000", "155732.559000", "155732.561000", "155732.564000", "155732.567000", "155732.569000", "155732.572000", "155732.575000", "155732.577000", "155732.580000", "155732.582000", "155732.585000", "155732.587000", "155732.590000", "155732.598000", "155732.600000", "155732.603000", "155732.605000", "155732.608000", "155732.610000", "155732.613000", "155732.616000", "155732.618000", "155732.621000", "155732.623000", "155732.626000", "155812.556000", "155812.559000", "155812.561000", "155812.564000", "155812.566000", "155812.569000", "155812.572000", "155812.574000", "155812.577000", "155812.579000", "155812.582000", "155812.584000", "155812.587000", "155812.590000", "155812.592000", "155812.595000", "155812.597000", "155812.600000", "155812.603000", "155812.605000", "155812.608000", "155812.610000", "155812.613000", "155812.615000", "155812.618000", "155812.620000", "155812.623000", "155852.958000", "155852.961000", "155852.963000", "155852.966000", "155852.969000", "155852.972000", "155852.974000", "155852.977000", "155852.980000", "155852.982000", "155852.985000", "155852.987000", "155852.990000", "155852.992000", "155852.995000", "155852.997000", "155853.001000", "155853.004000", "155853.006000", "155853.009000", "155853.011000", "155853.014000", "155853.016000", "155853.019000", "155853.022000", "155853.024000", "155853.027000", "155923.846000", "155923.849000", "155923.852000", "155923.855000", "155923.858000", "155923.860000", "155923.863000", "155923.866000", "155923.868000", "155923.871000", "155923.874000", "155923.876000", "155923.879000", "155923.882000", "155923.884000", "155923.887000", "155923.890000", "155923.893000", "155923.895000", "155923.898000", "155923.901000"],
