{
  "AcquisitionMatrixPE": 104,
  "AcquisitionNumber": 1,
  "AcquisitionTime": "16:00:43.165000",
  "BandwidthPerPixelPhaseEncode": 17.17,
  "BaseResolution": 104,
  "BodyPartExamined": "BRAIN",
  "CoilCombinationMethod": "Sum of Squares",
  "ConsistencyInfo": "N4_VE11C_LATEST_20160120",
  "ConversionSoftware": "dcm2niix",
  "ConversionSoftwareVersion": "v1.0.20211006",
  "DerivedVendorReportedEchoSpacing": 0.000560011,
  "DeviceSerialNumber": "167006",
  "DwellTime": 2.1e-06,
  "EchoTime": 0.037,
  "EchoTime1": 0.037,
  "EchoTime2": 0.001,
  "EchoTrainLength": 104,
  "EffectiveEchoSpacing": 0.000560011,
  "FlipAngle": 52,
  "HeudiconvVersion": "0.11.3.post9+gc939bf8",
  "ImageComments": "Unaliased MB4/PE3/LB",
  "ImageOrientationPatientDICOM": [0.999484, -0.0316117, 0.00575126, 0.0315847, 0.933776, -0.35646],
  "ImageOrientationText": "Tra>Cor(-20.9)>Sag(-0.3)",
  "ImageType": [
    "ORIGINAL",
    "PRIMARY",
    "P",
    "MB",
    "ND",
    "MOSAIC",
    "PHASE"
],
  "ImagingFrequency": 123.259,
  "InPlanePhaseEncodingDirectionDICOM": "COL",
  "InstitutionAddress": "Chemin Queen-Mary 4565,Montreal,District,CA,H3W 1W5",
  "InstitutionName": "IUGM",
  "InstitutionalDepartmentName": "Department",
  "MRAcquisitionType": "2D",
  "MagneticFieldStrength": 3,
  "Manufacturer": "Siemens",
  "ManufacturersModelName": "Prisma_fit",
  "MatrixCoilMode": "SENSE",
  "Modality": "MR",
  "MultibandAccelerationFactor": 4,
  "PartialFourier": 1,
  "PatientPosition": "HFS",
  "PercentPhaseFOV": 100,
  "PercentSampling": 100,
  "PhaseEncodingDirection": "j",
  "PhaseEncodingSteps": 104,
  "PhaseResolution": 1,
  "PixelBandwidth": 2290,
  "ProcedureStepDescription": "games^mariostars",
  "ProtocolName": "func_task-mariostars_run-03",
  "PulseSequenceDetails": "%CustomerSeq%\\cmrr_mbep2d_bold",
  "ReceiveCoilActiveElements": "HC1-7;NC1,2",
  "ReceiveCoilName": "HeadNeck_64",
  "ReconMatrixPE": 104,
  "RepetitionTime": 1.49,
  "SAR": 0.0325322,
  "ScanOptions": "FS",
  "ScanningSequence": "EP",
  "SequenceName": "epfid2d1_104",
  "SequenceVariant": "SK\\SS",
  "SeriesDescription": "func_task-mariostars_run-03",
  "SeriesNumber": 18,
  "ShimSetting": [619, -7250, -8823, 557, 9, -195, -94, -9],
  "SliceThickness": 2,
  "SliceTiming": [0, 0.7825, 0.0975, 0.8825, 0.195, 0.98, 0.2925, 1.0775, 0.3925, 1.175, 0.49, 1.2725, 0.5875, 1.3725, 0.685, 0, 0.7825, 0.0975, 0.8825, 0.195, 0.98, 0.2925, 1.0775, 0.3925, 1.175, 0.49, 1.2725, 0.5875, 1.3725, 0.685, 0, 0.7825, 0.0975, 0.8825, 0.195, 0.98, 0.2925, 1.0775, 0.3925, 1.175, 0.49, 1.2725, 0.5875, 1.3725, 0.685, 0, 0.7825, 0.0975, 0.8825, 0.195, 0.98, 0.2925, 1.0775, 0.3925, 1.175, 0.49, 1.2725, 0.5875, 1.3725, 0.685],
  "SoftwareVersions": "syngo MR E11",
  "SpacingBetweenSlices": 2,
  "StationName": "MRC35049",
  "TaskName": "mariostars",
  "TotalReadoutTime": 0.0576811,
  "TxRefAmp": 222.854,
  "WipMemBlock": "40a63037-9f30-44b8-b673-2b71f0920c25||Sequence: R016 ve11c/master r/e634e98; Dec 19 2017 11:00:25 by eja",
  "dcmmeta_affine": [
    [-1.9989674091339111, 0.06316936761140823, -0.01179585698992014, 103.3826675415039],
    [0.06322343647480011, 1.8675529956817627, -0.7129157185554504, -66.27283477783203],
    [0.0115025220438838, 0.7129204869270325, 1.8685855865478516, -67.9195785522461],
    [0.0, 0.0, 0.0, 1.0]
],
  "dcmmeta_reorient_transform": [
    [0.0, -1.0, 0.0, 103.0],
    [1.0, 0.0, 0.0, 0.0],
    [0.0, 0.0, 1.0, 0.0],
    [0.0, 0.0, 0.0, 1.0]
],
  "dcmmeta_shape": [104, 104, 60, 441],
  "dcmmeta_slice_dim": 2,
  "dcmmeta_version": 0.6,
  "global": {
    "const": {
      "AcquisitionMatrix": [104, 0, 0, 104],
      "AngioFlag": "N",
      "BitsAllocated": 16,
      "BitsStored": 16,
      "BodyPartExamined": "BRAIN",
      "Columns": 832,
      "EchoNumbers": 1,
      "EchoTime": 37.0,
      "EchoTrainLength": 104,
      "FlipAngle": 52.0,
      "HighBit": 15,
      "ImageOrientationPatient": [0.99948367785231, -0.0316117178064, 0.00575126109281, 0.03158468213288, 0.9337764708591, -0.3564602506935],
      "ImagePositionPatient": [-860.50687550004, -782.86105760263, 260.82737972928],
      "ImageType": [
        "ORIGINAL",
        "PRIMARY",
        "P",
        "MB",
        "ND",
        "MOSAIC"
],
      "ImagedNucleus": "1H",
      "ImagingFrequency": 123.258799,
      "InPlanePhaseEncodingDirection": "COL",
      "LargestImagePixelValue": 4095,
      "MRAcquisitionType": "2D",
      "MagneticFieldStrength": 3.0,
      "Manufacturer": "SIEMENS",
      "ManufacturerModelName": "Prisma_fit",
      "Modality": "MR",
      "NumberOfAverages": 1.0,
      "NumberOfPhaseEncodingSteps": 104,
      "PercentPhaseFieldOfView": 100.0,
      "PercentSampling": 100.0,
      "PerformedProcedureStepStartTime": "143822.129000",
      "PhotometricInterpretation": "MONOCHROME2",
      "PixelBandwidth": 2290.0,
      "PixelRepresentation": 0,
      "PixelSpacing": [2.0, 2.0],
      "ProtocolName": "func_task-mariostars_run-03",
      "RepetitionTime": 1490.0,
      "RescaleIntercept": -4096.0,
      "RescaleSlope": 2.0,
      "RescaleType": "US",
      "Rows": 832,
      "SAR": 0.03253216711511,
      "SamplesPerPixel": 1,
      "ScanOptions": "FS",
      "ScanningSequence": "EP",
      "SequenceName": "epfid2d1_104",
      "SequenceVariant": [
        "SK",
        "SS"
],
      "SeriesDescription": "func_task-mariostars_run-03",
      "SeriesNumber": 18,
      "SeriesTime": "160157.874000",
      "SliceLocation": -40.443041105592,
      "SliceThickness": 2.0,
      "SmallestImagePixelValue": 0,
      "SoftwareVersions": "syngo MR E11",
      "SpacingBetweenSlices": 1.9999999948018,
      "SpecificCharacterSet": "ISO_IR 100",
      "StudyID": "1",
      "StudyTime": "143822.053000",
      "TransmitCoilName": "Body",
      "VariableFlipAngleFlag": "N",
      "WindowCenterWidthExplanation": "Algo1",
      "dBdt": 0.0},
    "slices": {}
  },
  "time": {
    "samples": {
      "AcquisitionNumber": [1, 2, 3, 4, 5, 6, 7, 8, 9, 10, 11, 12, 13, 14, 15, 16, 17, 18, 19, 20, 21, 22, 23, 24, 25, 26, 27, 28, 29, 30, 31, 32, 33, 34, 35, 36, 37, 38, 39, 40, 41, 42, 43, 44, 45, 46, 47, 48, 49, 50, 51, 52, 53, 54, 55, 56, 57, 58, 59, 60, 61, 62, 63, 64, 65, 66, 67, 68, 69, 70, 71, 72, 73, 74, 75, 76, 77, 78, 79, 80, 81, 82, 83, 84, 85, 86, 87, 88, 89, 90, 91, 92, 93, 94, 95, 96, 97, 98, 99, 100, 101, 102, 103, 104, 105, 106, 107, 108, 109, 110, 111, 112, 113, 114, 115, 116, 117, 118, 119, 120, 121, 122, 123, 124, 125, 126, 127, 128, 129, 130, 131, 132, 133, 134, 135, 136, 137, 138, 139, 140, 141, 142, 143, 144, 145, 146, 147, 148, 149, 150, 151, 152, 153, 154, 155, 156, 157, 158, 159, 160, 161, 162, 163, 164, 165, 166, 167, 168, 169, 170, 171, 172, 173, 174, 175, 176, 177, 178, 179, 180, 181, 182, 183, 184, 185, 186, 187, 188, 189, 190, 191, 192, 193, 194, 195, 196, 197, 198, 199, 200, 201, 202, 203, 204, 205, 206, 207, 208, 209, 210, 211, 212, 213, 214, 215, 216, 217, 218, 219, 220, 221, 222, 223, 224, 225, 226, 227, 228, 229, 230, 231, 232, 233, 234, 235, 236, 237, 238, 239, 240, 241, 242, 243, 244, 245, 246, 247, 248, 249, 250, 251, 252, 253, 254, 255, 256, 257, 258, 259, 260, 261, 262, 263, 264, 265, 266, 267, 268, 269, 270, 271, 272, 273, 274, 275, 276, 277, 278, 279, 280, 281, 282, 283, 284, 285, 286, 287, 288, 289, 290, 291, 292, 293, 294, 295, 296, 297, 298, 299, 300, 301, 302, 303, 304, 305, 306, 307, 308, 309, 310, 311, 312, 313, 314, 315, 316, 317, 318, 319, 320, 321, 322, 323, 324, 325, 326, 327, 328, 329, 330, 331, 332, 333, 334, 335, 336, 337, 338, 339, 340, 341, 342, 343, 344, 345, 346, 347, 348, 349, 350, 351, 352, 353, 354, 355, 356, 357, 358, 359, 360, 361, 362, 363, 364, 365, 366, 367, 368, 369, 370, 371, 372, 373, 374, 375, 376, 377, 378, 379, 380, 381, 382, 383, 384, 385, 386, 387, 388, 389, 390, 391, 392, 393, 394, 395, 396, 397, 398, 399, 400, 401, 402, 403, 404, 405, 406, 407, 408, 409, 410, 411, 412, 413, 414, 415, 416, 417, 418, 419, 420, 421, 422, 423, 424, 425, 426, 427, 428, 429, 430, 431, 432, 433, 434, 435, 436, 437, 438, 439, 440, 441],
      "AcquisitionTime": ["160043.165000", "160044.655000", "160046.145000", "160047.635000", "160049.125000", "160050.615000", "160052.105000", "160053.595000", "160055.085000", "160056.575000", "160058.065000", "160059.555000", "160101.045000", "160102.535000", "160104.025000", "160105.515000", "160107.005000", "160108.495000", "160109.985000", "160111.475000", "160112.965000", "160114.455000", "160115.945000", "160117.435000", "160118.925000", "160120.415000", "160121.905000", "160123.395000", "160124.885000", "160126.375000", "160127.865000", "160129.355000", "160130.845000", "160132.335000", "160133.825000", "160135.315000", "160136.805000", "160138.295000", "160139.785000", "160141.275000", "160142.765000", "160144.255000", "160145.745000", "160147.235000", "160148.725000", "160150.215000", "160151.705000", "160153.195000", "160154.685000", "160156.175000", "160157.665000", "160159.155000", "160200.645000", "160202.135000", "160203.625000", "160205.115000", "160206.605000", "160208.095000", "160209.585000", "160211.075000", "160212.565000", "160214.055000", "160215.545000", "160217.035000", "160218.525000", "160220.015000", "160221.505000", "160222.995000", "160224.485000", "160225.975000", "160227.465000", "160228.955000", "160230.445000", "160231.935000", "160233.425000", "160234.915000", "160236.405000", "160237.895000", "160239.385000", "160240.875000", "160242.365000", "160243.855000", "160245.345000", "160246.835000", "160248.325000", "160249.815000", "160251.305000", "160252.795000", "160254.285000", "160255.775000", "160257.265000", "160258.755000", "160300.245000", "160301.735000", "160303.225000", "160304.715000", "160306.205000", "160307.695000", "160309.185000", "160310.675000", "160312.165000", "160313.655000", "160315.145000", "160316.635000", "160318.125000", "160319.615000", "160321.105000", "160322.595000", "160324.085000", "160325.575000", "160327.065000", "160328.555000", "160330.045000", "160331.535000", "160333.025000", "160334.515000", "160336.005000", "160337.495000", "160338.985000", "160340.475000", "160341.965000", "160343.455000", "160344.945000", "160346.435000", "160347.925000", "160349.415000", "160350.905000", "160352.395000", "160353.885000", "160355.375000", "160356.865000", "160358.355000", "160359.845000", "160401.335000", "160402.825000", "160404.315000", "160405.805000", "160407.295000", "160408.785000", "160410.275000", "160411.765000", "160413.255000", "160414.745000", "160416.235000", "160417.725000", "160419.215000", "160420.705000", "160422.195000", "160423.685000", "160425.175000", "160426.665000", "160428.155000", "160429.645000", "160431.135000", "160432.625000", "160434.115000", "160435.605000", "160437.095000", "160438.585000", "160440.075000", "160441.565000", "160443.055000", "160444.545000", "160446.035000", "160447.525000", "160449.015000", "160450.505000", "160451.995000", "160453.485000", "160454.975000", "160456.465000", "160457.955000", "160459.445000", "160500.935000", "160502.425000", "160503.915000", "160505.405000", "160506.895000", "160508.385000", "160509.875000", "160511.365000", "160512.855000", "160514.345000", "160515.835000", "160517.325000", "160518.815000", "160520.305000", "160521.795000", "160523.285000", "160524.775000", "160526.265000", "160527.755000", "160529.245000", "160530.735000", "160532.225000", "160533.715000", "160535.205000", "160536.695000", "160538.185000", "160539.675000", "160541.165000", "160542.655000", "160544.145000", "160545.635000", "160547.125000", "160548.615000", "160550.105000", "160551.595000", "160553.085000", "160554.575000", "160556.065000", "160557.555000", "160559.045000", "160600.535000", "160602.025000", "160603.515000", "160605.005000", "160606.495000", "160607.985000", "160609.475000", "160610.965000", "160612.455000", "160613.945000", "160615.435000", "160616.925000", "160618.415000", "160619.905000", "160621.395000", "160622.885000", "160624.375000", "160625.865000", "160627.355000", "160628.845000", "160630.335000", "160631.825000", "160633.315000", "160634.805000", "160636.295000", "160637.785000", "160639.275000", "160640.765000", "160642.255000", "160643.745000", "160645.235000", "160646.725000", "160648.215000", "160649.705000", "160651.195000", "160652.685000", "160654.175000", "160655.665000", "160657.155000", "160658.645000", "160700.135000", "160701.625000", "160703.115000", "160704.605000", "160706.095000", "160707.585000", "160709.075000", "160710.565000", "160712.055000", "160713.545000", "160715.035000", "160716.525000", "160718.015000", "160719.505000", "160720.995000", "160722.485000", "160723.975000", "160725.465000", "160726.955000", "160728.445000", "160729.935000", "160731.425000", "160732.915000", "160734.405000", "160735.895000", "160737.385000", "160738.875000", "160740.365000", "160741.855000", "160743.345000", "160744.835000", "160746.325000", "160747.815000", "160749.305000", "160750.795000", "160752.285000", "160753.775000", "160755.265000", "160756.755000", "160758.245000", "160759.735000", "160801.225000", "160802.715000", "160804.205000", "160805.695000", "160807.185000", "160808.675000", "160810.165000", "160811.655000", "160813.145000", "160814.635000", "160816.125000", "160817.615000", "160819.105000", "160820.595000", "160822.085000", "160823.575000", "160825.065000", "160826.555000", "160828.045000", "160829.535000", "160831.025000", "160832.515000", "160834.005000", "160835.495000", "160836.985000", "160838.475000", "160839.965000", "160841.455000", "160842.945000", "160844.435000", "160845.925000", "160847.415000", "160848.905000", "160850.395000", "160851.885000", "160853.375000", "160854.865000", "160856.355000", "160857.845000", "160859.335000", "160900.825000", "160902.315000", "160903.805000", "160905.295000", "160906.785000", "160908.275000", "160909.765000", "160911.255000", "160912.745000", "160914.235000", "160915.725000", "160917.215000", "160918.705000", "160920.195000", "160921.685000", "160923.175000", "160924.665000", "160926.155000", "160927.645000", "160929.135000", "160930.625000", "160932.115000", "160933.605000", "160935.095000", "160936.585000", "160938.075000", "160939.565000", "160941.055000", "160942.545000", "160944.035000", "160945.525000", "160947.015000", "160948.505000", "160949.995000", "160951.485000", "160952.975000", "160954.465000", "160955.955000", "160957.445000", "160958.935000", "161000.425000", "161001.915000", "161003.405000", "161004.895000", "161006.385000", "161007.875000", "161009.365000", "161010.855000", "161012.345000", "161013.835000", "161015.325000", "161016.815000", "161018.305000", "161019.795000", "161021.285000", "161022.775000", "161024.265000", "161025.755000", "161027.245000", "161028.735000", "161030.225000", "161031.715000", "161033.205000", "161034.695000", "161036.185000", "161037.675000", "161039.165000", "161040.655000", "161042.145000", "161043.635000", "161045.125000", "161046.615000", "161048.105000", "161049.595000", "161051.085000", "161052.575000", "161054.065000", "161055.555000", "161057.045000", "161058.535000", "161100.025000", "161101.515000", "161103.005000", "161104.495000", "161105.985000", "161107.475000", "161108.965000", "161110.455000", "161111.945000", "161113.435000", "161114.925000", "161116.415000", "161117.905000", "161119.395000", "161120.885000", "161122.375000", "161123.865000", "161125.355000", "161126.845000", "161128.335000", "161129.825000", "161131.315000", "161132.805000", "161134.295000", "161135.785000", "161137.275000", "161138.765000"],
      "ContentTime": ["160157.877000", "160157.879000", "160157.882000", "160157.891000", "160157.893000", "160157.896000", "160157.898000", "160157.901000", "160157.903000", "160157.906000", "160157.908000", "160157.911000", "160157.913000", "160157.916000", "160157.918000", "160157.921000", "160157.923000", "160157.926000", "160217.858000", "160217.861000", "160217.864000", "160217.866000", "160217.869000", "160217.871000", "160217.874000", "160217.876000", "160217.879000", "160217.881000", "160217.884000", "160217.886000", "160217.889000", "160217.891000", "160217.894000", "160217.897000", "160217.899000", "160217.902000", "160217.904000", "160217.907000", "160217.909000", "160237.867000", "160237.870000", "160237.873000", "160237.875000", "160237.878000", "160237.880000", "160237.883000", "160237.886000", "160237.888000", "160237.891000", "160237.893000", "160237.896000", "160237.898000", "160237.901000", "160237.903000", "160237.906000", "160237.915000", "160237.918000", "160237.920000", "160237.923000", "160257.859000", "160257.862000", "160257.865000", "160257.867000", "160257.870000", "160257.873000", "160257.875000", "160257.878000", "160257.880000", "160257.883000", "160257.885000", "160257.888000", "160257.890000", "160257.893000", "160257.896000", "160257.898000", "160257.901000", "160257.903000", "160257.906000", "160257.908000", "160317.854000", "160317.857000", "160317.860000", "160317.862000", "160317.865000", "160317.867000", "160317.870000", "160317.872000", "160317.875000", "160317.878000", "160317.880000", "160317.883000", "160317.885000", "160317.888000", "160317.890000", "160317.893000", "160317.895000", "160317.898000", "160317.900000", "160317.903000", "160357.913000", "160357.916000", "160357.919000", "160357.921000", "160357.924000", "160357.926000", "160357.929000", "160357.932000", "160357.934000", "160357.937000", "160357.939000", "160357.942000", "160357.944000", "160357.947000", "160357.949000", "160357.952000", "160357.955000", "160357.957000", "160357.960000", "160357.962000", "160357.965000", "160357.967000", "160357.970000", "160357.972000", "160357.975000", "160357.978000", "160357.980000", "160357.983000", "160357.992000", "160357.995000", "160437.892000", "160437.895000", "160437.898000", "160437.900000", "160437.903000", "160437.905000", "160437.908000", "160437.910000", "160437.914000", "160437.917000", "160437.919000", "160437.922000", "160437.924000", "160437.927000", "160437.930000", "160437.932000", "160437.935000", "160437.937000", "160437.940000", "160437.958000", "160437.961000", "160437.963000", "160437.966000", "160437.968000", "160437.971000", "160437.974000", "160437.976000", "160517.883000", "160517.885000", "160517.888000", "160517.891000", "160517.893000", "160517.896000", "160517.898000", "160517.901000", "160517.903000", "160517.906000", "160517.909000", "160517.911000", "160517.914000", "160517.916000", "160517.919000", "160517.921000", "160517.924000", "160517.927000", "160517.929000", "160517.932000", "160517.934000", "160517.937000", "160517.939000", "160517.942000", "160517.944000", "160517.947000", "160517.950000", "160557.879000", "160557.882000", "160557.884000", "160557.887000", "160557.890000", "160557.892000", "160557.895000", "160557.897000", "160557.900000", "160557.902000", "160557.905000", "160557.908000", "160557.910000", "160557.913000", "160557.915000", "160557.918000", "160557.920000", "160557.923000", "160557.926000", "160557.928000", "160557.931000", "160557.933000", "160557.936000", "160557.939000", "160557.941000", "160557.944000", "160557.946000", "160637.899000", "160637.902000", "160637.904000", "160637.907000", "160637.909000", "160637.912000", "160637.914000", "160637.917000", "160637.920000", "160637.922000", "160637.925000", "160637.927000", "160637.930000", "160637.932000", "160637.935000", "160637.937000", "160637.940000", "160637.942000", "160637.945000", "160637.948000", "160637.950000", "160637.953000", "160637.955000", "160637.958000", "160637.960000", "160637.963000", "160637.966000", "160717.901000", "160717.904000", "160717.906000", "160717.909000", "160717.911000", "160717.914000", "160717.917000", "160717.919000", "160717.922000", "160717.924000", "160717.927000", "160717.929000", "160717.932000", "160717.934000", "160717.937000", "160717.940000", "160717.942000", "160717.945000", "160717.947000", "160717.950000", "160717.952000", "160717.955000", "160717.957000", "160717.960000", "160717.963000", "160717.965000", "160717.968000", "160757.897000", "160757.900000", "160757.903000", "160757.905000", "160757.908000", "160757.910000", "160757.913000", "160757.915000", "160757.918000", "160757.921000", "160757.923000", "160757.926000", "160757.928000", "160757.931000", "160757.933000", "160757.936000", "160757.938000", "160757.941000", "160757.943000", "160757.946000", "160757.949000", "160757.951000", "160757.954000", "160757.956000", "160757.959000", "160757.961000", "160757.964000", "160837.895000", "160837.898000", "160837.900000", "160837.903000", "160837.905000", "160837.908000", "160837.910000", "160837.913000", "160837.915000", "160837.918000", "160837.921000", "160837.923000", "160837.926000", "160837.928000", "160837.931000", "160837.934000", "160837.937000", "160837.940000", "160837.943000", "160837.945000", "160837.948000", "160837.951000", "160837.954000", "160837.956000", "160837.959000", "160837.962000", "160917.886000", "160917.889000", "160917.891000", "160917.894000", "160917.896000", "160917.899000", "160917.901000", "160917.911000", "160917.913000", "160917.916000", "160917.918000", "160917.921000", "160917.923000", "160917.926000", "160917.928000", "160917.931000", "160917.934000", "160917.936000", "160917.939000", "160917.942000", "160917.944000", "160917.947000", "160917.949000", "160917.952000", "160917.954000", "160917.957000", "160917.973000", "160957.888000", "160957.891000", "160957.893000", "160957.896000", "160957.898000", "160957.901000", "160957.904000", "160957.906000", "160957.909000", "160957.911000", "160957.914000", "160957.916000", "160957.919000", "160957.921000", "160957.924000", "160957.927000", "160957.929000", "160957.932000", "160957.934000", "160957.937000", "160957.939000", "160957.942000", "160957.945000", "160957.947000", "160957.950000", "160957.952000", "160957.955000", "161038.285000", "161038.288000", "161038.290000", "161038.293000", "161038.296000", "161038.298000", "161038.301000", "161038.303000", "161038.306000", "161038.308000", "161038.311000", "161038.314000", "161038.316000", "161038.319000", "161038.321000", "161038.324000", "161038.326000", "161038.329000", "161038.331000", "161038.334000", "161038.336000", "161038.339000", "161038.342000", "161038.344000", "161038.347000", "161038.349000", "161038.352000", "161057.821000", "161057.824000", "161057.827000", "161057.829000", "161057.832000", "161057.835000", "161057.837000", "161057.840000", "161057.842000", "161057.845000", "161057.847000", "161057.850000", "161057.852000", "161137.893000", "161137.896000", "161137.898000", "161137.901000", "161137.904000", "161137.906000", "161137.909000", "161137.911000", "161137.914000", "161137.916000", "161137.919000", "161137.922000", "161137.924000", "161137.927000", "161137.929000", "161137.932000", "161137.934000", "161137.937000", "161137.939000", "161137.942000", "161137.944000", "161137.947000", "161137.950000", "161137.952000", "161137.955000", "161137.957000", "161137.960000", "161142.644000", "161142.647000", "161142.649000"],
