{
  "AcquisitionMatrixPE": 104,
  "AcquisitionNumber": 1,
  "AcquisitionTime": "15:34:35.087500",
  "BandwidthPerPixelPhaseEncode": 17.17,
  "BaseResolution": 104,
  "BodyPartExamined": "BRAIN",
  "CoilCombinationMethod": "Sum of Squares",
  "ConsistencyInfo": "N4_VE11C_LATEST_20160120",
  "ConversionSoftware": "dcm2niix",
  "ConversionSoftwareVersion": "v1.0.20211006",
  "DerivedVendorReportedEchoSpacing": 0.000560011,
  "DeviceSerialNumber": "167006",
  "DwellTime": 2.1e-06,
  "EchoTime": 0.037,
  "EchoTime1": 0.037,
  "EchoTime2": 0.001,
  "EchoTrainLength": 104,
  "EffectiveEchoSpacing": 0.000560011,
  "FlipAngle": 52,
  "HeudiconvVersion": "0.11.3.post9+gc939bf8",
  "ImageComments": "Unaliased MB4/PE3/LB",
  "ImageOrientationPatientDICOM": [0.999484, -0.0316117, 0.00575126, 0.0315847, 0.933776, -0.35646],
  "ImageOrientationText": "Tra>Cor(-20.9)>Sag(-0.3)",
  "ImageType": [
    "ORIGINAL",
    "PRIMARY",
    "P",
    "MB",
    "ND",
    "MOSAIC",
    "PHASE"
],
  "ImagingFrequency": 123.259,
  "InPlanePhaseEncodingDirectionDICOM": "COL",
  "InstitutionAddress": "Chemin Queen-Mary 4565,Montreal,District,CA,H3W 1W5",
  "InstitutionName": "IUGM",
  "InstitutionalDepartmentName": "Department",
  "MRAcquisitionType": "2D",
  "MagneticFieldStrength": 3,
  "Manufacturer": "Siemens",
  "ManufacturersModelName": "Prisma_fit",
  "MatrixCoilMode": "SENSE",
  "Modality": "MR",
  "MultibandAccelerationFactor": 4,
  "PartialFourier": 1,
  "PatientPosition": "HFS",
  "PercentPhaseFOV": 100,
  "PercentSampling": 100,
  "PhaseEncodingDirection": "j",
  "PhaseEncodingSteps": 104,
  "PhaseResolution": 1,
  "PixelBandwidth": 2290,
  "ProcedureStepDescription": "games^mariostars",
  "ProtocolName": "func_task-mariostars_run-01",
  "PulseSequenceDetails": "%CustomerSeq%\\cmrr_mbep2d_bold",
  "ReceiveCoilActiveElements": "HC1-7;NC1,2",
  "ReceiveCoilName": "HeadNeck_64",
  "ReconMatrixPE": 104,
  "RepetitionTime": 1.49,
  "SAR": 0.0325322,
  "ScanOptions": "FS",
  "ScanningSequence": "EP",
  "SequenceName": "epfid2d1_104",
  "SequenceVariant": "SK\\SS",
  "SeriesDescription": "func_task-mariostars_run-01",
  "SeriesNumber": 12,
  "ShimSetting": [619, -7250, -8823, 557, 9, -195, -94, -9],
  "SliceThickness": 2,
  "SliceTiming": [0, 0.7825, 0.0975, 0.8825, 0.195, 0.98, 0.2925, 1.0775, 0.3925, 1.175, 0.49, 1.2725, 0.5875, 1.3725, 0.685, 0, 0.7825, 0.0975, 0.8825, 0.195, 0.98, 0.2925, 1.0775, 0.3925, 1.175, 0.49, 1.2725, 0.5875, 1.3725, 0.685, 0, 0.7825, 0.0975, 0.8825, 0.195, 0.98, 0.2925, 1.0775, 0.3925, 1.175, 0.49, 1.2725, 0.5875, 1.3725, 0.685, 0, 0.7825, 0.0975, 0.8825, 0.195, 0.98, 0.2925, 1.0775, 0.3925, 1.175, 0.49, 1.2725, 0.5875, 1.3725, 0.685],
  "SoftwareVersions": "syngo MR E11",
  "SpacingBetweenSlices": 2,
  "StationName": "MRC35049",
  "TaskName": "mariostars",
  "TotalReadoutTime": 0.0576811,
  "TxRefAmp": 222.854,
  "WipMemBlock": "ba57f4d2-c692-4678-9686-a6878ec0b8ed||Sequence: R016 ve11c/master r/e634e98; Dec 19 2017 11:00:25 by eja",
  "dcmmeta_affine": [
    [-1.9989674091339111, 0.06316936761140823, -0.01179585698992014, 103.3826675415039],
    [0.06322343647480011, 1.8675529956817627, -0.7129157185554504, -66.27283477783203],
    [0.0115025220438838, 0.7129204869270325, 1.8685855865478516, -67.9195785522461],
    [0.0, 0.0, 0.0, 1.0]
],
  "dcmmeta_reorient_transform": [
    [0.0, -1.0, 0.0, 103.0],
    [1.0, 0.0, 0.0, 0.0],
    [0.0, 0.0, 1.0, 0.0],
    [0.0, 0.0, 0.0, 1.0]
],
  "dcmmeta_shape": [104, 104, 60, 442],
  "dcmmeta_slice_dim": 2,
  "dcmmeta_version": 0.6,
  "global": {
    "const": {
      "AcquisitionMatrix": [104, 0, 0, 104],
      "AngioFlag": "N",
      "BitsAllocated": 16,
      "BitsStored": 16,
      "BodyPartExamined": "BRAIN",
      "Columns": 832,
      "EchoNumbers": 1,
      "EchoTime": 37.0,
      "EchoTrainLength": 104,
      "FlipAngle": 52.0,
      "HighBit": 15,
      "ImageOrientationPatient": [0.99948367785231, -0.0316117178064, 0.00575126109281, 0.03158468213288, 0.9337764708591, -0.3564602506935],
      "ImagePositionPatient": [-860.50687550004, -782.86105760263, 260.82737972928],
      "ImageType": [
        "ORIGINAL",
        "PRIMARY",
        "P",
        "MB",
        "ND",
        "MOSAIC"
],
      "ImagedNucleus": "1H",
      "ImagingFrequency": 123.258784,
      "InPlanePhaseEncodingDirection": "COL",
      "LargestImagePixelValue": 4095,
      "MRAcquisitionType": "2D",
      "MagneticFieldStrength": 3.0,
      "Manufacturer": "SIEMENS",
      "ManufacturerModelName": "Prisma_fit",
      "Modality": "MR",
      "NumberOfAverages": 1.0,
      "NumberOfPhaseEncodingSteps": 104,
      "PercentPhaseFieldOfView": 100.0,
      "PercentSampling": 100.0,
      "PerformedProcedureStepStartTime": "143822.129000",
      "PhotometricInterpretation": "MONOCHROME2",
      "PixelBandwidth": 2290.0,
      "PixelRepresentation": 0,
      "PixelSpacing": [2.0, 2.0],
      "ProtocolName": "func_task-mariostars_run-01",
      "RepetitionTime": 1490.0,
      "RescaleIntercept": -4096.0,
      "RescaleSlope": 2.0,
      "RescaleType": "US",
      "Rows": 832,
      "SAR": 0.03253216711511,
      "SamplesPerPixel": 1,
      "ScanOptions": "FS",
      "ScanningSequence": "EP",
      "SequenceName": "epfid2d1_104",
      "SequenceVariant": [
        "SK",
        "SS"
],
      "SeriesDescription": "func_task-mariostars_run-01",
      "SeriesNumber": 12,
      "SeriesTime": "153607.415000",
      "SliceLocation": -40.443041105592,
      "SliceThickness": 2.0,
      "SmallestImagePixelValue": 0,
      "SoftwareVersions": "syngo MR E11",
      "SpacingBetweenSlices": 1.9999999948018,
      "SpecificCharacterSet": "ISO_IR 100",
      "StudyID": "1",
      "StudyTime": "143822.053000",
      "TransmitCoilName": "Body",
      "VariableFlipAngleFlag": "N",
      "WindowCenterWidthExplanation": "Algo1",
      "dBdt": 0.0},
    "slices": {}
  },
  "time": {
    "samples": {
      "AcquisitionNumber": [1, 2, 3, 4, 5, 6, 7, 8, 9, 10, 11, 12, 13, 14, 15, 16, 17, 18, 19, 20, 21, 22, 23, 24, 25, 26, 27, 28, 29, 30, 31, 32, 33, 34, 35, 36, 37, 38, 39, 40, 41, 42, 43, 44, 45, 46, 47, 48, 49, 50, 51, 52, 53, 54, 55, 56, 57, 58, 59, 60, 61, 62, 63, 64, 65, 66, 67, 68, 69, 70, 71, 72, 73, 74, 75, 76, 77, 78, 79, 80, 81, 82, 83, 84, 85, 86, 87, 88, 89, 90, 91, 92, 93, 94, 95, 96, 97, 98, 99, 100, 101, 102, 103, 104, 105, 106, 107, 108, 109, 110, 111, 112, 113, 114, 115, 116, 117, 118, 119, 120, 121, 122, 123, 124, 125, 126, 127, 128, 129, 130, 131, 132, 133, 134, 135, 136, 137, 138, 139, 140, 141, 142, 143, 144, 145, 146, 147, 148, 149, 150, 151, 152, 153, 154, 155, 156, 157, 158, 159, 160, 161, 162, 163, 164, 165, 166, 167, 168, 169, 170, 171, 172, 173, 174, 175, 176, 177, 178, 179, 180, 181, 182, 183, 184, 185, 186, 187, 188, 189, 190, 191, 192, 193, 194, 195, 196, 197, 198, 199, 200, 201, 202, 203, 204, 205, 206, 207, 208, 209, 210, 211, 212, 213, 214, 215, 216, 217, 218, 219, 220, 221, 222, 223, 224, 225, 226, 227, 228, 229, 230, 231, 232, 233, 234, 235, 236, 237, 238, 239, 240, 241, 242, 243, 244, 245, 246, 247, 248, 249, 250, 251, 252, 253, 254, 255, 256, 257, 258, 259, 260, 261, 262, 263, 264, 265, 266, 267, 268, 269, 270, 271, 272, 273, 274, 275, 276, 277, 278, 279, 280, 281, 282, 283, 284, 285, 286, 287, 288, 289, 290, 291, 292, 293, 294, 295, 296, 297, 298, 299, 300, 301, 302, 303, 304, 305, 306, 307, 308, 309, 310, 311, 312, 313, 314, 315, 316, 317, 318, 319, 320, 321, 322, 323, 324, 325, 326, 327, 328, 329, 330, 331, 332, 333, 334, 335, 336, 337, 338, 339, 340, 341, 342, 343, 344, 345, 346, 347, 348, 349, 350, 351, 352, 353, 354, 355, 356, 357, 358, 359, 360, 361, 362, 363, 364, 365, 366, 367, 368, 369, 370, 371, 372, 373, 374, 375, 376, 377, 378, 379, 380, 381, 382, 383, 384, 385, 386, 387, 388, 389, 390, 391, 392, 393, 394, 395, 396, 397, 398, 399, 400, 401, 402, 403, 404, 405, 406, 407, 408, 409, 410, 411, 412, 413, 414, 415, 416, 417, 418, 419, 420, 421, 422, 423, 424, 425, 426, 427, 428, 429, 430, 431, 432, 433, 434, 435, 436, 437, 438, 439, 440, 441, 442],
      "AcquisitionTime": ["153435.087500", "153436.577500", "153438.067500", "153439.557500", "153441.047500", "153442.537500", "153444.027500", "153445.517500", "153447.007500", "153448.497500", "153449.987500", "153451.477500", "153452.967500", "153454.457500", "153455.947500", "153457.437500", "153458.927500", "153500.417500", "153501.907500", "153503.397500", "153504.887500", "153506.377500", "153507.867500", "153509.357500", "153510.847500", "153512.337500", "153513.827500", "153515.317500", "153516.807500", "153518.297500", "153519.787500", "153521.277500", "153522.767500", "153524.257500", "153525.747500", "153527.237500", "153528.727500", "153530.217500", "153531.707500", "153533.197500", "153534.687500", "153536.177500", "153537.667500", "153539.157500", "153540.647500", "153542.137500", "153543.627500", "153545.117500", "153546.607500", "153548.097500", "153549.587500", "153551.077500", "153552.567500", "153554.057500", "153555.547500", "153557.037500", "153558.527500", "153600.017500", "153601.507500", "153602.997500", "153604.487500", "153605.977500", "153607.467500", "153608.957500", "153610.447500", "153611.937500", "153613.427500", "153614.917500", "153616.407500", "153617.897500", "153619.387500", "153620.877500", "153622.367500", "153623.857500", "153625.347500", "153626.837500", "153628.327500", "153629.817500", "153631.307500", "153632.797500", "153634.287500", "153635.777500", "153637.267500", "153638.757500", "153640.247500", "153641.737500", "153643.227500", "153644.717500", "153646.207500", "153647.697500", "153649.187500", "153650.677500", "153652.167500", "153653.657500", "153655.147500", "153656.637500", "153658.127500", "153659.617500", "153701.107500", "153702.597500", "153704.087500", "153705.577500", "153707.067500", "153708.557500", "153710.047500", "153711.537500", "153713.027500", "153714.517500", "153716.007500", "153717.497500", "153718.987500", "153720.477500", "153721.967500", "153723.457500", "153724.947500", "153726.437500", "153727.927500", "153729.417500", "153730.907500", "153732.397500", "153733.887500", "153735.377500", "153736.867500", "153738.357500", "153739.847500", "153741.337500", "153742.827500", "153744.317500", "153745.807500", "153747.297500", "153748.787500", "153750.277500", "153751.767500", "153753.257500", "153754.747500", "153756.237500", "153757.727500", "153759.217500", "153800.707500", "153802.197500", "153803.687500", "153805.177500", "153806.667500", "153808.157500", "153809.647500", "153811.137500", "153812.627500", "153814.117500", "153815.607500", "153817.097500", "153818.587500", "153820.077500", "153821.567500", "153823.057500", "153824.547500", "153826.037500", "153827.527500", "153829.017500", "153830.507500", "153831.997500", "153833.487500", "153834.977500", "153836.467500", "153837.957500", "153839.447500", "153840.937500", "153842.427500", "153843.917500", "153845.407500", "153846.897500", "153848.387500", "153849.877500", "153851.367500", "153852.857500", "153854.347500", "153855.837500", "153857.327500", "153858.817500", "153900.307500", "153901.797500", "153903.287500", "153904.777500", "153906.267500", "153907.757500", "153909.247500", "153910.737500", "153912.227500", "153913.717500", "153915.207500", "153916.697500", "153918.187500", "153919.677500", "153921.167500", "153922.657500", "153924.147500", "153925.637500", "153927.127500", "153928.617500", "153930.107500", "153931.597500", "153933.087500", "153934.577500", "153936.067500", "153937.557500", "153939.047500", "153940.537500", "153942.027500", "153943.517500", "153945.007500", "153946.497500", "153947.987500", "153949.477500", "153950.967500", "153952.457500", "153953.947500", "153955.437500", "153956.927500", "153958.417500", "153959.907500", "154001.397500", "154002.887500", "154004.377500", "154005.867500", "154007.357500", "154008.847500", "154010.337500", "154011.827500", "154013.317500", "154014.807500", "154016.297500", "154017.787500", "154019.277500", "154020.767500", "154022.257500", "154023.747500", "154025.237500", "154026.727500", "154028.217500", "154029.707500", "154031.197500", "154032.687500", "154034.177500", "154035.667500", "154037.157500", "154038.647500", "154040.137500", "154041.627500", "154043.117500", "154044.607500", "154046.097500", "154047.587500", "154049.077500", "154050.567500", "154052.057500", "154053.547500", "154055.037500", "154056.527500", "154058.017500", "154059.507500", "154100.997500", "154102.487500", "154103.977500", "154105.467500", "154106.957500", "154108.447500", "154109.937500", "154111.427500", "154112.917500", "154114.407500", "154115.897500", "154117.387500", "154118.877500", "154120.367500", "154121.857500", "154123.347500", "154124.837500", "154126.327500", "154127.817500", "154129.307500", "154130.797500", "154132.287500", "154133.777500", "154135.267500", "154136.757500", "154138.247500", "154139.737500", "154141.227500", "154142.717500", "154144.207500", "154145.697500", "154147.187500", "154148.677500", "154150.167500", "154151.657500", "154153.147500", "154154.637500", "154156.127500", "154157.617500", "154159.107500", "154200.597500", "154202.087500", "154203.577500", "154205.067500", "154206.557500", "154208.047500", "154209.537500", "154211.027500", "154212.517500", "154214.007500", "154215.497500", "154216.987500", "154218.477500", "154219.967500", "154221.457500", "154222.947500", "154224.437500", "154225.927500", "154227.417500", "154228.907500", "154230.397500", "154231.887500", "154233.377500", "154234.867500", "154236.357500", "154237.847500", "154239.337500", "154240.827500", "154242.317500", "154243.807500", "154245.297500", "154246.787500", "154248.277500", "154249.767500", "154251.257500", "154252.747500", "154254.237500", "154255.727500", "154257.217500", "154258.707500", "154300.197500", "154301.687500", "154303.177500", "154304.667500", "154306.157500", "154307.647500", "154309.137500", "154310.627500", "154312.117500", "154313.607500", "154315.097500", "154316.587500", "154318.077500", "154319.567500", "154321.057500", "154322.547500", "154324.037500", "154325.527500", "154327.017500", "154328.507500", "154329.997500", "154331.487500", "154332.977500", "154334.467500", "154335.957500", "154337.447500", "154338.937500", "154340.427500", "154341.917500", "154343.407500", "154344.897500", "154346.387500", "154347.877500", "154349.367500", "154350.857500", "154352.347500", "154353.837500", "154355.327500", "154356.817500", "154358.307500", "154359.797500", "154401.287500", "154402.777500", "154404.267500", "154405.757500", "154407.247500", "154408.737500", "154410.227500", "154411.717500", "154413.207500", "154414.697500", "154416.187500", "154417.677500", "154419.167500", "154420.657500", "154422.147500", "154423.637500", "154425.127500", "154426.617500", "154428.107500", "154429.597500", "154431.087500", "154432.577500", "154434.067500", "154435.557500", "154437.047500", "154438.537500", "154440.027500", "154441.517500", "154443.007500", "154444.497500", "154445.987500", "154447.477500", "154448.967500", "154450.457500", "154451.947500", "154453.437500", "154454.927500", "154456.417500", "154457.907500", "154459.397500", "154500.887500", "154502.377500", "154503.867500", "154505.357500", "154506.847500", "154508.337500", "154509.827500", "154511.317500", "154512.807500", "154514.297500", "154515.787500", "154517.277500", "154518.767500", "154520.257500", "154521.747500", "154523.237500", "154524.727500", "154526.217500", "154527.707500", "154529.197500", "154530.687500", "154532.177500"],
      "ContentTime": ["153607.418000", "153607.421000", "153607.423000", "153607.426000", "153607.428000", "153607.431000", "153607.433000", "153607.436000", "153607.438000", "153607.441000", "153607.443000", "153607.446000", "153607.448000", "153607.451000", "153607.454000", "153607.456000", "153607.459000", "153607.461000", "153607.464000", "153607.466000", "153607.469000", "153607.471000", "153607.474000", "153607.476000", "153607.479000", "153607.482000", "153607.484000", "153607.487000", "153607.489000", "153607.492000", "153607.494000", "153607.497000", "153607.499000", "153607.502000", "153607.511000", "153607.513000", "153607.516000", "153607.518000", "153607.521000", "153627.284000", "153627.287000", "153627.289000", "153627.299000", "153627.302000", "153627.305000", "153627.307000", "153627.310000", "153627.312000", "153627.315000", "153627.317000", "153627.320000", "153627.322000", "153627.325000", "153627.327000", "153627.330000", "153627.333000", "153627.335000", "153627.338000", "153627.340000", "153648.064000", "153648.067000", "153648.070000", "153648.072000", "153648.075000", "153648.078000", "153648.080000", "153648.083000", "153648.085000", "153648.088000", "153648.090000", "153648.093000", "153648.095000", "153648.098000", "153648.100000", "153648.103000", "153648.106000", "153648.108000", "153648.111000", "153648.113000", "153707.317000", "153707.320000", "153707.322000", "153707.325000", "153707.327000", "153707.330000", "153707.332000", "153707.335000", "153707.337000", "153707.340000", "153707.342000", "153707.345000", "153707.347000", "153707.350000", "153707.352000", "153707.355000", "153707.358000", "153707.361000", "153707.364000", "153707.366000", "153707.369000", "153747.326000", "153747.328000", "153747.331000", "153747.333000", "153747.336000", "153747.339000", "153747.341000", "153747.344000", "153747.346000", "153747.349000", "153747.351000", "153747.354000", "153747.356000", "153747.359000", "153747.361000", "153747.364000", "153747.367000", "153747.369000", "153747.372000", "153747.374000", "153747.381000", "153747.383000", "153747.386000", "153747.389000", "153747.391000", "153747.394000", "153747.396000", "153747.399000", "153827.321000", "153827.324000", "153827.327000", "153827.329000", "153827.332000", "153827.334000", "153827.337000", "153827.340000", "153827.342000", "153827.345000", "153827.347000", "153827.350000", "153827.352000", "153827.355000", "153827.357000", "153827.360000", "153827.362000", "153827.365000", "153827.368000", "153827.370000", "153827.373000", "153827.375000", "153827.378000", "153827.380000", "153827.383000", "153827.385000", "153827.388000", "153907.316000", "153907.319000", "153907.322000", "153907.324000", "153907.327000", "153907.329000", "153907.332000", "153907.334000", "153907.337000", "153907.339000", "153907.342000", "153907.345000", "153907.347000", "153907.350000", "153907.352000", "153907.355000", "153907.357000", "153907.360000", "153907.362000", "153907.365000", "153907.368000", "153907.370000", "153907.373000", "153907.375000", "153907.378000", "153907.380000", "153907.383000", "153947.364000", "153947.367000", "153947.370000", "153947.372000", "153947.375000", "153947.378000", "153947.380000", "153947.383000", "153947.385000", "153947.388000", "153947.390000", "153947.393000", "153947.396000", "153947.398000", "153947.401000", "153947.403000", "153947.406000", "153947.408000", "153947.411000", "153947.414000", "153947.416000", "153947.419000", "153947.421000", "153947.424000", "153947.427000", "153947.429000", "154027.315000", "154027.318000", "154027.321000", "154027.323000", "154027.326000", "154027.328000", "154027.331000", "154027.333000", "154027.336000", "154027.338000", "154027.341000", "154027.343000", "154027.346000", "154027.349000", "154027.351000", "154027.354000", "154027.356000", "154027.359000", "154027.361000", "154027.364000", "154027.366000", "154027.369000", "154027.372000", "154027.374000", "154027.377000", "154027.379000", "154027.382000", "154107.334000", "154107.337000", "154107.340000", "154107.342000", "154107.345000", "154107.348000", "154107.350000", "154107.353000", "154107.355000", "154107.358000", "154107.360000", "154107.363000", "154107.365000", "154107.368000", "154107.371000", "154107.373000", "154107.376000", "154107.378000", "154107.381000", "154107.383000", "154107.386000", "154107.388000", "154107.391000", "154107.393000", "154107.396000", "154107.398000", "154107.401000", "154147.332000", "154147.335000", "154147.337000", "154147.340000", "154147.342000", "154147.345000", "154147.348000", "154147.350000", "154147.353000", "154147.355000", "154147.358000", "154147.360000", "154147.363000", "154147.366000", "154147.368000", "154147.371000", "154147.373000", "154147.376000", "154147.378000", "154147.381000", "154147.383000", "154147.386000", "154147.389000", "154147.391000", "154147.394000", "154147.396000", "154147.399000", "154227.323000", "154227.325000", "154227.328000", "154227.330000", "154227.333000", "154227.336000", "154227.338000", "154227.341000", "154227.343000", "154227.346000", "154227.348000", "154227.351000", "154227.354000", "154227.356000", "154227.359000", "154227.361000", "154227.364000", "154227.366000", "154227.369000", "154227.371000", "154227.374000", "154227.376000", "154227.379000", "154227.382000", "154227.384000", "154227.387000", "154227.389000", "154307.313000", "154307.316000", "154307.319000", "154307.321000", "154307.324000", "154307.326000", "154307.329000", "154307.331000", "154307.334000", "154307.337000", "154307.339000", "154307.342000", "154307.344000", "154307.347000", "154307.349000", "154307.352000", "154307.354000", "154307.357000", "154307.360000", "154307.362000", "154307.365000", "154307.367000", "154307.370000", "154307.372000", "154307.375000", "154307.378000", "154307.380000", "154347.339000", "154347.341000", "154347.344000", "154347.346000", "154347.349000", "154347.352000", "154347.354000", "154347.357000", "154347.359000", "154347.362000", "154347.364000", "154347.367000", "154347.370000", "154347.372000", "154347.375000", "154347.377000", "154347.380000", "154347.383000", "154347.385000", "154347.388000", "154347.390000", "154347.393000", "154347.395000", "154347.398000", "154347.401000", "154347.403000", "154427.348000", "154427.351000", "154427.353000", "154427.356000", "154427.358000", "154427.361000", "154427.364000", "154427.366000", "154427.369000", "154427.371000", "154427.374000", "154427.376000", "154427.379000", "154427.381000", "154427.384000", "154427.386000", "154427.389000", "154427.391000", "154427.394000", "154427.397000", "154427.399000", "154427.402000", "154427.404000", "154427.407000", "154427.410000", "154427.414000", "154427.417000", "154507.316000", "154507.319000", "154507.321000", "154507.324000", "154507.327000", "154507.329000", "154507.332000", "154507.334000", "154507.337000", "154507.339000", "154507.342000", "154507.345000", "154507.347000", "154507.350000", "154507.352000", "154507.355000", "154507.357000", "154507.360000", "154507.363000", "154507.365000", "154507.368000", "154507.370000", "154507.373000", "154507.375000", "154507.378000", "154507.381000", "154507.383000", "154535.768000", "154535.771000", "154535.774000", "154535.776000", "154535.779000", "154535.782000", "154535.784000", "154535.787000", "154535.789000", "154535.792000", "154535.794000", "154535.797000", "154535.800000", "154535.802000", "154535.805000", "154535.807000", "154535.810000", "154535.812000", "154535.815000"],
