{
  "AcquisitionMatrixPE": 104,
  "AcquisitionNumber": 1,
  "AcquisitionTime": "15:47:0.030000",
  "BandwidthPerPixelPhaseEncode": 17.17,
  "BaseResolution": 104,
  "BodyPartExamined": "BRAIN",
  "CoilCombinationMethod": "Sum of Squares",
  "ConsistencyInfo": "N4_VE11C_LATEST_20160120",
  "ConversionSoftware": "dcm2niix",
  "ConversionSoftwareVersion": "v1.0.20211006",
  "DerivedVendorReportedEchoSpacing": 0.000560011,
  "DeviceSerialNumber": "167006",
  "DwellTime": 2.1e-06,
  "EchoTime": 0.037,
  "EchoTrainLength": 104,
  "EffectiveEchoSpacing": 0.000560011,
  "FlipAngle": 52,
  "HeudiconvVersion": "0.11.3.post9+gc939bf8",
  "ImageComments": "Unaliased MB4/PE3/LB",
  "ImageOrientationPatientDICOM": [0.999484, -0.0316117, 0.00575126, 0.0315847, 0.933776, -0.35646],
  "ImageOrientationText": "Tra>Cor(-20.9)>Sag(-0.3)",
  "ImageType": [
    "ORIGINAL",
    "PRIMARY",
    "M",
    "MB",
    "ND",
    "MOSAIC"
],
  "ImagingFrequency": 123.259,
  "InPlanePhaseEncodingDirectionDICOM": "COL",
  "InstitutionAddress": "Chemin Queen-Mary 4565,Montreal,District,CA,H3W 1W5",
  "InstitutionName": "IUGM",
  "InstitutionalDepartmentName": "Department",
  "MRAcquisitionType": "2D",
  "MagneticFieldStrength": 3,
  "Manufacturer": "Siemens",
  "ManufacturersModelName": "Prisma_fit",
  "MatrixCoilMode": "SENSE",
  "Modality": "MR",
  "MultibandAccelerationFactor": 4,
  "PartialFourier": 1,
  "PatientPosition": "HFS",
  "PercentPhaseFOV": 100,
  "PercentSampling": 100,
  "PhaseEncodingDirection": "j",
  "PhaseEncodingSteps": 104,
  "PhaseResolution": 1,
  "PixelBandwidth": 2290,
  "ProcedureStepDescription": "games^mariostars",
  "ProtocolName": "func_task-mariostars_run-02",
  "PulseSequenceDetails": "%CustomerSeq%\\cmrr_mbep2d_bold",
  "ReceiveCoilActiveElements": "HC1-7;NC1,2",
  "ReceiveCoilName": "HeadNeck_64",
  "ReconMatrixPE": 104,
  "RepetitionTime": 1.49,
  "SAR": 0.0325322,
  "ScanOptions": "FS",
  "ScanningSequence": "EP",
  "SequenceName": "epfid2d1_104",
  "SequenceVariant": "SK\\SS",
  "SeriesDescription": "func_task-mariostars_run-02",
  "SeriesNumber": 14,
  "ShimSetting": [619, -7250, -8823, 557, 9, -195, -94, -9],
  "SliceThickness": 2,
  "SliceTiming": [0, 0.7825, 0.0975, 0.8825, 0.195, 0.98, 0.2925, 1.0775, 0.3925, 1.175, 0.49, 1.2725, 0.5875, 1.3725, 0.685, 0, 0.7825, 0.0975, 0.8825, 0.195, 0.98, 0.2925, 1.0775, 0.3925, 1.175, 0.49, 1.2725, 0.5875, 1.3725, 0.685, 0, 0.7825, 0.0975, 0.8825, 0.195, 0.98, 0.2925, 1.0775, 0.3925, 1.175, 0.49, 1.2725, 0.5875, 1.3725, 0.685, 0, 0.7825, 0.0975, 0.8825, 0.195, 0.98, 0.2925, 1.0775, 0.3925, 1.175, 0.49, 1.2725, 0.5875, 1.3725, 0.685],
  "SoftwareVersions": "syngo MR E11",
  "SpacingBetweenSlices": 2,
  "StationName": "MRC35049",
  "TaskName": "mariostars",
  "TotalReadoutTime": 0.0576811,
  "TxRefAmp": 222.854,
  "WipMemBlock": "77a4573a-c841-492a-a247-53ce3b8ffc81||Sequence: R016 ve11c/master r/e634e98; Dec 19 2017 11:00:25 by eja",
  "dcmmeta_affine": [
    [-1.9989674091339111, 0.06316936761140823, -0.01179585698992014, 103.3826675415039],
    [0.06322343647480011, 1.8675529956817627, -0.7129157185554504, -66.27283477783203],
    [0.0115025220438838, 0.7129204869270325, 1.8685855865478516, -67.9195785522461],
    [0.0, 0.0, 0.0, 1.0]
],
  "dcmmeta_reorient_transform": [
    [0.0, -1.0, 0.0, 103.0],
    [1.0, 0.0, 0.0, 0.0],
    [0.0, 0.0, 1.0, 0.0],
    [0.0, 0.0, 0.0, 1.0]
],
  "dcmmeta_shape": [104, 104, 60, 498],
  "dcmmeta_slice_dim": 2,
  "dcmmeta_version": 0.6,
  "global": {
    "const": {
      "AcquisitionMatrix": [104, 0, 0, 104],
      "AngioFlag": "N",
      "BitsAllocated": 16,
      "BitsStored": 16,
      "BodyPartExamined": "BRAIN",
      "Columns": 832,
      "EchoNumbers": 1,
      "EchoTime": 37.0,
      "EchoTrainLength": 104,
      "FlipAngle": 52.0,
      "HighBit": 15,
      "ImageOrientationPatient": [0.99948367785231, -0.0316117178064, 0.00575126109281, 0.03158468213288, 0.9337764708591, -0.3564602506935],
      "ImagePositionPatient": [-860.50687550004, -782.86105760263, 260.82737972928],
      "ImageType": [
        "ORIGINAL",
        "PRIMARY",
        "M",
        "MB",
        "ND",
        "MOSAIC"
],
      "ImagedNucleus": "1H",
      "ImagingFrequency": 123.258793,
      "InPlanePhaseEncodingDirection": "COL",
      "MRAcquisitionType": "2D",
      "MagneticFieldStrength": 3.0,
      "Manufacturer": "SIEMENS",
      "ManufacturerModelName": "Prisma_fit",
      "Modality": "MR",
      "NumberOfAverages": 1.0,
      "NumberOfPhaseEncodingSteps": 104,
      "PercentPhaseFieldOfView": 100.0,
      "PercentSampling": 100.0,
      "PerformedProcedureStepStartTime": "143822.129000",
      "PhotometricInterpretation": "MONOCHROME2",
      "PixelBandwidth": 2290.0,
      "PixelRepresentation": 0,
      "PixelSpacing": [2.0, 2.0],
      "ProtocolName": "func_task-mariostars_run-02",
      "RepetitionTime": 1490.0,
      "Rows": 832,
      "SAR": 0.03253216711511,
      "SamplesPerPixel": 1,
      "ScanOptions": "FS",
      "ScanningSequence": "EP",
      "SequenceName": "epfid2d1_104",
      "SequenceVariant": [
        "SK",
        "SS"
],
      "SeriesDescription": "func_task-mariostars_run-02",
      "SeriesNumber": 14,
      "SeriesTime": "154832.437000",
      "SliceLocation": -40.443041105592,
      "SliceThickness": 2.0,
      "SmallestImagePixelValue": 0,
      "SoftwareVersions": "syngo MR E11",
      "SpacingBetweenSlices": 1.9999999948018,
      "SpecificCharacterSet": "ISO_IR 100",
      "StudyID": "1",
      "StudyTime": "143822.053000",
      "TransmitCoilName": "Body",
      "VariableFlipAngleFlag": "N",
      "WindowCenterWidthExplanation": "Algo1",
      "dBdt": 0.0},
    "slices": {}
  },
  "time": {
    "samples": {
      "AcquisitionNumber": [1, 2, 3, 4, 5, 6, 7, 8, 9, 10, 11, 12, 13, 14, 15, 16, 17, 18, 19, 20, 21, 22, 23, 24, 25, 26, 27, 28, 29, 30, 31, 32, 33, 34, 35, 36, 37, 38, 39, 40, 41, 42, 43, 44, 45, 46, 47, 48, 49, 50, 51, 52, 53, 54, 55, 56, 57, 58, 59, 60, 61, 62, 63, 64, 65, 66, 67, 68, 69, 70, 71, 72, 73, 74, 75, 76, 77, 78, 79, 80, 81, 82, 83, 84, 85, 86, 87, 88, 89, 90, 91, 92, 93, 94, 95, 96, 97, 98, 99, 100, 101, 102, 103, 104, 105, 106, 107, 108, 109, 110, 111, 112, 113, 114, 115, 116, 117, 118, 119, 120, 121, 122, 123, 124, 125, 126, 127, 128, 129, 130, 131, 132, 133, 134, 135, 136, 137, 138, 139, 140, 141, 142, 143, 144, 145, 146, 147, 148, 149, 150, 151, 152, 153, 154, 155, 156, 157, 158, 159, 160, 161, 162, 163, 164, 165, 166, 167, 168, 169, 170, 171, 172, 173, 174, 175, 176, 177, 178, 179, 180, 181, 182, 183, 184, 185, 186, 187, 188, 189, 190, 191, 192, 193, 194, 195, 196, 197, 198, 199, 200, 201, 202, 203, 204, 205, 206, 207, 208, 209, 210, 211, 212, 213, 214, 215, 216, 217, 218, 219, 220, 221, 222, 223, 224, 225, 226, 227, 228, 229, 230, 231, 232, 233, 234, 235, 236, 237, 238, 239, 240, 241, 242, 243, 244, 245, 246, 247, 248, 249, 250, 251, 252, 253, 254, 255, 256, 257, 258, 259, 260, 261, 262, 263, 264, 265, 266, 267, 268, 269, 270, 271, 272, 273, 274, 275, 276, 277, 278, 279, 280, 281, 282, 283, 284, 285, 286, 287, 288, 289, 290, 291, 292, 293, 294, 295, 296, 297, 298, 299, 300, 301, 302, 303, 304, 305, 306, 307, 308, 309, 310, 311, 312, 313, 314, 315, 316, 317, 318, 319, 320, 321, 322, 323, 324, 325, 326, 327, 328, 329, 330, 331, 332, 333, 334, 335, 336, 337, 338, 339, 340, 341, 342, 343, 344, 345, 346, 347, 348, 349, 350, 351, 352, 353, 354, 355, 356, 357, 358, 359, 360, 361, 362, 363, 364, 365, 366, 367, 368, 369, 370, 371, 372, 373, 374, 375, 376, 377, 378, 379, 380, 381, 382, 383, 384, 385, 386, 387, 388, 389, 390, 391, 392, 393, 394, 395, 396, 397, 398, 399, 400, 401, 402, 403, 404, 405, 406, 407, 408, 409, 410, 411, 412, 413, 414, 415, 416, 417, 418, 419, 420, 421, 422, 423, 424, 425, 426, 427, 428, 429, 430, 431, 432, 433, 434, 435, 436, 437, 438, 439, 440, 441, 442, 443, 444, 445, 446, 447, 448, 449, 450, 451, 452, 453, 454, 455, 456, 457, 458, 459, 460, 461, 462, 463, 464, 465, 466, 467, 468, 469, 470, 471, 472, 473, 474, 475, 476, 477, 478, 479, 480, 481, 482, 483, 484, 485, 486, 487, 488, 489, 490, 491, 492, 493, 494, 495, 496, 497, 498],
      "AcquisitionTime": ["154700.030000", "154701.520000", "154703.010000", "154704.500000", "154705.990000", "154707.480000", "154708.970000", "154710.460000", "154711.950000", "154713.440000", "154714.930000", "154716.420000", "154717.910000", "154719.400000", "154720.890000", "154722.380000", "154723.870000", "154725.360000", "154726.850000", "154728.340000", "154729.830000", "154731.320000", "154732.810000", "154734.300000", "154735.790000", "154737.280000", "154738.770000", "154740.260000", "154741.750000", "154743.240000", "154744.730000", "154746.220000", "154747.710000", "154749.200000", "154750.690000", "154752.180000", "154753.670000", "154755.160000", "154756.650000", "154758.140000", "154759.630000", "154801.120000", "154802.610000", "154804.100000", "154805.590000", "154807.080000", "154808.570000", "154810.060000", "154811.550000", "154813.040000", "154814.530000", "154816.020000", "154817.510000", "154819.000000", "154820.490000", "154821.980000", "154823.470000", "154824.960000", "154826.450000", "154827.940000", "154829.430000", "154830.920000", "154832.410000", "154833.900000", "154835.390000", "154836.880000", "154838.370000", "154839.860000", "154841.350000", "154842.840000", "154844.330000", "154845.820000", "154847.310000", "154848.800000", "154850.290000", "154851.780000", "154853.270000", "154854.760000", "154856.250000", "154857.740000", "154859.230000", "154900.720000", "154902.210000", "154903.700000", "154905.190000", "154906.680000", "154908.170000", "154909.660000", "154911.150000", "154912.640000", "154914.130000", "154915.620000", "154917.110000", "154918.600000", "154920.090000", "154921.580000", "154923.070000", "154924.560000", "154926.050000", "154927.540000", "154929.030000", "154930.520000", "154932.010000", "154933.500000", "154934.990000", "154936.480000", "154937.970000", "154939.460000", "154940.950000", "154942.440000", "154943.930000", "154945.420000", "154946.910000", "154948.400000", "154949.890000", "154951.380000", "154952.870000", "154954.360000", "154955.850000", "154957.340000", "154958.830000", "155000.320000", "155001.810000", "155003.300000", "155004.790000", "155006.280000", "155007.770000", "155009.260000", "155010.750000", "155012.240000", "155013.730000", "155015.220000", "155016.710000", "155018.200000", "155019.690000", "155021.180000", "155022.670000", "155024.160000", "155025.650000", "155027.140000", "155028.630000", "155030.120000", "155031.610000", "155033.100000", "155034.590000", "155036.080000", "155037.570000", "155039.060000", "155040.550000", "155042.040000", "155043.530000", "155045.020000", "155046.510000", "155048.000000", "155049.490000", "155050.980000", "155052.470000", "155053.960000", "155055.450000", "155056.940000", "155058.430000", "155059.920000", "155101.410000", "155102.900000", "155104.390000", "155105.880000", "155107.370000", "155108.860000", "155110.350000", "155111.840000", "155113.330000", "155114.820000", "155116.310000", "155117.800000", "155119.290000", "155120.780000", "155122.270000", "155123.760000", "155125.250000", "155126.740000", "155128.230000", "155129.720000", "155131.210000", "155132.700000", "155134.190000", "155135.680000", "155137.170000", "155138.660000", "155140.150000", "155141.640000", "155143.130000", "155144.620000", "155146.110000", "155147.600000", "155149.090000", "155150.580000", "155152.070000", "155153.560000", "155155.050000", "155156.540000", "155158.030000", "155159.520000", "155201.010000", "155202.500000", "155203.990000", "155205.480000", "155206.970000", "155208.460000", "155209.950000", "155211.440000", "155212.930000", "155214.420000", "155215.910000", "155217.400000", "155218.890000", "155220.380000", "155221.870000", "155223.360000", "155224.850000", "155226.340000", "155227.830000", "155229.320000", "155230.810000", "155232.300000", "155233.790000", "155235.280000", "155236.770000", "155238.260000", "155239.750000", "155241.240000", "155242.730000", "155244.220000", "155245.710000", "155247.200000", "155248.690000", "155250.180000", "155251.670000", "155253.160000", "155254.650000", "155256.140000", "155257.630000", "155259.120000", "155300.610000", "155302.100000", "155303.590000", "155305.080000", "155306.570000", "155308.060000", "155309.550000", "155311.040000", "155312.530000", "155314.020000", "155315.510000", "155317.000000", "155318.490000", "155319.980000", "155321.470000", "155322.960000", "155324.450000", "155325.940000", "155327.430000", "155328.920000", "155330.410000", "155331.900000", "155333.390000", "155334.880000", "155336.370000", "155337.860000", "155339.350000", "155340.840000", "155342.330000", "155343.820000", "155345.310000", "155346.800000", "155348.290000", "155349.780000", "155351.270000", "155352.760000", "155354.250000", "155355.740000", "155357.230000", "155358.720000", "155400.210000", "155401.700000", "155403.190000", "155404.680000", "155406.170000", "155407.660000", "155409.150000", "155410.640000", "155412.130000", "155413.620000", "155415.110000", "155416.600000", "155418.090000", "155419.580000", "155421.070000", "155422.560000", "155424.050000", "155425.540000", "155427.030000", "155428.520000", "155430.010000", "155431.500000", "155432.990000", "155434.480000", "155435.970000", "155437.460000", "155438.950000", "155440.440000", "155441.930000", "155443.420000", "155444.910000", "155446.400000", "155447.890000", "155449.380000", "155450.870000", "155452.360000", "155453.850000", "155455.340000", "155456.830000", "155458.320000", "155459.810000", "155501.300000", "155502.790000", "155504.280000", "155505.770000", "155507.260000", "155508.750000", "155510.240000", "155511.730000", "155513.220000", "155514.710000", "155516.200000", "155517.690000", "155519.180000", "155520.670000", "155522.160000", "155523.650000", "155525.140000", "155526.630000", "155528.120000", "155529.610000", "155531.100000", "155532.590000", "155534.080000", "155535.570000", "155537.060000", "155538.550000", "155540.040000", "155541.530000", "155543.020000", "155544.510000", "155546.000000", "155547.490000", "155548.980000", "155550.470000", "155551.960000", "155553.450000", "155554.940000", "155556.430000", "155557.920000", "155559.410000", "155600.900000", "155602.390000", "155603.880000", "155605.370000", "155606.860000", "155608.350000", "155609.840000", "155611.330000", "155612.820000", "155614.310000", "155615.800000", "155617.290000", "155618.780000", "155620.270000", "155621.760000", "155623.250000", "155624.740000", "155626.230000", "155627.720000", "155629.210000", "155630.700000", "155632.190000", "155633.680000", "155635.170000", "155636.660000", "155638.150000", "155639.640000", "155641.130000", "155642.620000", "155644.110000", "155645.600000", "155647.090000", "155648.580000", "155650.070000", "155651.560000", "155653.050000", "155654.540000", "155656.030000", "155657.520000", "155659.010000", "155700.500000", "155701.990000", "155703.480000", "155704.970000", "155706.460000", "155707.950000", "155709.440000", "155710.930000", "155712.420000", "155713.910000", "155715.400000", "155716.890000", "155718.380000", "155719.870000", "155721.360000", "155722.850000", "155724.340000", "155725.830000", "155727.320000", "155728.810000", "155730.300000", "155731.790000", "155733.280000", "155734.770000", "155736.260000", "155737.750000", "155739.240000", "155740.730000", "155742.220000", "155743.710000", "155745.200000", "155746.690000", "155748.180000", "155749.670000", "155751.160000", "155752.650000", "155754.140000", "155755.630000", "155757.120000", "155758.610000", "155800.100000", "155801.590000", "155803.080000", "155804.570000", "155806.060000", "155807.550000", "155809.040000", "155810.530000", "155812.020000", "155813.510000", "155815.000000", "155816.490000", "155817.980000", "155819.470000", "155820.960000", "155822.450000", "155823.940000", "155825.430000", "155826.920000", "155828.410000", "155829.900000", "155831.390000", "155832.880000", "155834.370000", "155835.860000", "155837.350000", "155838.840000", "155840.330000", "155841.820000", "155843.310000", "155844.800000", "155846.290000", "155847.780000", "155849.270000", "155850.760000", "155852.250000", "155853.740000", "155855.230000", "155856.720000", "155858.210000", "155859.700000", "155901.190000", "155902.680000", "155904.170000", "155905.660000", "155907.150000", "155908.640000", "155910.130000", "155911.620000", "155913.110000", "155914.600000", "155916.090000", "155917.580000", "155919.070000", "155920.560000"],
      "ContentTime": ["154832.440000", "154832.444000", "154832.447000", "154832.451000", "154832.454000", "154832.457000", "154832.468000", "154832.472000", "154832.475000", "154832.479000", "154832.484000", "154832.487000", "154832.491000", "154832.495000", "154832.499000", "154832.503000", "154832.506000", "154832.532000", "154832.535000", "154832.539000", "154832.542000", "154832.546000", "154832.549000", "154832.552000", "154832.556000", "154832.559000", "154832.563000", "154832.566000", "154832.570000", "154832.573000", "154832.576000", "154832.580000", "154832.583000", "154832.587000", "154832.590000", "154832.593000", "154832.597000", "154852.400000", "154852.404000", "154852.408000", "154852.411000", "154852.414000", "154852.418000", "154852.421000", "154852.425000", "154852.428000", "154852.432000", "154852.435000", "154852.439000", "154852.442000", "154852.445000", "154852.449000", "154852.452000", "154852.459000", "154852.463000", "154852.466000", "154852.469000", "154852.473000", "154912.399000", "154912.403000", "154912.406000", "154912.410000", "154912.413000", "154912.417000", "154912.420000", "154912.424000", "154912.427000", "154912.430000", "154912.434000", "154912.437000", "154912.441000", "154912.444000", "154912.448000", "154912.451000", "154912.455000", "154912.458000", "154912.461000", "154912.465000", "154932.399000", "154932.403000", "154932.406000", "154932.410000", "154932.413000", "154932.417000", "154932.420000", "154932.424000", "154932.427000", "154932.430000", "154932.434000", "154932.437000", "154932.441000", "154932.444000", "154932.448000", "154932.451000", "154932.455000", "154932.458000", "154932.461000", "154932.465000", "155012.399000", "155012.403000", "155012.407000", "155012.410000", "155012.413000", "155012.417000", "155012.420000", "155012.424000", "155012.427000", "155012.431000", "155012.434000", "155012.437000", "155012.441000", "155012.463000", "155012.466000", "155012.470000", "155012.473000", "155012.477000", "155012.480000", "155012.484000", "155012.487000", "155012.491000", "155012.494000", "155012.498000", "155012.501000", "155012.504000", "155012.508000", "155012.511000", "155012.515000", "155012.518000", "155052.400000", "155052.404000", "155052.408000", "155052.411000", "155052.414000", "155052.419000", "155052.422000", "155052.426000", "155052.429000", "155052.433000", "155052.436000", "155052.440000", "155052.443000", "155052.446000", "155052.450000", "155052.453000", "155052.457000", "155052.460000", "155052.464000", "155052.467000", "155052.470000", "155052.474000", "155052.477000", "155052.481000", "155052.484000", "155052.487000", "155052.491000", "155132.399000", "155132.403000", "155132.407000", "155132.410000", "155132.413000", "155132.417000", "155132.420000", "155132.424000", "155132.427000", "155132.431000", "155132.434000", "155132.438000", "155132.441000", "155132.444000", "155132.448000", "155132.451000", "155132.455000", "155132.458000", "155132.462000", "155132.465000", "155132.468000", "155132.472000", "155132.475000", "155132.479000", "155132.482000", "155132.486000", "155132.489000", "155212.399000", "155212.403000", "155212.406000", "155212.410000", "155212.413000", "155212.417000", "155212.420000", "155212.424000", "155212.427000", "155212.431000", "155212.434000", "155212.438000", "155212.441000", "155212.445000", "155212.448000", "155212.451000", "155212.455000", "155212.458000", "155212.467000", "155212.470000", "155212.474000", "155212.485000", "155212.489000", "155212.492000", "155212.496000", "155212.499000", "155212.502000", "155252.400000", "155252.404000", "155252.408000", "155252.411000", "155252.414000", "155252.418000", "155252.421000", "155252.425000", "155252.428000", "155252.432000", "155252.435000", "155252.438000", "155252.442000", "155252.445000", "155252.449000", "155252.453000", "155252.456000", "155252.460000", "155252.463000", "155252.466000", "155252.470000", "155252.473000", "155252.477000", "155252.480000", "155252.484000", "155252.487000", "155332.400000", "155332.404000", "155332.407000", "155332.411000", "155332.414000", "155332.418000", "155332.421000", "155332.425000", "155332.428000", "155332.432000", "155332.435000", "155332.439000", "155332.442000", "155332.446000", "155332.449000", "155332.452000", "155332.456000", "155332.459000", "155332.463000", "155332.466000", "155332.470000", "155332.473000", "155332.476000", "155332.480000", "155332.483000", "155332.487000", "155332.490000", "155412.400000", "155412.403000", "155412.407000", "155412.410000", "155412.414000", "155412.418000", "155412.421000", "155412.425000", "155412.428000", "155412.432000", "155412.435000", "155412.439000", "155412.442000", "155412.446000", "155412.449000", "155412.452000", "155412.456000", "155412.459000", "155412.463000", "155412.466000", "155412.470000", "155412.473000", "155412.477000", "155412.480000", "155412.484000", "155412.487000", "155412.490000", "155452.399000", "155452.403000", "155452.407000", "155452.420000", "155452.424000", "155452.427000", "155452.431000", "155452.434000", "155452.438000", "155452.441000", "155452.445000", "155452.448000", "155452.451000", "155452.455000", "155452.458000", "155452.462000", "155452.465000", "155452.469000", "155452.472000", "155452.476000", "155452.479000", "155452.483000", "155452.486000", "155452.489000", "155452.499000", "155452.503000", "155452.506000", "155532.400000", "155532.404000", "155532.408000", "155532.411000", "155532.414000", "155532.418000", "155532.421000", "155532.425000", "155532.428000", "155532.432000", "155532.435000", "155532.439000", "155532.442000", "155532.445000", "155532.449000", "155532.452000", "155532.456000", "155532.459000", "155532.463000", "155532.466000", "155532.469000", "155532.473000", "155532.476000", "155532.480000", "155532.483000", "155532.487000", "155532.490000", "155612.400000", "155612.403000", "155612.407000", "155612.410000", "155612.414000", "155612.417000", "155612.421000", "155612.424000", "155612.428000", "155612.431000", "155612.434000", "155612.438000", "155612.441000", "155612.445000", "155612.448000", "155612.452000", "155612.455000", "155612.459000", "155612.462000", "155612.465000", "155612.469000", "155612.472000", "155612.476000", "155612.479000", "155612.483000", "155612.486000", "155612.490000", "155652.400000", "155652.403000", "155652.407000", "155652.410000", "155652.414000", "155652.418000", "155652.422000", "155652.426000", "155652.429000", "155652.434000", "155652.437000", "155652.441000", "155652.444000", "155652.447000", "155652.462000", "155652.466000", "155652.469000", "155652.473000", "155652.476000", "155652.479000", "155652.483000", "155652.486000", "155652.490000", "155652.493000", "155652.497000", "155652.500000", "155732.400000", "155732.404000", "155732.408000", "155732.411000", "155732.414000", "155732.418000", "155732.421000", "155732.425000", "155732.428000", "155732.432000", "155732.435000", "155732.438000", "155732.442000", "155732.445000", "155732.449000", "155732.452000", "155732.456000", "155732.459000", "155732.462000", "155732.466000", "155732.469000", "155732.473000", "155732.476000", "155732.480000", "155732.483000", "155732.487000", "155732.490000", "155812.400000", "155812.404000", "155812.408000", "155812.411000", "155812.414000", "155812.418000", "155812.421000", "155812.425000", "155812.428000", "155812.432000", "155812.435000", "155812.439000", "155812.442000", "155812.446000", "155812.449000", "155812.452000", "155812.456000", "155812.459000", "155812.463000", "155812.466000", "155812.470000", "155812.473000", "155812.477000", "155812.480000", "155812.483000", "155812.487000", "155812.490000", "155852.399000", "155852.403000", "155852.406000", "155852.410000", "155852.413000", "155852.417000", "155852.420000", "155852.424000", "155852.427000", "155852.431000", "155852.434000", "155852.438000", "155852.441000", "155852.445000", "155852.448000", "155852.451000", "155852.455000", "155852.458000", "155852.462000", "155852.465000", "155852.483000", "155852.486000", "155852.490000", "155852.493000", "155852.497000", "155852.500000", "155852.503000", "155923.712000", "155923.716000", "155923.720000", "155923.723000", "155923.727000", "155923.730000", "155923.734000", "155923.737000", "155923.741000", "155923.744000", "155923.748000", "155923.752000", "155923.755000", "155923.759000", "155923.762000", "155923.766000", "155923.770000", "155923.773000", "155923.777000", "155923.780000", "155923.784000"],
