{
  "AcquisitionMatrixPE": 104,
  "AcquisitionNumber": 1,
  "AcquisitionTime": "15:34:35.087500",
  "BandwidthPerPixelPhaseEncode": 17.17,
  "BaseResolution": 104,
  "BodyPartExamined": "BRAIN",
  "CoilCombinationMethod": "Sum of Squares",
  "ConsistencyInfo": "N4_VE11C_LATEST_20160120",
  "ConversionSoftware": "dcm2niix",
  "ConversionSoftwareVersion": "v1.0.20211006",
  "DerivedVendorReportedEchoSpacing": 0.000560011,
  "DeviceSerialNumber": "167006",
  "DwellTime": 2.1e-06,
  "EchoTime": 0.037,
  "EchoTrainLength": 104,
  "EffectiveEchoSpacing": 0.000560011,
  "FlipAngle": 52,
  "HeudiconvVersion": "0.11.3.post9+gc939bf8",
  "ImageComments": "Unaliased MB4/PE3/LB",
  "ImageOrientationPatientDICOM": [0.999484, -0.0316117, 0.00575126, 0.0315847, 0.933776, -0.35646],
  "ImageOrientationText": "Tra>Cor(-20.9)>Sag(-0.3)",
  "ImageType": [
    "ORIGINAL",
    "PRIMARY",
    "M",
    "MB",
    "ND",
    "MOSAIC"
],
  "ImagingFrequency": 123.259,
  "InPlanePhaseEncodingDirectionDICOM": "COL",
  "InstitutionAddress": "Chemin Queen-Mary 4565,Montreal,District,CA,H3W 1W5",
  "InstitutionName": "IUGM",
  "InstitutionalDepartmentName": "Department",
  "MRAcquisitionType": "2D",
  "MagneticFieldStrength": 3,
  "Manufacturer": "Siemens",
  "ManufacturersModelName": "Prisma_fit",
  "MatrixCoilMode": "SENSE",
  "Modality": "MR",
  "MultibandAccelerationFactor": 4,
  "PartialFourier": 1,
  "PatientPosition": "HFS",
  "PercentPhaseFOV": 100,
  "PercentSampling": 100,
  "PhaseEncodingDirection": "j",
  "PhaseEncodingSteps": 104,
  "PhaseResolution": 1,
  "PixelBandwidth": 2290,
  "ProcedureStepDescription": "games^mariostars",
  "ProtocolName": "func_task-mariostars_run-01",
  "PulseSequenceDetails": "%CustomerSeq%\\cmrr_mbep2d_bold",
  "ReceiveCoilActiveElements": "HC1-7;NC1,2",
  "ReceiveCoilName": "HeadNeck_64",
  "ReconMatrixPE": 104,
  "RepetitionTime": 1.49,
  "SAR": 0.0325322,
  "ScanOptions": "FS",
  "ScanningSequence": "EP",
  "SequenceName": "epfid2d1_104",
  "SequenceVariant": "SK\\SS",
  "SeriesDescription": "func_task-mariostars_run-01",
  "SeriesNumber": 11,
  "ShimSetting": [619, -7250, -8823, 557, 9, -195, -94, -9],
  "SliceThickness": 2,
  "SliceTiming": [0, 0.7825, 0.0975, 0.8825, 0.195, 0.98, 0.2925, 1.0775, 0.3925, 1.175, 0.49, 1.2725, 0.5875, 1.3725, 0.685, 0, 0.7825, 0.0975, 0.8825, 0.195, 0.98, 0.2925, 1.0775, 0.3925, 1.175, 0.49, 1.2725, 0.5875, 1.3725, 0.685, 0, 0.7825, 0.0975, 0.8825, 0.195, 0.98, 0.2925, 1.0775, 0.3925, 1.175, 0.49, 1.2725, 0.5875, 1.3725, 0.685, 0, 0.7825, 0.0975, 0.8825, 0.195, 0.98, 0.2925, 1.0775, 0.3925, 1.175, 0.49, 1.2725, 0.5875, 1.3725, 0.685],
  "SoftwareVersions": "syngo MR E11",
  "SpacingBetweenSlices": 2,
  "StationName": "MRC35049",
  "TaskName": "mariostars",
  "TotalReadoutTime": 0.0576811,
  "TxRefAmp": 222.854,
  "WipMemBlock": "ba57f4d2-c692-4678-9686-a6878ec0b8ed||Sequence: R016 ve11c/master r/e634e98; Dec 19 2017 11:00:25 by eja",
  "dcmmeta_affine": [
    [-1.9989674091339111, 0.06316936761140823, -0.01179585698992014, 103.3826675415039],
    [0.06322343647480011, 1.8675529956817627, -0.7129157185554504, -66.27283477783203],
    [0.0115025220438838, 0.7129204869270325, 1.8685855865478516, -67.9195785522461],
    [0.0, 0.0, 0.0, 1.0]
],
  "dcmmeta_reorient_transform": [
    [0.0, -1.0, 0.0, 103.0],
    [1.0, 0.0, 0.0, 0.0],
    [0.0, 0.0, 1.0, 0.0],
    [0.0, 0.0, 0.0, 1.0]
],
  "dcmmeta_shape": [104, 104, 60, 442],
  "dcmmeta_slice_dim": 2,
  "dcmmeta_version": 0.6,
  "global": {
    "const": {
      "AcquisitionMatrix": [104, 0, 0, 104],
      "AngioFlag": "N",
      "BitsAllocated": 16,
      "BitsStored": 16,
      "BodyPartExamined": "BRAIN",
      "Columns": 832,
      "EchoNumbers": 1,
      "EchoTime": 37.0,
      "EchoTrainLength": 104,
      "FlipAngle": 52.0,
      "HighBit": 15,
      "ImageOrientationPatient": [0.99948367785231, -0.0316117178064, 0.00575126109281, 0.03158468213288, 0.9337764708591, -0.3564602506935],
      "ImagePositionPatient": [-860.50687550004, -782.86105760263, 260.82737972928],
      "ImageType": [
        "ORIGINAL",
        "PRIMARY",
        "M",
        "MB",
        "ND",
        "MOSAIC"
],
      "ImagedNucleus": "1H",
      "ImagingFrequency": 123.258784,
      "InPlanePhaseEncodingDirection": "COL",
      "MRAcquisitionType": "2D",
      "MagneticFieldStrength": 3.0,
      "Manufacturer": "SIEMENS",
      "ManufacturerModelName": "Prisma_fit",
      "Modality": "MR",
      "NumberOfAverages": 1.0,
      "NumberOfPhaseEncodingSteps": 104,
      "PercentPhaseFieldOfView": 100.0,
      "PercentSampling": 100.0,
      "PerformedProcedureStepStartTime": "143822.129000",
      "PhotometricInterpretation": "MONOCHROME2",
      "PixelBandwidth": 2290.0,
      "PixelRepresentation": 0,
      "PixelSpacing": [2.0, 2.0],
      "ProtocolName": "func_task-mariostars_run-01",
      "RepetitionTime": 1490.0,
      "Rows": 832,
      "SAR": 0.03253216711511,
      "SamplesPerPixel": 1,
      "ScanOptions": "FS",
      "ScanningSequence": "EP",
      "SequenceName": "epfid2d1_104",
      "SequenceVariant": [
        "SK",
        "SS"
],
      "SeriesDescription": "func_task-mariostars_run-01",
      "SeriesNumber": 11,
      "SeriesTime": "153607.216000",
      "SliceLocation": -40.443041105592,
      "SliceThickness": 2.0,
      "SmallestImagePixelValue": 0,
      "SoftwareVersions": "syngo MR E11",
      "SpacingBetweenSlices": 1.9999999948018,
      "SpecificCharacterSet": "ISO_IR 100",
      "StudyID": "1",
      "StudyTime": "143822.053000",
      "TransmitCoilName": "Body",
      "VariableFlipAngleFlag": "N",
      "WindowCenterWidthExplanation": "Algo1",
      "dBdt": 0.0},
    "slices": {}
  },
  "time": {
    "samples": {
      "AcquisitionNumber": [1, 2, 3, 4, 5, 6, 7, 8, 9, 10, 11, 12, 13, 14, 15, 16, 17, 18, 19, 20, 21, 22, 23, 24, 25, 26, 27, 28, 29, 30, 31, 32, 33, 34, 35, 36, 37, 38, 39, 40, 41, 42, 43, 44, 45, 46, 47, 48, 49, 50, 51, 52, 53, 54, 55, 56, 57, 58, 59, 60, 61, 62, 63, 64, 65, 66, 67, 68, 69, 70, 71, 72, 73, 74, 75, 76, 77, 78, 79, 80, 81, 82, 83, 84, 85, 86, 87, 88, 89, 90, 91, 92, 93, 94, 95, 96, 97, 98, 99, 100, 101, 102, 103, 104, 105, 106, 107, 108, 109, 110, 111, 112, 113, 114, 115, 116, 117, 118, 119, 120, 121, 122, 123, 124, 125, 126, 127, 128, 129, 130, 131, 132, 133, 134, 135, 136, 137, 138, 139, 140, 141, 142, 143, 144, 145, 146, 147, 148, 149, 150, 151, 152, 153, 154, 155, 156, 157, 158, 159, 160, 161, 162, 163, 164, 165, 166, 167, 168, 169, 170, 171, 172, 173, 174, 175, 176, 177, 178, 179, 180, 181, 182, 183, 184, 185, 186, 187, 188, 189, 190, 191, 192, 193, 194, 195, 196, 197, 198, 199, 200, 201, 202, 203, 204, 205, 206, 207, 208, 209, 210, 211, 212, 213, 214, 215, 216, 217, 218, 219, 220, 221, 222, 223, 224, 225, 226, 227, 228, 229, 230, 231, 232, 233, 234, 235, 236, 237, 238, 239, 240, 241, 242, 243, 244, 245, 246, 247, 248, 249, 250, 251, 252, 253, 254, 255, 256, 257, 258, 259, 260, 261, 262, 263, 264, 265, 266, 267, 268, 269, 270, 271, 272, 273, 274, 275, 276, 277, 278, 279, 280, 281, 282, 283, 284, 285, 286, 287, 288, 289, 290, 291, 292, 293, 294, 295, 296, 297, 298, 299, 300, 301, 302, 303, 304, 305, 306, 307, 308, 309, 310, 311, 312, 313, 314, 315, 316, 317, 318, 319, 320, 321, 322, 323, 324, 325, 326, 327, 328, 329, 330, 331, 332, 333, 334, 335, 336, 337, 338, 339, 340, 341, 342, 343, 344, 345, 346, 347, 348, 349, 350, 351, 352, 353, 354, 355, 356, 357, 358, 359, 360, 361, 362, 363, 364, 365, 366, 367, 368, 369, 370, 371, 372, 373, 374, 375, 376, 377, 378, 379, 380, 381, 382, 383, 384, 385, 386, 387, 388, 389, 390, 391, 392, 393, 394, 395, 396, 397, 398, 399, 400, 401, 402, 403, 404, 405, 406, 407, 408, 409, 410, 411, 412, 413, 414, 415, 416, 417, 418, 419, 420, 421, 422, 423, 424, 425, 426, 427, 428, 429, 430, 431, 432, 433, 434, 435, 436, 437, 438, 439, 440, 441, 442],
      "AcquisitionTime": ["153435.087500", "153436.577500", "153438.067500", "153439.557500", "153441.047500", "153442.537500", "153444.027500", "153445.517500", "153447.007500", "153448.497500", "153449.987500", "153451.477500", "153452.967500", "153454.457500", "153455.947500", "153457.437500", "153458.927500", "153500.417500", "153501.907500", "153503.397500", "153504.887500", "153506.377500", "153507.867500", "153509.357500", "153510.847500", "153512.337500", "153513.827500", "153515.317500", "153516.807500", "153518.297500", "153519.787500", "153521.277500", "153522.767500", "153524.257500", "153525.747500", "153527.237500", "153528.727500", "153530.217500", "153531.707500", "153533.197500", "153534.687500", "153536.177500", "153537.667500", "153539.157500", "153540.647500", "153542.137500", "153543.627500", "153545.117500", "153546.607500", "153548.097500", "153549.587500", "153551.077500", "153552.567500", "153554.057500", "153555.547500", "153557.037500", "153558.527500", "153600.017500", "153601.507500", "153602.997500", "153604.487500", "153605.977500", "153607.467500", "153608.957500", "153610.447500", "153611.937500", "153613.427500", "153614.917500", "153616.407500", "153617.897500", "153619.387500", "153620.877500", "153622.367500", "153623.857500", "153625.347500", "153626.837500", "153628.327500", "153629.817500", "153631.307500", "153632.797500", "153634.287500", "153635.777500", "153637.267500", "153638.757500", "153640.247500", "153641.737500", "153643.227500", "153644.717500", "153646.207500", "153647.697500", "153649.187500", "153650.677500", "153652.167500", "153653.657500", "153655.147500", "153656.637500", "153658.127500", "153659.617500", "153701.107500", "153702.597500", "153704.087500", "153705.577500", "153707.067500", "153708.557500", "153710.047500", "153711.537500", "153713.027500", "153714.517500", "153716.007500", "153717.497500", "153718.987500", "153720.477500", "153721.967500", "153723.457500", "153724.947500", "153726.437500", "153727.927500", "153729.417500", "153730.907500", "153732.397500", "153733.887500", "153735.377500", "153736.867500", "153738.357500", "153739.847500", "153741.337500", "153742.827500", "153744.317500", "153745.807500", "153747.297500", "153748.787500", "153750.277500", "153751.767500", "153753.257500", "153754.747500", "153756.237500", "153757.727500", "153759.217500", "153800.707500", "153802.197500", "153803.687500", "153805.177500", "153806.667500", "153808.157500", "153809.647500", "153811.137500", "153812.627500", "153814.117500", "153815.607500", "153817.097500", "153818.587500", "153820.077500", "153821.567500", "153823.057500", "153824.547500", "153826.037500", "153827.527500", "153829.017500", "153830.507500", "153831.997500", "153833.487500", "153834.977500", "153836.467500", "153837.957500", "153839.447500", "153840.937500", "153842.427500", "153843.917500", "153845.407500", "153846.897500", "153848.387500", "153849.877500", "153851.367500", "153852.857500", "153854.347500", "153855.837500", "153857.327500", "153858.817500", "153900.307500", "153901.797500", "153903.287500", "153904.777500", "153906.267500", "153907.757500", "153909.247500", "153910.737500", "153912.227500", "153913.717500", "153915.207500", "153916.697500", "153918.187500", "153919.677500", "153921.167500", "153922.657500", "153924.147500", "153925.637500", "153927.127500", "153928.617500", "153930.107500", "153931.597500", "153933.087500", "153934.577500", "153936.067500", "153937.557500", "153939.047500", "153940.537500", "153942.027500", "153943.517500", "153945.007500", "153946.497500", "153947.987500", "153949.477500", "153950.967500", "153952.457500", "153953.947500", "153955.437500", "153956.927500", "153958.417500", "153959.907500", "154001.397500", "154002.887500", "154004.377500", "154005.867500", "154007.357500", "154008.847500", "154010.337500", "154011.827500", "154013.317500", "154014.807500", "154016.297500", "154017.787500", "154019.277500", "154020.767500", "154022.257500", "154023.747500", "154025.237500", "154026.727500", "154028.217500", "154029.707500", "154031.197500", "154032.687500", "154034.177500", "154035.667500", "154037.157500", "154038.647500", "154040.137500", "154041.627500", "154043.117500", "154044.607500", "154046.097500", "154047.587500", "154049.077500", "154050.567500", "154052.057500", "154053.547500", "154055.037500", "154056.527500", "154058.017500", "154059.507500", "154100.997500", "154102.487500", "154103.977500", "154105.467500", "154106.957500", "154108.447500", "154109.937500", "154111.427500", "154112.917500", "154114.407500", "154115.897500", "154117.387500", "154118.877500", "154120.367500", "154121.857500", "154123.347500", "154124.837500", "154126.327500", "154127.817500", "154129.307500", "154130.797500", "154132.287500", "154133.777500", "154135.267500", "154136.757500", "154138.247500", "154139.737500", "154141.227500", "154142.717500", "154144.207500", "154145.697500", "154147.187500", "154148.677500", "154150.167500", "154151.657500", "154153.147500", "154154.637500", "154156.127500", "154157.617500", "154159.107500", "154200.597500", "154202.087500", "154203.577500", "154205.067500", "154206.557500", "154208.047500", "154209.537500", "154211.027500", "154212.517500", "154214.007500", "154215.497500", "154216.987500", "154218.477500", "154219.967500", "154221.457500", "154222.947500", "154224.437500", "154225.927500", "154227.417500", "154228.907500", "154230.397500", "154231.887500", "154233.377500", "154234.867500", "154236.357500", "154237.847500", "154239.337500", "154240.827500", "154242.317500", "154243.807500", "154245.297500", "154246.787500", "154248.277500", "154249.767500", "154251.257500", "154252.747500", "154254.237500", "154255.727500", "154257.217500", "154258.707500", "154300.197500", "154301.687500", "154303.177500", "154304.667500", "154306.157500", "154307.647500", "154309.137500", "154310.627500", "154312.117500", "154313.607500", "154315.097500", "154316.587500", "154318.077500", "154319.567500", "154321.057500", "154322.547500", "154324.037500", "154325.527500", "154327.017500", "154328.507500", "154329.997500", "154331.487500", "154332.977500", "154334.467500", "154335.957500", "154337.447500", "154338.937500", "154340.427500", "154341.917500", "154343.407500", "154344.897500", "154346.387500", "154347.877500", "154349.367500", "154350.857500", "154352.347500", "154353.837500", "154355.327500", "154356.817500", "154358.307500", "154359.797500", "154401.287500", "154402.777500", "154404.267500", "154405.757500", "154407.247500", "154408.737500", "154410.227500", "154411.717500", "154413.207500", "154414.697500", "154416.187500", "154417.677500", "154419.167500", "154420.657500", "154422.147500", "154423.637500", "154425.127500", "154426.617500", "154428.107500", "154429.597500", "154431.087500", "154432.577500", "154434.067500", "154435.557500", "154437.047500", "154438.537500", "154440.027500", "154441.517500", "154443.007500", "154444.497500", "154445.987500", "154447.477500", "154448.967500", "154450.457500", "154451.947500", "154453.437500", "154454.927500", "154456.417500", "154457.907500", "154459.397500", "154500.887500", "154502.377500", "154503.867500", "154505.357500", "154506.847500", "154508.337500", "154509.827500", "154511.317500", "154512.807500", "154514.297500", "154515.787500", "154517.277500", "154518.767500", "154520.257500", "154521.747500", "154523.237500", "154524.727500", "154526.217500", "154527.707500", "154529.197500", "154530.687500", "154532.177500"],
      "ContentTime": ["153607.220000", "153607.224000", "153607.227000", "153607.231000", "153607.234000", "153607.238000", "153607.241000", "153607.244000", "153607.248000", "153607.251000", "153607.255000", "153607.267000", "153607.270000", "153607.274000", "153607.277000", "153607.281000", "153607.284000", "153607.288000", "153607.291000", "153607.294000", "153607.298000", "153607.301000", "153607.305000", "153607.308000", "153607.311000", "153607.315000", "153607.318000", "153607.322000", "153607.325000", "153607.329000", "153607.332000", "153607.335000", "153607.339000", "153607.342000", "153607.345000", "153607.349000", "153607.352000", "153607.356000", "153607.359000", "153627.176000", "153627.180000", "153627.183000", "153627.187000", "153627.190000", "153627.194000", "153627.197000", "153627.201000", "153627.204000", "153627.207000", "153627.211000", "153627.214000", "153627.218000", "153627.221000", "153627.224000", "153627.228000", "153627.231000", "153627.235000", "153627.238000", "153627.241000", "153647.176000", "153647.180000", "153647.183000", "153647.187000", "153647.190000", "153647.194000", "153647.197000", "153647.201000", "153647.204000", "153647.207000", "153647.211000", "153647.214000", "153647.218000", "153647.221000", "153647.225000", "153647.228000", "153647.231000", "153647.235000", "153647.238000", "153647.241000", "153707.176000", "153707.180000", "153707.183000", "153707.187000", "153707.190000", "153707.194000", "153707.197000", "153707.201000", "153707.204000", "153707.207000", "153707.211000", "153707.214000", "153707.225000", "153707.228000", "153707.232000", "153707.235000", "153707.238000", "153707.242000", "153707.245000", "153707.249000", "153707.252000", "153747.176000", "153747.180000", "153747.183000", "153747.187000", "153747.190000", "153747.194000", "153747.197000", "153747.200000", "153747.204000", "153747.207000", "153747.211000", "153747.214000", "153747.218000", "153747.221000", "153747.225000", "153747.228000", "153747.231000", "153747.235000", "153747.238000", "153747.242000", "153747.245000", "153747.248000", "153747.252000", "153747.255000", "153747.259000", "153747.262000", "153747.265000", "153747.269000", "153827.176000", "153827.180000", "153827.183000", "153827.187000", "153827.190000", "153827.194000", "153827.197000", "153827.200000", "153827.204000", "153827.207000", "153827.211000", "153827.214000", "153827.218000", "153827.221000", "153827.225000", "153827.228000", "153827.231000", "153827.235000", "153827.238000", "153827.242000", "153827.245000", "153827.249000", "153827.252000", "153827.255000", "153827.259000", "153827.262000", "153827.266000", "153907.176000", "153907.180000", "153907.183000", "153907.187000", "153907.190000", "153907.194000", "153907.197000", "153907.201000", "153907.204000", "153907.207000", "153907.211000", "153907.214000", "153907.218000", "153907.221000", "153907.224000", "153907.228000", "153907.231000", "153907.235000", "153907.238000", "153907.242000", "153907.245000", "153907.248000", "153907.252000", "153907.255000", "153907.259000", "153907.262000", "153907.266000", "153947.177000", "153947.181000", "153947.184000", "153947.188000", "153947.191000", "153947.195000", "153947.221000", "153947.225000", "153947.228000", "153947.231000", "153947.235000", "153947.238000", "153947.242000", "153947.245000", "153947.248000", "153947.252000", "153947.264000", "153947.268000", "153947.271000", "153947.275000", "153947.278000", "153947.282000", "153947.285000", "153947.288000", "153947.292000", "153947.296000", "154027.176000", "154027.180000", "154027.183000", "154027.187000", "154027.190000", "154027.194000", "154027.197000", "154027.201000", "154027.204000", "154027.207000", "154027.211000", "154027.214000", "154027.218000", "154027.221000", "154027.225000", "154027.228000", "154027.231000", "154027.235000", "154027.238000", "154027.242000", "154027.245000", "154027.249000", "154027.252000", "154027.255000", "154027.259000", "154027.262000", "154027.266000", "154107.177000", "154107.181000", "154107.185000", "154107.188000", "154107.202000", "154107.205000", "154107.209000", "154107.212000", "154107.215000", "154107.219000", "154107.222000", "154107.226000", "154107.229000", "154107.232000", "154107.236000", "154107.239000", "154107.243000", "154107.246000", "154107.249000", "154107.253000", "154107.256000", "154107.260000", "154107.263000", "154107.267000", "154107.270000", "154107.273000", "154107.277000", "154147.177000", "154147.181000", "154147.184000", "154147.188000", "154147.191000", "154147.195000", "154147.198000", "154147.202000", "154147.205000", "154147.209000", "154147.212000", "154147.215000", "154147.219000", "154147.222000", "154147.226000", "154147.229000", "154147.232000", "154147.236000", "154147.239000", "154147.243000", "154147.246000", "154147.250000", "154147.253000", "154147.257000", "154147.260000", "154147.263000", "154147.279000", "154227.176000", "154227.180000", "154227.184000", "154227.187000", "154227.190000", "154227.194000", "154227.197000", "154227.201000", "154227.204000", "154227.207000", "154227.211000", "154227.214000", "154227.218000", "154227.221000", "154227.225000", "154227.228000", "154227.231000", "154227.235000", "154227.238000", "154227.242000", "154227.245000", "154227.248000", "154227.252000", "154227.255000", "154227.259000", "154227.262000", "154227.265000", "154307.176000", "154307.180000", "154307.184000", "154307.187000", "154307.190000", "154307.194000", "154307.197000", "154307.201000", "154307.204000", "154307.208000", "154307.211000", "154307.214000", "154307.218000", "154307.221000", "154307.225000", "154307.228000", "154307.232000", "154307.235000", "154307.239000", "154307.242000", "154307.246000", "154307.249000", "154307.253000", "154307.256000", "154307.259000", "154307.263000", "154307.266000", "154347.177000", "154347.181000", "154347.185000", "154347.188000", "154347.192000", "154347.196000", "154347.199000", "154347.203000", "154347.206000", "154347.210000", "154347.213000", "154347.216000", "154347.220000", "154347.223000", "154347.227000", "154347.230000", "154347.234000", "154347.237000", "154347.240000", "154347.244000", "154347.247000", "154347.251000", "154347.254000", "154347.257000", "154347.261000", "154347.264000", "154427.177000", "154427.198000", "154427.201000", "154427.206000", "154427.210000", "154427.213000", "154427.217000", "154427.220000", "154427.223000", "154427.227000", "154427.230000", "154427.234000", "154427.237000", "154427.240000", "154427.244000", "154427.247000", "154427.251000", "154427.254000", "154427.258000", "154427.261000", "154427.264000", "154427.268000", "154427.272000", "154427.276000", "154427.279000", "154427.283000", "154427.286000", "154507.176000", "154507.180000", "154507.184000", "154507.187000", "154507.190000", "154507.194000", "154507.197000", "154507.201000", "154507.204000", "154507.207000", "154507.211000", "154507.214000", "154507.218000", "154507.221000", "154507.224000", "154507.228000", "154507.231000", "154507.235000", "154507.238000", "154507.242000", "154507.245000", "154507.249000", "154507.252000", "154507.255000", "154507.259000", "154507.262000", "154507.266000", "154535.658000", "154535.661000", "154535.665000", "154535.668000", "154535.672000", "154535.675000", "154535.679000", "154535.682000", "154535.686000", "154535.689000", "154535.693000", "154535.696000", "154535.699000", "154535.703000", "154535.706000", "154535.710000", "154535.713000", "154535.717000", "154535.728000"],
