{
  "AcquisitionMatrixPE": 104,
  "AcquisitionNumber": 1,
  "AcquisitionTime": "13:44:26.370000",
  "BandwidthPerPixelPhaseEncode": 17.17,
  "BaseResolution": 104,
  "BodyPartExamined": "BRAIN",
  "CoilCombinationMethod": "Sum of Squares",
  "ConsistencyInfo": "N4_VE11C_LATEST_20160120",
  "ConversionSoftware": "dcm2niix",
  "ConversionSoftwareVersion": "v1.0.20220505",
  "DerivedVendorReportedEchoSpacing": 0.000560011,
  "DeviceSerialNumber": "167006",
  "DwellTime": 2.1e-06,
  "EchoTime": 0.037,
  "EchoTime1": 0.037,
  "EchoTime2": 0.001,
  "EchoTrainLength": 104,
  "EffectiveEchoSpacing": 0.000560011,
  "FlipAngle": 52,
  "HeudiconvVersion": "0.5.3.post811+g6206e14",
  "ImageComments": "Unaliased MB4/PE3/LB",
  "ImageOrientationPatientDICOM": [0.999267, 0.0142355, 0.0355299, -0.00470896, 0.966936, -0.254976],
  "ImageOrientationText": "Tra>Cor(-14.8)>Sag(2.2)",
  "ImageType": [
    "ORIGINAL",
    "PRIMARY",
    "P",
    "MB",
    "ND",
    "MOSAIC",
    "PHASE"
],
  "ImagingFrequency": 123.259,
  "InPlanePhaseEncodingDirectionDICOM": "COL",
  "InstitutionAddress": "Chemin Queen-Mary 4565,Montreal,District,CA,H3W 1W5",
  "InstitutionName": "IUGM",
  "InstitutionalDepartmentName": "Department",
  "MRAcquisitionType": "2D",
  "MagneticFieldStrength": 3,
  "Manufacturer": "Siemens",
  "ManufacturersModelName": "Prisma_fit",
  "MatrixCoilMode": "SENSE",
  "Modality": "MR",
  "MultibandAccelerationFactor": 4,
  "PartialFourier": 1,
  "PatientPosition": "HFS",
  "PercentPhaseFOV": 100,
  "PercentSampling": 100,
  "PhaseEncodingDirection": "j",
  "PhaseEncodingSteps": 104,
  "PhaseResolution": 1,
  "PixelBandwidth": 2290,
  "ProcedureStepDescription": "games^mariostars",
  "ProtocolName": "func_task-mariostars_run-01",
  "PulseSequenceDetails": "%CustomerSeq%\\cmrr_mbep2d_bold",
  "ReceiveCoilActiveElements": "HC1-7;NC1,2",
  "ReceiveCoilName": "HeadNeck_64",
  "ReconMatrixPE": 104,
  "RepetitionTime": 1.49,
  "SAR": 0.0480992,
  "ScanOptions": "FS",
  "ScanningSequence": "EP",
  "SequenceName": "epfid2d1_104",
  "SequenceVariant": "SK\\SS",
  "SeriesDescription": "func_task-mariostars_run-01",
  "SeriesNumber": 12,
  "ShimSetting": [648, -7214, -8753, 700, 78, 25, 43, -3],
  "SliceThickness": 2,
  "SliceTiming": [0, 0.7825, 0.0975, 0.8825, 0.195, 0.98, 0.2925, 1.0775, 0.3925, 1.175, 0.49, 1.2725, 0.5875, 1.3725, 0.685, 0, 0.7825, 0.0975, 0.8825, 0.195, 0.98, 0.2925, 1.0775, 0.3925, 1.175, 0.49, 1.2725, 0.5875, 1.3725, 0.685, 0, 0.7825, 0.0975, 0.8825, 0.195, 0.98, 0.2925, 1.0775, 0.3925, 1.175, 0.49, 1.2725, 0.5875, 1.3725, 0.685, 0, 0.7825, 0.0975, 0.8825, 0.195, 0.98, 0.2925, 1.0775, 0.3925, 1.175, 0.49, 1.2725, 0.5875, 1.3725, 0.685],
  "SoftwareVersions": "syngo MR E11",
  "SpacingBetweenSlices": 2,
  "StationName": "MRC35049",
  "TaskName": "mariostars",
  "TotalReadoutTime": 0.0576811,
  "TxRefAmp": 223.09,
  "WipMemBlock": "67e0e1b5-1314-4bcd-9938-28fcddfa97e5||Sequence: R017 ve11c/master r/75a17815+; Jun 28 2022 16:32:11 by eja",
  "dcmmeta_affine": [
    [-1.9985344409942627, -0.009417928755283356, 0.07596970349550247, 107.54875946044922],
    [-0.0284709595143795, 1.9338717460632324, -0.5092441439628601, -72.4437026977539],
    [0.07105981558561325, 0.5099524259567261, 1.9325886964797974, -56.53663635253906],
    [0.0, 0.0, 0.0, 1.0]
],
  "dcmmeta_reorient_transform": [
    [0.0, -1.0, 0.0, 103.0],
    [1.0, 0.0, 0.0, 0.0],
    [0.0, 0.0, 1.0, 0.0],
    [0.0, 0.0, 0.0, 1.0]
],
  "dcmmeta_shape": [104, 104, 60, 480],
  "dcmmeta_slice_dim": 2,
  "dcmmeta_version": 0.6,
  "global": {
    "const": {
      "AcquisitionMatrix": [104, 0, 0, 104],
      "AngioFlag": "N",
      "BitsAllocated": 16,
      "BitsStored": 16,
      "BodyPartExamined": "BRAIN",
      "Columns": 832,
      "EchoNumbers": 1,
      "EchoTime": 37.0,
      "EchoTrainLength": 104,
      "FlipAngle": 52.0,
      "HighBit": 15,
      "ImageOrientationPatient": [0.99926721984718, 0.01423548004678, 0.03552990918543, -0.0047089645695, 0.96693585612028, -0.2549762259538],
      "ImagePositionPatient": [-830.61712242658, -841.03781592745, 155.74538550854],
      "ImageType": [
        "ORIGINAL",
        "PRIMARY",
        "P",
        "MB",
        "ND",
        "MOSAIC"
],
      "ImagedNucleus": "1H",
      "ImagingFrequency": 123.2588,
      "InPlanePhaseEncodingDirection": "COL",
      "LargestImagePixelValue": 4095,
      "MRAcquisitionType": "2D",
      "MagneticFieldStrength": 3.0,
      "Manufacturer": "SIEMENS",
      "ManufacturerModelName": "Prisma_fit",
      "Modality": "MR",
      "NumberOfAverages": 1.0,
      "NumberOfPhaseEncodingSteps": 104,
      "PercentPhaseFieldOfView": 100.0,
      "PercentSampling": 100.0,
      "PerformedProcedureStepStartTime": "134111.606000",
      "PhotometricInterpretation": "MONOCHROME2",
      "PixelBandwidth": 2290.0,
      "PixelRepresentation": 0,
      "PixelSpacing": [2.0, 2.0],
      "ProtocolName": "func_task-mariostars_run-01",
      "RepetitionTime": 1490.0,
      "RescaleIntercept": -4096.0,
      "RescaleSlope": 2.0,
      "RescaleType": "US",
      "Rows": 832,
      "SAR": 0.04809923431078,
      "SamplesPerPixel": 1,
      "ScanOptions": "FS",
      "ScanningSequence": "EP",
      "SequenceName": "epfid2d1_104",
      "SequenceVariant": [
        "SK",
        "SS"
],
      "SeriesDescription": "func_task-mariostars_run-01",
      "SeriesNumber": 12,
      "SeriesTime": "134550.048000",
      "SliceLocation": -32.100041210943,
      "SliceThickness": 2.0,
      "SmallestImagePixelValue": 0,
      "SoftwareVersions": "syngo MR E11",
      "SpacingBetweenSlices": 1.9999999964445,
      "SpecificCharacterSet": "ISO_IR 100",
      "StudyID": "1",
      "StudyTime": "134111.519000",
      "TransmitCoilName": "Body",
      "VariableFlipAngleFlag": "N",
      "WindowCenterWidthExplanation": "Algo1",
      "dBdt": 0.0},
    "slices": {}
  },
  "time": {
    "samples": {
      "AcquisitionNumber": [1, 2, 3, 4, 5, 6, 7, 8, 9, 10, 11, 12, 13, 14, 15, 16, 17, 18, 19, 20, 21, 22, 23, 24, 25, 26, 27, 28, 29, 30, 31, 32, 33, 34, 35, 36, 37, 38, 39, 40, 41, 42, 43, 44, 45, 46, 47, 48, 49, 50, 51, 52, 53, 54, 55, 56, 57, 58, 59, 60, 61, 62, 63, 64, 65, 66, 67, 68, 69, 70, 71, 72, 73, 74, 75, 76, 77, 78, 79, 80, 81, 82, 83, 84, 85, 86, 87, 88, 89, 90, 91, 92, 93, 94, 95, 96, 97, 98, 99, 100, 101, 102, 103, 104, 105, 106, 107, 108, 109, 110, 111, 112, 113, 114, 115, 116, 117, 118, 119, 120, 121, 122, 123, 124, 125, 126, 127, 128, 129, 130, 131, 132, 133, 134, 135, 136, 137, 138, 139, 140, 141, 142, 143, 144, 145, 146, 147, 148, 149, 150, 151, 152, 153, 154, 155, 156, 157, 158, 159, 160, 161, 162, 163, 164, 165, 166, 167, 168, 169, 170, 171, 172, 173, 174, 175, 176, 177, 178, 179, 180, 181, 182, 183, 184, 185, 186, 187, 188, 189, 190, 191, 192, 193, 194, 195, 196, 197, 198, 199, 200, 201, 202, 203, 204, 205, 206, 207, 208, 209, 210, 211, 212, 213, 214, 215, 216, 217, 218, 219, 220, 221, 222, 223, 224, 225, 226, 227, 228, 229, 230, 231, 232, 233, 234, 235, 236, 237, 238, 239, 240, 241, 242, 243, 244, 245, 246, 247, 248, 249, 250, 251, 252, 253, 254, 255, 256, 257, 258, 259, 260, 261, 262, 263, 264, 265, 266, 267, 268, 269, 270, 271, 272, 273, 274, 275, 276, 277, 278, 279, 280, 281, 282, 283, 284, 285, 286, 287, 288, 289, 290, 291, 292, 293, 294, 295, 296, 297, 298, 299, 300, 301, 302, 303, 304, 305, 306, 307, 308, 309, 310, 311, 312, 313, 314, 315, 316, 317, 318, 319, 320, 321, 322, 323, 324, 325, 326, 327, 328, 329, 330, 331, 332, 333, 334, 335, 336, 337, 338, 339, 340, 341, 342, 343, 344, 345, 346, 347, 348, 349, 350, 351, 352, 353, 354, 355, 356, 357, 358, 359, 360, 361, 362, 363, 364, 365, 366, 367, 368, 369, 370, 371, 372, 373, 374, 375, 376, 377, 378, 379, 380, 381, 382, 383, 384, 385, 386, 387, 388, 389, 390, 391, 392, 393, 394, 395, 396, 397, 398, 399, 400, 401, 402, 403, 404, 405, 406, 407, 408, 409, 410, 411, 412, 413, 414, 415, 416, 417, 418, 419, 420, 421, 422, 423, 424, 425, 426, 427, 428, 429, 430, 431, 432, 433, 434, 435, 436, 437, 438, 439, 440, 441, 442, 443, 444, 445, 446, 447, 448, 449, 450, 451, 452, 453, 454, 455, 456, 457, 458, 459, 460, 461, 462, 463, 464, 465, 466, 467, 468, 469, 470, 471, 472, 473, 474, 475, 476, 477, 478, 479, 480],
      "AcquisitionTime": ["134426.370000", "134427.860000", "134429.350000", "134430.840000", "134432.330000", "134433.820000", "134435.310000", "134436.800000", "134438.290000", "134439.780000", "134441.270000", "134442.760000", "134444.250000", "134445.740000", "134447.230000", "134448.720000", "134450.210000", "134451.700000", "134453.190000", "134454.680000", "134456.170000", "134457.660000", "134459.150000", "134500.640000", "134502.130000", "134503.620000", "134505.110000", "134506.600000", "134508.090000", "134509.580000", "134511.070000", "134512.560000", "134514.050000", "134515.540000", "134517.030000", "134518.520000", "134520.010000", "134521.500000", "134522.990000", "134524.480000", "134525.970000", "134527.460000", "134528.950000", "134530.440000", "134531.930000", "134533.420000", "134534.910000", "134536.400000", "134537.890000", "134539.380000", "134540.870000", "134542.360000", "134543.850000", "134545.340000", "134546.830000", "134548.320000", "134549.810000", "134551.300000", "134552.790000", "134554.280000", "134555.770000", "134557.260000", "134558.750000", "134600.240000", "134601.730000", "134603.220000", "134604.710000", "134606.200000", "134607.690000", "134609.180000", "134610.670000", "134612.160000", "134613.650000", "134615.140000", "134616.630000", "134618.120000", "134619.610000", "134621.100000", "134622.590000", "134624.080000", "134625.570000", "134627.060000", "134628.550000", "134630.040000", "134631.530000", "134633.020000", "134634.510000", "134636.000000", "134637.490000", "134638.980000", "134640.470000", "134641.960000", "134643.450000", "134644.940000", "134646.430000", "134647.920000", "134649.410000", "134650.900000", "134652.390000", "134653.880000", "134655.370000", "134656.860000", "134658.350000", "134659.840000", "134701.330000", "134702.820000", "134704.310000", "134705.800000", "134707.290000", "134708.780000", "134710.270000", "134711.760000", "134713.250000", "134714.740000", "134716.230000", "134717.720000", "134719.210000", "134720.700000", "134722.190000", "134723.680000", "134725.170000", "134726.660000", "134728.150000", "134729.640000", "134731.130000", "134732.620000", "134734.110000", "134735.600000", "134737.090000", "134738.580000", "134740.070000", "134741.560000", "134743.050000", "134744.540000", "134746.030000", "134747.520000", "134749.010000", "134750.500000", "134751.990000", "134753.480000", "134754.970000", "134756.460000", "134757.950000", "134759.440000", "134800.930000", "134802.420000", "134803.910000", "134805.400000", "134806.890000", "134808.380000", "134809.870000", "134811.360000", "134812.850000", "134814.340000", "134815.830000", "134817.320000", "134818.810000", "134820.300000", "134821.790000", "134823.280000", "134824.770000", "134826.260000", "134827.750000", "134829.240000", "134830.730000", "134832.220000", "134833.710000", "134835.200000", "134836.690000", "134838.180000", "134839.670000", "134841.160000", "134842.650000", "134844.140000", "134845.630000", "134847.120000", "134848.610000", "134850.100000", "134851.590000", "134853.080000", "134854.570000", "134856.060000", "134857.550000", "134859.040000", "134900.530000", "134902.020000", "134903.510000", "134905.000000", "134906.490000", "134907.980000", "134909.470000", "134910.960000", "134912.450000", "134913.940000", "134915.430000", "134916.920000", "134918.410000", "134919.900000", "134921.390000", "134922.880000", "134924.370000", "134925.860000", "134927.350000", "134928.840000", "134930.330000", "134931.820000", "134933.310000", "134934.800000", "134936.290000", "134937.780000", "134939.270000", "134940.760000", "134942.250000", "134943.740000", "134945.230000", "134946.720000", "134948.210000", "134949.700000", "134951.190000", "134952.680000", "134954.170000", "134955.660000", "134957.150000", "134958.640000", "135000.130000", "135001.620000", "135003.110000", "135004.600000", "135006.090000", "135007.580000", "135009.070000", "135010.560000", "135012.050000", "135013.540000", "135015.030000", "135016.520000", "135018.010000", "135019.500000", "135020.990000", "135022.480000", "135023.970000", "135025.460000", "135026.950000", "135028.440000", "135029.930000", "135031.420000", "135032.910000", "135034.400000", "135035.890000", "135037.380000", "135038.870000", "135040.360000", "135041.850000", "135043.340000", "135044.830000", "135046.320000", "135047.810000", "135049.300000", "135050.790000", "135052.280000", "135053.770000", "135055.260000", "135056.750000", "135058.240000", "135059.730000", "135101.220000", "135102.710000", "135104.200000", "135105.690000", "135107.180000", "135108.670000", "135110.160000", "135111.650000", "135113.140000", "135114.630000", "135116.120000", "135117.610000", "135119.100000", "135120.590000", "135122.080000", "135123.570000", "135125.060000", "135126.550000", "135128.040000", "135129.530000", "135131.020000", "135132.510000", "135134.000000", "135135.490000", "135136.980000", "135138.470000", "135139.960000", "135141.450000", "135142.940000", "135144.430000", "135145.920000", "135147.410000", "135148.900000", "135150.390000", "135151.880000", "135153.370000", "135154.860000", "135156.350000", "135157.840000", "135159.330000", "135200.820000", "135202.310000", "135203.800000", "135205.290000", "135206.780000", "135208.270000", "135209.760000", "135211.250000", "135212.740000", "135214.230000", "135215.720000", "135217.210000", "135218.700000", "135220.190000", "135221.680000", "135223.170000", "135224.660000", "135226.150000", "135227.640000", "135229.130000", "135230.620000", "135232.110000", "135233.600000", "135235.090000", "135236.580000", "135238.070000", "135239.560000", "135241.050000", "135242.540000", "135244.030000", "135245.520000", "135247.010000", "135248.500000", "135249.990000", "135251.480000", "135252.970000", "135254.460000", "135255.950000", "135257.440000", "135258.930000", "135300.420000", "135301.910000", "135303.400000", "135304.890000", "135306.380000", "135307.870000", "135309.360000", "135310.850000", "135312.340000", "135313.830000", "135315.320000", "135316.810000", "135318.300000", "135319.790000", "135321.280000", "135322.770000", "135324.260000", "135325.750000", "135327.240000", "135328.730000", "135330.220000", "135331.710000", "135333.200000", "135334.690000", "135336.180000", "135337.670000", "135339.160000", "135340.650000", "135342.140000", "135343.630000", "135345.120000", "135346.610000", "135348.100000", "135349.590000", "135351.080000", "135352.570000", "135354.060000", "135355.550000", "135357.040000", "135358.530000", "135400.020000", "135401.510000", "135403.000000", "135404.490000", "135405.980000", "135407.470000", "135408.960000", "135410.450000", "135411.940000", "135413.430000", "135414.920000", "135416.410000", "135417.900000", "135419.390000", "135420.880000", "135422.370000", "135423.860000", "135425.350000", "135426.840000", "135428.330000", "135429.820000", "135431.310000", "135432.800000", "135434.290000", "135435.780000", "135437.270000", "135438.760000", "135440.250000", "135441.740000", "135443.230000", "135444.720000", "135446.210000", "135447.700000", "135449.190000", "135450.680000", "135452.170000", "135453.660000", "135455.150000", "135456.640000", "135458.130000", "135459.620000", "135501.110000", "135502.600000", "135504.090000", "135505.580000", "135507.070000", "135508.560000", "135510.050000", "135511.540000", "135513.030000", "135514.520000", "135516.010000", "135517.500000", "135518.990000", "135520.480000", "135521.970000", "135523.460000", "135524.950000", "135526.440000", "135527.930000", "135529.420000", "135530.910000", "135532.400000", "135533.890000", "135535.380000", "135536.870000", "135538.360000", "135539.850000", "135541.340000", "135542.830000", "135544.320000", "135545.810000", "135547.300000", "135548.790000", "135550.280000", "135551.770000", "135553.260000", "135554.750000", "135556.240000", "135557.730000", "135559.220000", "135600.710000", "135602.200000", "135603.690000", "135605.180000", "135606.670000", "135608.160000", "135609.650000", "135611.140000", "135612.630000", "135614.120000", "135615.610000", "135617.100000", "135618.590000", "135620.080000"],
      "ContentTime": ["134550.050000", "134550.053000", "134550.056000", "134550.058000", "134550.061000", "134550.063000", "134550.066000", "134550.068000", "134550.071000", "134550.082000", "134550.084000", "134550.087000", "134550.089000", "134550.092000", "134550.094000", "134550.097000", "134550.100000", "134550.102000", "134550.104000", "134550.107000", "134550.110000", "134550.112000", "134550.115000", "134550.117000", "134550.120000", "134550.122000", "134550.125000", "134550.127000", "134550.129000", "134550.132000", "134550.134000", "134550.137000", "134550.139000", "134609.979000", "134609.983000", "134609.985000", "134610.000000", "134610.002000", "134610.005000", "134610.008000", "134610.010000", "134610.013000", "134610.015000", "134610.018000", "134610.020000", "134610.023000", "134610.025000", "134610.028000", "134610.030000", "134610.033000", "134610.035000", "134610.038000", "134610.040000", "134629.961000", "134629.964000", "134629.966000", "134629.969000", "134629.971000", "134629.974000", "134629.978000", "134629.980000", "134629.983000", "134629.985000", "134629.988000", "134629.990000", "134629.993000", "134629.995000", "134629.998000", "134630.002000", "134630.004000", "134630.007000", "134630.009000", "134630.011000", "134649.965000", "134649.968000", "134649.971000", "134649.973000", "134649.976000", "134649.978000", "134649.981000", "134649.983000", "134649.986000", "134649.988000", "134649.991000", "134649.993000", "134649.996000", "134649.998000", "134650.002000", "134650.014000", "134650.017000", "134650.020000", "134650.022000", "134650.025000", "134650.027000", "134730.019000", "134730.022000", "134730.024000", "134730.027000", "134730.029000", "134730.032000", "134730.034000", "134730.037000", "134730.039000", "134730.042000", "134730.044000", "134730.047000", "134730.049000", "134730.052000", "134730.054000", "134730.057000", "134730.059000", "134730.062000", "134730.064000", "134730.067000", "134730.069000", "134730.072000", "134730.074000", "134730.077000", "134730.079000", "134730.082000", "134730.084000", "134730.087000", "134809.997000", "134810.000000", "134810.003000", "134810.005000", "134810.008000", "134810.010000", "134810.013000", "134810.015000", "134810.018000", "134810.021000", "134810.023000", "134810.026000", "134810.028000", "134810.032000", "134810.034000", "134810.037000", "134810.039000", "134810.042000", "134810.044000", "134810.047000", "134810.049000", "134810.052000", "134810.054000", "134810.069000", "134810.072000", "134810.074000", "134810.077000", "134850.005000", "134850.008000", "134850.010000", "134850.013000", "134850.015000", "134850.018000", "134850.020000", "134850.023000", "134850.025000", "134850.028000", "134850.030000", "134850.033000", "134850.035000", "134850.038000", "134850.040000", "134850.043000", "134850.045000", "134850.048000", "134850.050000", "134850.053000", "134850.056000", "134850.058000", "134850.061000", "134850.063000", "134850.066000", "134850.068000", "134850.071000", "134929.995000", "134929.998000", "134930.002000", "134930.004000", "134930.007000", "134930.010000", "134930.012000", "134930.015000", "134930.017000", "134930.020000", "134930.023000", "134930.025000", "134930.028000", "134930.030000", "134930.033000", "134930.035000", "134930.038000", "134930.040000", "134930.043000", "134930.045000", "134930.048000", "134930.051000", "134930.053000", "134930.056000", "134930.058000", "134930.061000", "134930.063000", "135009.998000", "135010.002000", "135010.005000", "135010.007000", "135010.010000", "135010.012000", "135010.015000", "135010.017000", "135010.020000", "135010.022000", "135010.025000", "135010.027000", "135010.030000", "135010.032000", "135010.035000", "135010.037000", "135010.040000", "135010.042000", "135010.045000", "135010.047000", "135010.050000", "135010.052000", "135010.055000", "135010.057000", "135010.060000", "135010.062000", "135010.065000", "135050.006000", "135050.009000", "135050.011000", "135050.014000", "135050.016000", "135050.019000", "135050.021000", "135050.024000", "135050.026000", "135050.029000", "135050.031000", "135050.034000", "135050.052000", "135050.054000", "135050.057000", "135050.059000", "135050.062000", "135050.064000", "135050.067000", "135050.069000", "135050.072000", "135050.074000", "135050.077000", "135050.079000", "135050.082000", "135050.085000", "135050.087000", "135130.014000", "135130.017000", "135130.019000", "135130.022000", "135130.024000", "135130.027000", "135130.029000", "135130.032000", "135130.034000", "135130.037000", "135130.039000", "135130.042000", "135130.044000", "135130.047000", "135130.049000", "135130.052000", "135130.054000", "135130.057000", "135130.060000", "135130.062000", "135130.065000", "135130.067000", "135130.070000", "135130.072000", "135130.075000", "135130.077000", "135130.080000", "135209.988000", "135209.991000", "135209.993000", "135209.996000", "135209.998000", "135210.002000", "135210.004000", "135210.007000", "135210.009000", "135210.012000", "135210.014000", "135210.017000", "135210.020000", "135210.022000", "135210.025000", "135210.027000", "135210.030000", "135210.033000", "135210.035000", "135210.038000", "135210.040000", "135210.043000", "135210.045000", "135210.049000", "135210.052000", "135210.055000", "135249.985000", "135249.988000", "135249.990000", "135249.993000", "135249.995000", "135249.998000", "135250.001000", "135250.004000", "135250.006000", "135250.009000", "135250.012000", "135250.014000", "135250.017000", "135250.019000", "135250.022000", "135250.024000", "135250.027000", "135250.029000", "135250.032000", "135250.034000", "135250.037000", "135250.039000", "135250.042000", "135250.044000", "135250.047000", "135250.049000", "135250.052000", "135330.000000", "135330.002000", "135330.005000", "135330.008000", "135330.010000", "135330.013000", "135330.015000", "135330.018000", "135330.020000", "135330.023000", "135330.025000", "135330.028000", "135330.030000", "135330.033000", "135330.035000", "135330.038000", "135330.040000", "135330.043000", "135330.045000", "135330.048000", "135330.050000", "135330.053000", "135330.055000", "135330.058000", "135330.061000", "135330.063000", "135330.066000", "135410.001000", "135410.004000", "135410.006000", "135410.009000", "135410.011000", "135410.014000", "135410.016000", "135410.019000", "135410.021000", "135410.024000", "135410.026000", "135410.029000", "135410.031000", "135410.034000", "135410.036000", "135410.039000", "135410.042000", "135410.044000", "135410.047000", "135410.055000", "135410.058000", "135410.060000", "135410.063000", "135410.065000", "135410.068000", "135410.070000", "135410.073000", "135449.987000", "135449.990000", "135449.993000", "135449.995000", "135449.998000", "135450.001000", "135450.004000", "135450.006000", "135450.009000", "135450.011000", "135450.014000", "135450.016000", "135450.019000", "135450.021000", "135450.024000", "135450.026000", "135450.029000", "135450.031000", "135450.034000", "135450.037000", "135450.039000", "135450.042000", "135450.045000", "135450.054000", "135450.056000", "135450.059000", "135450.061000", "135529.991000", "135529.993000", "135529.996000", "135529.998000", "135530.002000", "135530.004000", "135530.007000", "135530.009000", "135530.012000", "135530.014000", "135530.017000", "135530.019000", "135530.022000", "135530.025000", "135530.027000", "135530.030000", "135530.032000", "135530.035000", "135530.037000", "135530.040000", "135530.042000", "135530.045000", "135530.048000", "135530.050000", "135530.053000", "135530.055000", "135530.058000", "135610.033000", "135610.036000", "135610.039000", "135610.041000", "135610.044000", "135610.046000", "135610.049000", "135610.051000", "135610.054000", "135610.056000", "135610.059000", "135610.062000", "135610.064000", "135610.067000", "135610.069000", "135610.072000", "135610.074000", "135610.077000", "135610.079000", "135610.082000", "135610.084000", "135610.087000", "135610.090000", "135610.092000", "135610.095000", "135610.097000", "135622.594000", "135622.597000", "135622.599000", "135622.602000", "135622.604000", "135622.607000", "135622.610000", "135622.612000", "135622.615000"],
