{
  "AcquisitionMatrixPE": 104,
  "AcquisitionNumber": 1,
  "AcquisitionTime": "13:57:39.187500",
  "BandwidthPerPixelPhaseEncode": 17.17,
  "BaseResolution": 104,
  "BodyPartExamined": "BRAIN",
  "CoilCombinationMethod": "Sum of Squares",
  "ConsistencyInfo": "N4_VE11C_LATEST_20160120",
  "ConversionSoftware": "dcm2niix",
  "ConversionSoftwareVersion": "v1.0.20220505",
  "DerivedVendorReportedEchoSpacing": 0.000560011,
  "DeviceSerialNumber": "167006",
  "DwellTime": 2.1e-06,
  "EchoTime": 0.037,
  "EchoTime1": 0.037,
  "EchoTime2": 0.001,
  "EchoTrainLength": 104,
  "EffectiveEchoSpacing": 0.000560011,
  "FlipAngle": 52,
  "HeudiconvVersion": "0.5.3.post811+g6206e14",
  "ImageComments": "Unaliased MB4/PE3/LB",
  "ImageOrientationPatientDICOM": [0.999267, 0.0142355, 0.0355299, -0.00470896, 0.966936, -0.254976],
  "ImageOrientationText": "Tra>Cor(-14.8)>Sag(2.2)",
  "ImageType": [
    "ORIGINAL",
    "PRIMARY",
    "P",
    "MB",
    "ND",
    "MOSAIC",
    "PHASE"
],
  "ImagingFrequency": 123.259,
  "InPlanePhaseEncodingDirectionDICOM": "COL",
  "InstitutionAddress": "Chemin Queen-Mary 4565,Montreal,District,CA,H3W 1W5",
  "InstitutionName": "IUGM",
  "InstitutionalDepartmentName": "Department",
  "MRAcquisitionType": "2D",
  "MagneticFieldStrength": 3,
  "Manufacturer": "Siemens",
  "ManufacturersModelName": "Prisma_fit",
  "MatrixCoilMode": "SENSE",
  "Modality": "MR",
  "MultibandAccelerationFactor": 4,
  "PartialFourier": 1,
  "PatientPosition": "HFS",
  "PercentPhaseFOV": 100,
  "PercentSampling": 100,
  "PhaseEncodingDirection": "j",
  "PhaseEncodingSteps": 104,
  "PhaseResolution": 1,
  "PixelBandwidth": 2290,
  "ProcedureStepDescription": "games^mariostars",
  "ProtocolName": "func_task-mariostars_run-02",
  "PulseSequenceDetails": "%CustomerSeq%\\cmrr_mbep2d_bold",
  "ReceiveCoilActiveElements": "HC1-7;NC1,2",
  "ReceiveCoilName": "HeadNeck_64",
  "ReconMatrixPE": 104,
  "RepetitionTime": 1.49,
  "SAR": 0.0480992,
  "ScanOptions": "FS",
  "ScanningSequence": "EP",
  "SequenceName": "epfid2d1_104",
  "SequenceVariant": "SK\\SS",
  "SeriesDescription": "func_task-mariostars_run-02",
  "SeriesNumber": 15,
  "ShimSetting": [648, -7214, -8753, 700, 78, 25, 43, -3],
  "SliceThickness": 2,
  "SliceTiming": [0, 0.7825, 0.0975, 0.88, 0.195, 0.98, 0.2925, 1.0775, 0.39, 1.175, 0.49, 1.2725, 0.5875, 1.37, 0.685, 0, 0.7825, 0.0975, 0.88, 0.195, 0.98, 0.2925, 1.0775, 0.39, 1.175, 0.49, 1.2725, 0.5875, 1.37, 0.685, 0, 0.7825, 0.0975, 0.88, 0.195, 0.98, 0.2925, 1.0775, 0.39, 1.175, 0.49, 1.2725, 0.5875, 1.37, 0.685, 0, 0.7825, 0.0975, 0.88, 0.195, 0.98, 0.2925, 1.0775, 0.39, 1.175, 0.49, 1.2725, 0.5875, 1.37, 0.685],
  "SoftwareVersions": "syngo MR E11",
  "SpacingBetweenSlices": 2,
  "StationName": "MRC35049",
  "TaskName": "mariostars",
  "TotalReadoutTime": 0.0576811,
  "TxRefAmp": 223.09,
  "WipMemBlock": "85c35841-6394-40ec-8d7a-c85c19b83fd6||Sequence: R017 ve11c/master r/75a17815+; Jun 28 2022 16:32:11 by eja",
  "dcmmeta_affine": [
    [-1.9985344409942627, -0.009417928755283356, 0.07596970349550247, 107.54875946044922],
    [-0.0284709595143795, 1.9338717460632324, -0.5092441439628601, -72.4437026977539],
    [0.07105981558561325, 0.5099524259567261, 1.9325886964797974, -56.53663635253906],
    [0.0, 0.0, 0.0, 1.0]
],
  "dcmmeta_reorient_transform": [
    [0.0, -1.0, 0.0, 103.0],
    [1.0, 0.0, 0.0, 0.0],
    [0.0, 0.0, 1.0, 0.0],
    [0.0, 0.0, 0.0, 1.0]
],
  "dcmmeta_shape": [104, 104, 60, 466],
  "dcmmeta_slice_dim": 2,
  "dcmmeta_version": 0.6,
  "global": {
    "const": {
      "AcquisitionMatrix": [104, 0, 0, 104],
      "AngioFlag": "N",
      "BitsAllocated": 16,
      "BitsStored": 16,
      "BodyPartExamined": "BRAIN",
      "Columns": 832,
      "EchoNumbers": 1,
      "EchoTime": 37.0,
      "EchoTrainLength": 104,
      "FlipAngle": 52.0,
      "HighBit": 15,
      "ImageOrientationPatient": [0.99926721984718, 0.01423548004678, 0.03552990918543, -0.0047089645695, 0.96693585612028, -0.2549762259538],
      "ImagePositionPatient": [-830.61712242658, -841.03781592745, 155.74538550854],
      "ImageType": [
        "ORIGINAL",
        "PRIMARY",
        "P",
        "MB",
        "ND",
        "MOSAIC"
],
      "ImagedNucleus": "1H",
      "ImagingFrequency": 123.258808,
      "InPlanePhaseEncodingDirection": "COL",
      "LargestImagePixelValue": 4095,
      "MRAcquisitionType": "2D",
      "MagneticFieldStrength": 3.0,
      "Manufacturer": "SIEMENS",
      "ManufacturerModelName": "Prisma_fit",
      "Modality": "MR",
      "NumberOfAverages": 1.0,
      "NumberOfPhaseEncodingSteps": 104,
      "PercentPhaseFieldOfView": 100.0,
      "PercentSampling": 100.0,
      "PerformedProcedureStepStartTime": "134111.606000",
      "PhotometricInterpretation": "MONOCHROME2",
      "PixelBandwidth": 2290.0,
      "PixelRepresentation": 0,
      "PixelSpacing": [2.0, 2.0],
      "ProtocolName": "func_task-mariostars_run-02",
      "RepetitionTime": 1490.0,
      "RescaleIntercept": -4096.0,
      "RescaleSlope": 2.0,
      "RescaleType": "US",
      "Rows": 832,
      "SAR": 0.04809923431078,
      "SamplesPerPixel": 1,
      "ScanOptions": "FS",
      "ScanningSequence": "EP",
      "SequenceName": "epfid2d1_104",
      "SequenceVariant": [
        "SK",
        "SS"
],
      "SeriesDescription": "func_task-mariostars_run-02",
      "SeriesNumber": 15,
      "SeriesTime": "135846.973000",
      "SliceLocation": -32.100041210943,
      "SliceThickness": 2.0,
      "SmallestImagePixelValue": 0,
      "SoftwareVersions": "syngo MR E11",
      "SpacingBetweenSlices": 1.9999999964445,
      "SpecificCharacterSet": "ISO_IR 100",
      "StudyID": "1",
      "StudyTime": "134111.519000",
      "TransmitCoilName": "Body",
      "VariableFlipAngleFlag": "N",
      "WindowCenterWidthExplanation": "Algo1",
      "dBdt": 0.0},
    "slices": {}
  },
  "time": {
    "samples": {
      "AcquisitionNumber": [1, 2, 3, 4, 5, 6, 7, 8, 9, 10, 11, 12, 13, 14, 15, 16, 17, 18, 19, 20, 21, 22, 23, 24, 25, 26, 27, 28, 29, 30, 31, 32, 33, 34, 35, 36, 37, 38, 39, 40, 41, 42, 43, 44, 45, 46, 47, 48, 49, 50, 51, 52, 53, 54, 55, 56, 57, 58, 59, 60, 61, 62, 63, 64, 65, 66, 67, 68, 69, 70, 71, 72, 73, 74, 75, 76, 77, 78, 79, 80, 81, 82, 83, 84, 85, 86, 87, 88, 89, 90, 91, 92, 93, 94, 95, 96, 97, 98, 99, 100, 101, 102, 103, 104, 105, 106, 107, 108, 109, 110, 111, 112, 113, 114, 115, 116, 117, 118, 119, 120, 121, 122, 123, 124, 125, 126, 127, 128, 129, 130, 131, 132, 133, 134, 135, 136, 137, 138, 139, 140, 141, 142, 143, 144, 145, 146, 147, 148, 149, 150, 151, 152, 153, 154, 155, 156, 157, 158, 159, 160, 161, 162, 163, 164, 165, 166, 167, 168, 169, 170, 171, 172, 173, 174, 175, 176, 177, 178, 179, 180, 181, 182, 183, 184, 185, 186, 187, 188, 189, 190, 191, 192, 193, 194, 195, 196, 197, 198, 199, 200, 201, 202, 203, 204, 205, 206, 207, 208, 209, 210, 211, 212, 213, 214, 215, 216, 217, 218, 219, 220, 221, 222, 223, 224, 225, 226, 227, 228, 229, 230, 231, 232, 233, 234, 235, 236, 237, 238, 239, 240, 241, 242, 243, 244, 245, 246, 247, 248, 249, 250, 251, 252, 253, 254, 255, 256, 257, 258, 259, 260, 261, 262, 263, 264, 265, 266, 267, 268, 269, 270, 271, 272, 273, 274, 275, 276, 277, 278, 279, 280, 281, 282, 283, 284, 285, 286, 287, 288, 289, 290, 291, 292, 293, 294, 295, 296, 297, 298, 299, 300, 301, 302, 303, 304, 305, 306, 307, 308, 309, 310, 311, 312, 313, 314, 315, 316, 317, 318, 319, 320, 321, 322, 323, 324, 325, 326, 327, 328, 329, 330, 331, 332, 333, 334, 335, 336, 337, 338, 339, 340, 341, 342, 343, 344, 345, 346, 347, 348, 349, 350, 351, 352, 353, 354, 355, 356, 357, 358, 359, 360, 361, 362, 363, 364, 365, 366, 367, 368, 369, 370, 371, 372, 373, 374, 375, 376, 377, 378, 379, 380, 381, 382, 383, 384, 385, 386, 387, 388, 389, 390, 391, 392, 393, 394, 395, 396, 397, 398, 399, 400, 401, 402, 403, 404, 405, 406, 407, 408, 409, 410, 411, 412, 413, 414, 415, 416, 417, 418, 419, 420, 421, 422, 423, 424, 425, 426, 427, 428, 429, 430, 431, 432, 433, 434, 435, 436, 437, 438, 439, 440, 441, 442, 443, 444, 445, 446, 447, 448, 449, 450, 451, 452, 453, 454, 455, 456, 457, 458, 459, 460, 461, 462, 463, 464, 465, 466],
      "AcquisitionTime": ["135739.187500", "135740.677500", "135742.167500", "135743.657500", "135745.147500", "135746.637500", "135748.127500", "135749.617500", "135751.107500", "135752.597500", "135754.087500", "135755.577500", "135757.067500", "135758.557500", "135800.047500", "135801.537500", "135803.027500", "135804.517500", "135806.007500", "135807.497500", "135808.987500", "135810.477500", "135811.967500", "135813.457500", "135814.947500", "135816.437500", "135817.927500", "135819.417500", "135820.907500", "135822.397500", "135823.887500", "135825.377500", "135826.867500", "135828.357500", "135829.847500", "135831.337500", "135832.827500", "135834.317500", "135835.807500", "135837.297500", "135838.787500", "135840.277500", "135841.767500", "135843.257500", "135844.747500", "135846.237500", "135847.727500", "135849.217500", "135850.707500", "135852.197500", "135853.687500", "135855.177500", "135856.667500", "135858.157500", "135859.647500", "135901.137500", "135902.627500", "135904.117500", "135905.607500", "135907.097500", "135908.587500", "135910.077500", "135911.567500", "135913.057500", "135914.547500", "135916.037500", "135917.527500", "135919.017500", "135920.507500", "135921.997500", "135923.487500", "135924.977500", "135926.467500", "135927.957500", "135929.447500", "135930.937500", "135932.427500", "135933.917500", "135935.407500", "135936.897500", "135938.387500", "135939.877500", "135941.367500", "135942.857500", "135944.347500", "135945.837500", "135947.327500", "135948.817500", "135950.307500", "135951.797500", "135953.287500", "135954.777500", "135956.267500", "135957.757500", "135959.247500", "140000.737500", "140002.227500", "140003.717500", "140005.207500", "140006.697500", "140008.187500", "140009.677500", "140011.167500", "140012.657500", "140014.147500", "140015.637500", "140017.127500", "140018.617500", "140020.107500", "140021.597500", "140023.087500", "140024.577500", "140026.067500", "140027.557500", "140029.047500", "140030.537500", "140032.027500", "140033.517500", "140035.007500", "140036.497500", "140037.987500", "140039.477500", "140040.967500", "140042.457500", "140043.947500", "140045.437500", "140046.927500", "140048.417500", "140049.907500", "140051.397500", "140052.887500", "140054.377500", "140055.867500", "140057.357500", "140058.847500", "140100.337500", "140101.827500", "140103.317500", "140104.807500", "140106.297500", "140107.787500", "140109.277500", "140110.767500", "140112.257500", "140113.747500", "140115.237500", "140116.727500", "140118.217500", "140119.707500", "140121.197500", "140122.687500", "140124.177500", "140125.667500", "140127.157500", "140128.647500", "140130.137500", "140131.627500", "140133.117500", "140134.607500", "140136.097500", "140137.587500", "140139.077500", "140140.567500", "140142.057500", "140143.547500", "140145.037500", "140146.527500", "140148.017500", "140149.507500", "140150.997500", "140152.487500", "140153.977500", "140155.467500", "140156.957500", "140158.447500", "140159.937500", "140201.427500", "140202.917500", "140204.407500", "140205.897500", "140207.387500", "140208.877500", "140210.367500", "140211.857500", "140213.347500", "140214.837500", "140216.327500", "140217.817500", "140219.307500", "140220.797500", "140222.287500", "140223.777500", "140225.267500", "140226.757500", "140228.247500", "140229.737500", "140231.227500", "140232.717500", "140234.207500", "140235.697500", "140237.187500", "140238.677500", "140240.167500", "140241.657500", "140243.147500", "140244.637500", "140246.127500", "140247.617500", "140249.107500", "140250.597500", "140252.087500", "140253.577500", "140255.067500", "140256.557500", "140258.047500", "140259.537500", "140301.027500", "140302.517500", "140304.007500", "140305.497500", "140306.987500", "140308.477500", "140309.967500", "140311.457500", "140312.947500", "140314.437500", "140315.927500", "140317.417500", "140318.907500", "140320.397500", "140321.887500", "140323.377500", "140324.867500", "140326.357500", "140327.847500", "140329.337500", "140330.827500", "140332.317500", "140333.807500", "140335.297500", "140336.787500", "140338.277500", "140339.767500", "140341.257500", "140342.747500", "140344.237500", "140345.727500", "140347.217500", "140348.707500", "140350.197500", "140351.687500", "140353.177500", "140354.667500", "140356.157500", "140357.647500", "140359.137500", "140400.627500", "140402.117500", "140403.607500", "140405.097500", "140406.587500", "140408.077500", "140409.567500", "140411.057500", "140412.547500", "140414.037500", "140415.527500", "140417.017500", "140418.507500", "140419.997500", "140421.487500", "140422.977500", "140424.467500", "140425.957500", "140427.447500", "140428.937500", "140430.427500", "140431.917500", "140433.407500", "140434.897500", "140436.387500", "140437.877500", "140439.367500", "140440.857500", "140442.347500", "140443.837500", "140445.327500", "140446.817500", "140448.307500", "140449.797500", "140451.287500", "140452.777500", "140454.267500", "140455.757500", "140457.247500", "140458.737500", "140500.227500", "140501.717500", "140503.207500", "140504.697500", "140506.187500", "140507.677500", "140509.167500", "140510.657500", "140512.147500", "140513.637500", "140515.127500", "140516.617500", "140518.107500", "140519.597500", "140521.087500", "140522.577500", "140524.067500", "140525.557500", "140527.047500", "140528.537500", "140530.027500", "140531.517500", "140533.007500", "140534.497500", "140535.987500", "140537.477500", "140538.967500", "140540.457500", "140541.947500", "140543.437500", "140544.927500", "140546.417500", "140547.907500", "140549.397500", "140550.887500", "140552.377500", "140553.867500", "140555.357500", "140556.847500", "140558.337500", "140559.827500", "140601.317500", "140602.807500", "140604.297500", "140605.787500", "140607.277500", "140608.767500", "140610.257500", "140611.747500", "140613.237500", "140614.727500", "140616.217500", "140617.707500", "140619.197500", "140620.687500", "140622.177500", "140623.667500", "140625.157500", "140626.647500", "140628.137500", "140629.627500", "140631.117500", "140632.607500", "140634.097500", "140635.587500", "140637.077500", "140638.567500", "140640.057500", "140641.547500", "140643.037500", "140644.527500", "140646.017500", "140647.507500", "140648.997500", "140650.487500", "140651.977500", "140653.467500", "140654.957500", "140656.447500", "140657.937500", "140659.427500", "140700.917500", "140702.407500", "140703.897500", "140705.387500", "140706.877500", "140708.367500", "140709.857500", "140711.347500", "140712.837500", "140714.327500", "140715.817500", "140717.307500", "140718.797500", "140720.287500", "140721.777500", "140723.267500", "140724.757500", "140726.247500", "140727.737500", "140729.227500", "140730.717500", "140732.207500", "140733.697500", "140735.187500", "140736.677500", "140738.167500", "140739.657500", "140741.147500", "140742.637500", "140744.127500", "140745.617500", "140747.107500", "140748.597500", "140750.087500", "140751.577500", "140753.067500", "140754.557500", "140756.047500", "140757.537500", "140759.027500", "140800.517500", "140802.007500", "140803.497500", "140804.987500", "140806.477500", "140807.967500", "140809.457500", "140810.947500", "140812.437500", "140813.927500", "140815.417500", "140816.907500", "140818.397500", "140819.887500", "140821.377500", "140822.867500", "140824.357500", "140825.847500", "140827.337500", "140828.827500", "140830.317500", "140831.807500", "140833.297500", "140834.787500", "140836.277500", "140837.767500", "140839.257500", "140840.747500", "140842.237500", "140843.727500", "140845.217500", "140846.707500", "140848.197500", "140849.687500", "140851.177500", "140852.667500", "140854.157500", "140855.647500", "140857.137500", "140858.627500", "140900.117500", "140901.607500", "140903.097500", "140904.587500", "140906.077500", "140907.567500", "140909.057500", "140910.547500", "140912.037500"],
      "ContentTime": ["135846.975000", "135846.978000", "135846.981000", "135846.984000", "135846.987000", "135846.990000", "135846.992000", "135846.995000", "135846.998000", "135847.001000", "135847.004000", "135847.006000", "135847.009000", "135847.011000", "135847.014000", "135847.016000", "135847.019000", "135847.021000", "135847.024000", "135906.922000", "135906.925000", "135906.927000", "135906.930000", "135906.932000", "135906.935000", "135906.938000", "135906.940000", "135906.943000", "135906.945000", "135906.948000", "135906.950000", "135906.953000", "135906.956000", "135906.958000", "135906.966000", "135906.969000", "135906.971000", "135906.974000", "135906.976000", "135906.979000", "135926.921000", "135926.924000", "135926.926000", "135926.929000", "135926.932000", "135926.934000", "135926.937000", "135926.949000", "135926.951000", "135926.954000", "135926.956000", "135926.959000", "135926.961000", "135926.964000", "135926.966000", "135926.989000", "135926.992000", "135926.994000", "135927.002000", "135927.005000", "135946.944000", "135946.947000", "135946.949000", "135946.952000", "135946.955000", "135946.957000", "135946.960000", "135946.962000", "135946.965000", "135946.967000", "135946.970000", "135946.972000", "135946.975000", "135946.977000", "135946.980000", "135946.982000", "135946.985000", "135946.987000", "135946.990000", "135946.992000", "140026.981000", "140026.984000", "140026.987000", "140026.989000", "140026.992000", "140026.994000", "140026.997000", "140027.001000", "140027.003000", "140027.006000", "140027.008000", "140027.011000", "140027.013000", "140027.016000", "140027.019000", "140027.021000", "140027.024000", "140027.026000", "140027.029000", "140027.031000", "140027.034000", "140027.036000", "140027.039000", "140027.042000", "140027.044000", "140027.047000", "140027.049000", "140027.052000", "140027.055000", "140027.058000", "140027.060000", "140027.063000", "140107.480000", "140107.482000", "140107.485000", "140107.488000", "140107.490000", "140107.493000", "140107.495000", "140107.498000", "140107.501000", "140107.503000", "140107.506000", "140107.508000", "140107.511000", "140107.513000", "140107.516000", "140107.518000", "140107.521000", "140107.523000", "140107.526000", "140107.529000", "140107.531000", "140107.534000", "140107.536000", "140107.539000", "140107.541000", "140107.544000", "140107.546000", "140146.953000", "140146.957000", "140146.960000", "140146.962000", "140146.965000", "140146.968000", "140146.971000", "140146.973000", "140146.976000", "140146.978000", "140146.981000", "140146.984000", "140146.986000", "140146.989000", "140146.992000", "140146.994000", "140146.997000", "140147.001000", "140147.003000", "140147.006000", "140147.008000", "140147.011000", "140147.014000", "140147.016000", "140147.019000", "140147.021000", "140226.946000", "140226.949000", "140226.952000", "140226.954000", "140226.957000", "140226.959000", "140226.962000", "140226.964000", "140226.967000", "140226.969000", "140226.972000", "140226.974000", "140226.977000", "140226.979000", "140226.982000", "140226.985000", "140226.987000", "140226.990000", "140226.992000", "140226.995000", "140226.997000", "140227.001000", "140227.004000", "140227.007000", "140227.009000", "140227.012000", "140227.014000", "140306.965000", "140306.968000", "140306.971000", "140306.973000", "140306.976000", "140306.978000", "140306.981000", "140306.983000", "140306.986000", "140306.988000", "140306.991000", "140306.993000", "140306.996000", "140307.000000", "140307.002000", "140307.005000", "140307.007000", "140307.010000", "140307.012000", "140307.015000", "140307.017000", "140307.020000", "140307.022000", "140307.025000", "140307.027000", "140307.030000", "140307.033000", "140346.950000", "140346.953000", "140346.955000", "140346.958000", "140346.961000", "140346.963000", "140346.966000", "140346.975000", "140346.978000", "140346.980000", "140346.983000", "140346.985000", "140346.988000", "140346.990000", "140346.993000", "140346.995000", "140346.998000", "140347.001000", "140347.004000", "140347.007000", "140347.009000", "140347.012000", "140347.014000", "140347.017000", "140347.020000", "140347.022000", "140347.025000", "140426.965000", "140426.968000", "140426.970000", "140426.973000", "140426.975000", "140426.978000", "140426.981000", "140426.983000", "140426.986000", "140426.988000", "140426.991000", "140426.993000", "140426.996000", "140426.998000", "140427.002000", "140427.004000", "140427.007000", "140427.009000", "140427.012000", "140427.015000", "140427.017000", "140427.020000", "140427.022000", "140427.025000", "140427.032000", "140427.035000", "140427.038000", "140506.961000", "140506.964000", "140506.966000", "140506.969000", "140506.972000", "140506.974000", "140506.977000", "140506.979000", "140506.982000", "140506.984000", "140506.987000", "140506.989000", "140506.992000", "140506.994000", "140506.997000", "140507.000000", "140507.003000", "140507.005000", "140507.008000", "140507.010000", "140507.013000", "140507.016000", "140507.018000", "140507.021000", "140507.023000", "140507.026000", "140507.028000", "140546.946000", "140546.949000", "140546.951000", "140546.954000", "140546.956000", "140546.959000", "140546.961000", "140546.964000", "140546.966000", "140546.969000", "140546.971000", "140546.974000", "140546.976000", "140546.979000", "140546.982000", "140546.984000", "140546.987000", "140546.989000", "140546.992000", "140546.994000", "140546.997000", "140547.000000", "140547.003000", "140547.005000", "140547.008000", "140547.010000", "140626.960000", "140626.963000", "140626.965000", "140626.968000", "140626.970000", "140626.973000", "140626.975000", "140626.978000", "140626.981000", "140626.984000", "140626.986000", "140626.989000", "140626.991000", "140626.994000", "140626.996000", "140627.000000", "140627.002000", "140627.005000", "140627.007000", "140627.010000", "140627.012000", "140627.015000", "140627.017000", "140627.020000", "140627.022000", "140627.025000", "140627.028000", "140706.950000", "140706.953000", "140706.956000", "140706.958000", "140706.961000", "140706.963000", "140706.966000", "140706.968000", "140706.971000", "140706.973000", "140706.976000", "140706.978000", "140706.981000", "140706.983000", "140706.986000", "140706.988000", "140706.991000", "140706.993000", "140706.996000", "140707.000000", "140707.002000", "140707.005000", "140707.007000", "140707.010000", "140707.012000", "140707.015000", "140707.017000", "140726.891000", "140726.894000", "140726.896000", "140726.899000", "140726.901000", "140726.904000", "140726.907000", "140726.909000", "140726.912000", "140726.914000", "140726.917000", "140726.919000", "140726.922000", "140726.924000", "140806.957000", "140806.959000", "140806.962000", "140806.964000", "140806.967000", "140806.970000", "140806.972000", "140806.975000", "140806.977000", "140806.980000", "140806.982000", "140806.985000", "140806.987000", "140806.990000", "140806.992000", "140806.995000", "140806.997000", "140807.001000", "140807.004000", "140807.006000", "140807.009000", "140807.011000", "140807.014000", "140807.016000", "140807.019000", "140807.021000", "140846.959000", "140846.962000", "140846.964000", "140846.967000", "140846.969000", "140846.972000", "140846.975000", "140846.977000", "140846.980000", "140846.983000", "140846.986000", "140846.989000", "140846.991000", "140846.994000", "140846.996000", "140847.000000", "140847.002000", "140847.005000", "140847.007000", "140847.010000", "140847.012000", "140847.015000", "140847.018000", "140847.020000", "140847.023000", "140847.025000", "140847.028000", "140915.366000", "140915.369000", "140915.372000", "140915.375000", "140915.377000", "140915.380000", "140915.383000", "140915.385000", "140915.388000", "140915.390000", "140915.393000", "140915.396000", "140915.399000", "140915.401000", "140915.404000", "140915.407000", "140915.409000", "140915.412000", "140915.414000"],
