{
  "AcquisitionMatrixPE": 104,
  "AcquisitionNumber": 1,
  "AcquisitionTime": "16:05:17.242500",
  "BandwidthPerPixelPhaseEncode": 17.17,
  "BaseResolution": 104,
  "BodyPartExamined": "BRAIN",
  "CoilCombinationMethod": "Sum of Squares",
  "ConsistencyInfo": "N4_VE11C_LATEST_20160120",
  "ConversionSoftware": "dcm2niix",
  "ConversionSoftwareVersion": "v1.0.20211006",
  "DerivedVendorReportedEchoSpacing": 0.000560011,
  "DeviceSerialNumber": "167006",
  "DwellTime": 2.1e-06,
  "EchoTime": 0.037,
  "EchoTime1": 0.037,
  "EchoTime2": 0.001,
  "EchoTrainLength": 104,
  "EffectiveEchoSpacing": 0.000560011,
  "FlipAngle": 52,
  "HeudiconvVersion": "0.11.3.post9+gc939bf8",
  "ImageComments": "Unaliased MB4/PE3/LB",
  "ImageOrientationPatientDICOM": [0.999279, -0.0363556, 0.0109013, 0.0378645, 0.935088, -0.352386],
  "ImageOrientationText": "Tra>Cor(-20.6)>Sag(-0.1)",
  "ImageType": [
    "ORIGINAL",
    "PRIMARY",
    "P",
    "MB",
    "ND",
    "MOSAIC",
    "PHASE"
],
  "ImagingFrequency": 123.259,
  "InPlanePhaseEncodingDirectionDICOM": "COL",
  "InstitutionAddress": "Chemin Queen-Mary 4565,Montreal,District,CA,H3W 1W5",
  "InstitutionName": "IUGM",
  "InstitutionalDepartmentName": "Department",
  "MRAcquisitionType": "2D",
  "MagneticFieldStrength": 3,
  "Manufacturer": "Siemens",
  "ManufacturersModelName": "Prisma_fit",
  "MatrixCoilMode": "SENSE",
  "Modality": "MR",
  "MultibandAccelerationFactor": 4,
  "PartialFourier": 1,
  "PatientPosition": "HFS",
  "PercentPhaseFOV": 100,
  "PercentSampling": 100,
  "PhaseEncodingDirection": "j",
  "PhaseEncodingSteps": 104,
  "PhaseResolution": 1,
  "PixelBandwidth": 2290,
  "ProcedureStepDescription": "games^mariostars",
  "ProtocolName": "func_task-mariostars_run-02",
  "PulseSequenceDetails": "%CustomerSeq%\\cmrr_mbep2d_bold",
  "ReceiveCoilActiveElements": "HC1-7;NC1,2",
  "ReceiveCoilName": "HeadNeck_64",
  "ReconMatrixPE": 104,
  "RepetitionTime": 1.49,
  "SAR": 0.0409237,
  "ScanOptions": "FS",
  "ScanningSequence": "EP",
  "SequenceName": "epfid2d1_104",
  "SequenceVariant": "SK\\SS",
  "SeriesDescription": "func_task-mariostars_run-02",
  "SeriesNumber": 15,
  "ShimSetting": [626, -7255, -8818, 555, 19, -195, -97, 1],
  "SliceThickness": 2,
  "SliceTiming": [0, 0.7825, 0.0975, 0.88, 0.195, 0.98, 0.2925, 1.0775, 0.39, 1.175, 0.49, 1.2725, 0.5875, 1.37, 0.685, 0, 0.7825, 0.0975, 0.88, 0.195, 0.98, 0.2925, 1.0775, 0.39, 1.175, 0.49, 1.2725, 0.5875, 1.37, 0.685, 0, 0.7825, 0.0975, 0.88, 0.195, 0.98, 0.2925, 1.0775, 0.39, 1.175, 0.49, 1.2725, 0.5875, 1.37, 0.685, 0, 0.7825, 0.0975, 0.88, 0.195, 0.98, 0.2925, 1.0775, 0.39, 1.175, 0.49, 1.2725, 0.5875, 1.37, 0.685],
  "SoftwareVersions": "syngo MR E11",
  "SpacingBetweenSlices": 2,
  "StationName": "MRC35049",
  "TaskName": "mariostars",
  "TotalReadoutTime": 0.0576811,
  "TxRefAmp": 227.987,
  "WipMemBlock": "cff33b0e-f498-4b53-91bc-16d550fb3b1b||Sequence: R017 ve11c/master r/75a17815+; Jun 28 2022 16:32:11 by eja",
  "dcmmeta_affine": [
    [-1.9985588788986206, 0.07572892308235168, -0.005235125310719013, 102.9329605102539],
    [0.07271123677492142, 1.8701765537261963, -0.7050904631614685, -68.00531005859375],
    [0.021802565082907677, 0.7047727108001709, 1.871582269668579, -68.33857727050781],
    [0.0, 0.0, 0.0, 1.0]
],
  "dcmmeta_reorient_transform": [
    [0.0, -1.0, 0.0, 103.0],
    [1.0, 0.0, 0.0, 0.0],
    [0.0, 0.0, 1.0, 0.0],
    [0.0, 0.0, 0.0, 1.0]
],
  "dcmmeta_shape": [104, 104, 60, 462],
  "dcmmeta_slice_dim": 2,
  "dcmmeta_version": 0.6,
  "global": {
    "const": {
      "AcquisitionMatrix": [104, 0, 0, 104],
      "AngioFlag": "N",
      "BitsAllocated": 16,
      "BitsStored": 16,
      "BodyPartExamined": "BRAIN",
      "Columns": 832,
      "EchoNumbers": 1,
      "EchoTime": 37.0,
      "EchoTrainLength": 104,
      "FlipAngle": 52.0,
      "HighBit": 15,
      "ImageOrientationPatient": [0.99927945588721, -0.0363556196823, 0.01090128246008, 0.03786446101585, 0.93508830569186, -0.3523863549434],
      "ImagePositionPatient": [-865.7738093208, -778.90027310471, 252.85414575109],
      "ImageType": [
        "ORIGINAL",
        "PRIMARY",
        "P",
        "MB",
        "ND",
        "MOSAIC"
],
      "ImagedNucleus": "1H",
      "ImagingFrequency": 123.258772,
      "InPlanePhaseEncodingDirection": "COL",
      "LargestImagePixelValue": 4095,
      "MRAcquisitionType": "2D",
      "MagneticFieldStrength": 3.0,
      "Manufacturer": "SIEMENS",
      "ManufacturerModelName": "Prisma_fit",
      "Modality": "MR",
      "NumberOfAverages": 1.0,
      "NumberOfPhaseEncodingSteps": 104,
      "PercentPhaseFieldOfView": 100.0,
      "PercentSampling": 100.0,
      "PerformedProcedureStepStartTime": "154024.234000",
      "PhotometricInterpretation": "MONOCHROME2",
      "PixelBandwidth": 2290.0,
      "PixelRepresentation": 0,
      "PixelSpacing": [2.0, 2.0],
      "ProtocolName": "func_task-mariostars_run-02",
      "RepetitionTime": 1490.0,
      "RescaleIntercept": -4096.0,
      "RescaleSlope": 2.0,
      "RescaleType": "US",
      "Rows": 832,
      "SAR": 0.04092370061343,
      "SamplesPerPixel": 1,
      "ScanOptions": "FS",
      "ScanningSequence": "EP",
      "SequenceName": "epfid2d1_104",
      "SequenceVariant": [
        "SK",
        "SS"
],
      "SeriesDescription": "func_task-mariostars_run-02",
      "SeriesNumber": 15,
      "SeriesTime": "160632.655000",
      "SliceLocation": -40.245118234126,
      "SliceThickness": 2.0,
      "SmallestImagePixelValue": 0,
      "SoftwareVersions": "syngo MR E11",
      "SpacingBetweenSlices": 2.0000000325446,
      "SpecificCharacterSet": "ISO_IR 100",
      "StudyID": "1",
      "StudyTime": "154024.166000",
      "TransmitCoilName": "Body",
      "VariableFlipAngleFlag": "N",
      "WindowCenterWidthExplanation": "Algo1",
      "dBdt": 0.0},
    "slices": {}
  },
  "time": {
    "samples": {
      "AcquisitionNumber": [1, 2, 3, 4, 5, 6, 7, 8, 9, 10, 11, 12, 13, 14, 15, 16, 17, 18, 19, 20, 21, 22, 23, 24, 25, 26, 27, 28, 29, 30, 31, 32, 33, 34, 35, 36, 37, 38, 39, 40, 41, 42, 43, 44, 45, 46, 47, 48, 49, 50, 51, 52, 53, 54, 55, 56, 57, 58, 59, 60, 61, 62, 63, 64, 65, 66, 67, 68, 69, 70, 71, 72, 73, 74, 75, 76, 77, 78, 79, 80, 81, 82, 83, 84, 85, 86, 87, 88, 89, 90, 91, 92, 93, 94, 95, 96, 97, 98, 99, 100, 101, 102, 103, 104, 105, 106, 107, 108, 109, 110, 111, 112, 113, 114, 115, 116, 117, 118, 119, 120, 121, 122, 123, 124, 125, 126, 127, 128, 129, 130, 131, 132, 133, 134, 135, 136, 137, 138, 139, 140, 141, 142, 143, 144, 145, 146, 147, 148, 149, 150, 151, 152, 153, 154, 155, 156, 157, 158, 159, 160, 161, 162, 163, 164, 165, 166, 167, 168, 169, 170, 171, 172, 173, 174, 175, 176, 177, 178, 179, 180, 181, 182, 183, 184, 185, 186, 187, 188, 189, 190, 191, 192, 193, 194, 195, 196, 197, 198, 199, 200, 201, 202, 203, 204, 205, 206, 207, 208, 209, 210, 211, 212, 213, 214, 215, 216, 217, 218, 219, 220, 221, 222, 223, 224, 225, 226, 227, 228, 229, 230, 231, 232, 233, 234, 235, 236, 237, 238, 239, 240, 241, 242, 243, 244, 245, 246, 247, 248, 249, 250, 251, 252, 253, 254, 255, 256, 257, 258, 259, 260, 261, 262, 263, 264, 265, 266, 267, 268, 269, 270, 271, 272, 273, 274, 275, 276, 277, 278, 279, 280, 281, 282, 283, 284, 285, 286, 287, 288, 289, 290, 291, 292, 293, 294, 295, 296, 297, 298, 299, 300, 301, 302, 303, 304, 305, 306, 307, 308, 309, 310, 311, 312, 313, 314, 315, 316, 317, 318, 319, 320, 321, 322, 323, 324, 325, 326, 327, 328, 329, 330, 331, 332, 333, 334, 335, 336, 337, 338, 339, 340, 341, 342, 343, 344, 345, 346, 347, 348, 349, 350, 351, 352, 353, 354, 355, 356, 357, 358, 359, 360, 361, 362, 363, 364, 365, 366, 367, 368, 369, 370, 371, 372, 373, 374, 375, 376, 377, 378, 379, 380, 381, 382, 383, 384, 385, 386, 387, 388, 389, 390, 391, 392, 393, 394, 395, 396, 397, 398, 399, 400, 401, 402, 403, 404, 405, 406, 407, 408, 409, 410, 411, 412, 413, 414, 415, 416, 417, 418, 419, 420, 421, 422, 423, 424, 425, 426, 427, 428, 429, 430, 431, 432, 433, 434, 435, 436, 437, 438, 439, 440, 441, 442, 443, 444, 445, 446, 447, 448, 449, 450, 451, 452, 453, 454, 455, 456, 457, 458, 459, 460, 461, 462],
      "AcquisitionTime": ["160517.242500", "160518.732500", "160520.222500", "160521.712500", "160523.202500", "160524.692500", "160526.182500", "160527.672500", "160529.162500", "160530.652500", "160532.142500", "160533.632500", "160535.122500", "160536.612500", "160538.102500", "160539.592500", "160541.082500", "160542.572500", "160544.062500", "160545.552500", "160547.042500", "160548.532500", "160550.022500", "160551.512500", "160553.002500", "160554.492500", "160555.982500", "160557.472500", "160558.962500", "160600.452500", "160601.942500", "160603.432500", "160604.922500", "160606.412500", "160607.902500", "160609.392500", "160610.882500", "160612.372500", "160613.862500", "160615.352500", "160616.842500", "160618.332500", "160619.822500", "160621.312500", "160622.802500", "160624.292500", "160625.782500", "160627.272500", "160628.762500", "160630.252500", "160631.742500", "160633.232500", "160634.722500", "160636.212500", "160637.702500", "160639.192500", "160640.682500", "160642.172500", "160643.662500", "160645.152500", "160646.642500", "160648.132500", "160649.622500", "160651.112500", "160652.602500", "160654.092500", "160655.582500", "160657.072500", "160658.562500", "160700.052500", "160701.542500", "160703.032500", "160704.522500", "160706.012500", "160707.502500", "160708.992500", "160710.482500", "160711.972500", "160713.462500", "160714.952500", "160716.442500", "160717.932500", "160719.422500", "160720.912500", "160722.402500", "160723.892500", "160725.382500", "160726.872500", "160728.362500", "160729.852500", "160731.342500", "160732.832500", "160734.322500", "160735.812500", "160737.302500", "160738.792500", "160740.282500", "160741.772500", "160743.262500", "160744.752500", "160746.242500", "160747.732500", "160749.222500", "160750.712500", "160752.202500", "160753.692500", "160755.182500", "160756.672500", "160758.162500", "160759.652500", "160801.142500", "160802.632500", "160804.122500", "160805.612500", "160807.102500", "160808.592500", "160810.082500", "160811.572500", "160813.062500", "160814.552500", "160816.042500", "160817.532500", "160819.022500", "160820.512500", "160822.002500", "160823.492500", "160824.982500", "160826.472500", "160827.962500", "160829.452500", "160830.942500", "160832.432500", "160833.922500", "160835.412500", "160836.902500", "160838.392500", "160839.882500", "160841.372500", "160842.862500", "160844.352500", "160845.842500", "160847.332500", "160848.822500", "160850.312500", "160851.802500", "160853.292500", "160854.782500", "160856.272500", "160857.762500", "160859.252500", "160900.742500", "160902.232500", "160903.722500", "160905.212500", "160906.702500", "160908.192500", "160909.682500", "160911.172500", "160912.662500", "160914.152500", "160915.642500", "160917.132500", "160918.622500", "160920.112500", "160921.602500", "160923.092500", "160924.582500", "160926.072500", "160927.562500", "160929.052500", "160930.542500", "160932.032500", "160933.522500", "160935.012500", "160936.502500", "160937.992500", "160939.482500", "160940.972500", "160942.462500", "160943.952500", "160945.442500", "160946.932500", "160948.422500", "160949.912500", "160951.402500", "160952.892500", "160954.382500", "160955.872500", "160957.362500", "160958.852500", "161000.342500", "161001.832500", "161003.322500", "161004.812500", "161006.302500", "161007.792500", "161009.282500", "161010.772500", "161012.262500", "161013.752500", "161015.242500", "161016.732500", "161018.222500", "161019.712500", "161021.202500", "161022.692500", "161024.182500", "161025.672500", "161027.162500", "161028.652500", "161030.142500", "161031.632500", "161033.122500", "161034.612500", "161036.102500", "161037.592500", "161039.082500", "161040.572500", "161042.062500", "161043.552500", "161045.042500", "161046.532500", "161048.022500", "161049.512500", "161051.002500", "161052.492500", "161053.982500", "161055.472500", "161056.962500", "161058.452500", "161059.942500", "161101.432500", "161102.922500", "161104.412500", "161105.902500", "161107.392500", "161108.882500", "161110.372500", "161111.862500", "161113.352500", "161114.842500", "161116.332500", "161117.822500", "161119.312500", "161120.802500", "161122.292500", "161123.782500", "161125.272500", "161126.762500", "161128.252500", "161129.742500", "161131.232500", "161132.722500", "161134.212500", "161135.702500", "161137.192500", "161138.682500", "161140.172500", "161141.662500", "161143.152500", "161144.642500", "161146.132500", "161147.622500", "161149.112500", "161150.602500", "161152.092500", "161153.582500", "161155.072500", "161156.562500", "161158.052500", "161159.542500", "161201.032500", "161202.522500", "161204.012500", "161205.502500", "161206.992500", "161208.482500", "161209.972500", "161211.462500", "161212.952500", "161214.442500", "161215.932500", "161217.422500", "161218.912500", "161220.402500", "161221.892500", "161223.382500", "161224.872500", "161226.362500", "161227.852500", "161229.342500", "161230.832500", "161232.322500", "161233.812500", "161235.302500", "161236.792500", "161238.282500", "161239.772500", "161241.262500", "161242.752500", "161244.242500", "161245.732500", "161247.222500", "161248.712500", "161250.202500", "161251.692500", "161253.182500", "161254.672500", "161256.162500", "161257.652500", "161259.142500", "161300.632500", "161302.122500", "161303.612500", "161305.102500", "161306.592500", "161308.082500", "161309.572500", "161311.062500", "161312.552500", "161314.042500", "161315.532500", "161317.022500", "161318.512500", "161320.002500", "161321.492500", "161322.982500", "161324.472500", "161325.962500", "161327.452500", "161328.942500", "161330.432500", "161331.922500", "161333.412500", "161334.902500", "161336.392500", "161337.882500", "161339.372500", "161340.862500", "161342.352500", "161343.842500", "161345.332500", "161346.822500", "161348.312500", "161349.802500", "161351.292500", "161352.782500", "161354.272500", "161355.762500", "161357.252500", "161358.742500", "161400.232500", "161401.722500", "161403.212500", "161404.702500", "161406.192500", "161407.682500", "161409.172500", "161410.662500", "161412.152500", "161413.642500", "161415.132500", "161416.622500", "161418.112500", "161419.602500", "161421.092500", "161422.582500", "161424.072500", "161425.562500", "161427.052500", "161428.542500", "161430.032500", "161431.522500", "161433.012500", "161434.502500", "161435.992500", "161437.482500", "161438.972500", "161440.462500", "161441.952500", "161443.442500", "161444.932500", "161446.422500", "161447.912500", "161449.402500", "161450.892500", "161452.382500", "161453.872500", "161455.362500", "161456.852500", "161458.342500", "161459.832500", "161501.322500", "161502.812500", "161504.302500", "161505.792500", "161507.282500", "161508.772500", "161510.262500", "161511.752500", "161513.242500", "161514.732500", "161516.222500", "161517.712500", "161519.202500", "161520.692500", "161522.182500", "161523.672500", "161525.162500", "161526.652500", "161528.142500", "161529.632500", "161531.122500", "161532.612500", "161534.102500", "161535.592500", "161537.082500", "161538.572500", "161540.062500", "161541.552500", "161543.042500", "161544.532500", "161546.022500", "161547.512500", "161549.002500", "161550.492500", "161551.982500", "161553.472500", "161554.962500", "161556.452500", "161557.942500", "161559.432500", "161600.922500", "161602.412500", "161603.902500", "161605.392500", "161606.882500", "161608.372500", "161609.862500", "161611.352500", "161612.842500", "161614.332500", "161615.822500", "161617.312500", "161618.802500", "161620.292500", "161621.782500", "161623.272500", "161624.762500", "161626.252500", "161627.742500", "161629.232500", "161630.722500", "161632.212500", "161633.702500", "161635.192500", "161636.682500", "161638.172500", "161639.662500", "161641.152500", "161642.642500", "161644.132500"],
      "ContentTime": ["160632.657000", "160632.660000", "160632.663000", "160632.665000", "160632.668000", "160632.670000", "160632.673000", "160632.675000", "160632.678000", "160632.680000", "160632.683000", "160632.685000", "160632.688000", "160632.690000", "160632.693000", "160632.695000", "160632.698000", "160632.700000", "160632.711000", "160632.714000", "160632.717000", "160632.719000", "160632.722000", "160632.724000", "160632.727000", "160632.729000", "160632.732000", "160652.614000", "160652.617000", "160652.620000", "160652.622000", "160652.625000", "160652.627000", "160652.630000", "160652.632000", "160652.635000", "160652.637000", "160652.640000", "160652.642000", "160652.645000", "160652.647000", "160652.650000", "160652.653000", "160652.655000", "160652.658000", "160652.660000", "160652.663000", "160712.620000", "160712.623000", "160712.626000", "160712.628000", "160712.631000", "160712.633000", "160712.636000", "160712.638000", "160712.641000", "160712.643000", "160712.646000", "160712.648000", "160712.651000", "160712.653000", "160712.656000", "160712.658000", "160712.661000", "160712.663000", "160712.666000", "160712.669000", "160732.612000", "160732.614000", "160732.617000", "160732.620000", "160732.622000", "160732.625000", "160732.627000", "160732.630000", "160732.632000", "160732.635000", "160732.637000", "160732.640000", "160732.643000", "160732.646000", "160732.648000", "160732.651000", "160732.654000", "160732.656000", "160732.659000", "160732.661000", "160812.683000", "160812.686000", "160812.689000", "160812.692000", "160812.695000", "160812.697000", "160812.700000", "160812.702000", "160812.705000", "160812.707000", "160812.710000", "160812.713000", "160812.715000", "160812.718000", "160812.721000", "160812.723000", "160812.726000", "160812.729000", "160812.732000", "160812.734000", "160812.737000", "160812.739000", "160812.742000", "160812.744000", "160812.747000", "160812.750000", "160812.753000", "160812.755000", "160812.758000", "160812.760000", "160852.628000", "160852.631000", "160852.634000", "160852.636000", "160852.639000", "160852.649000", "160852.651000", "160852.654000", "160852.656000", "160852.659000", "160852.662000", "160852.664000", "160852.667000", "160852.669000", "160852.672000", "160852.674000", "160852.677000", "160852.679000", "160852.682000", "160852.684000", "160852.687000", "160852.689000", "160852.692000", "160852.695000", "160852.698000", "160852.700000", "160933.126000", "160933.129000", "160933.131000", "160933.134000", "160933.136000", "160933.139000", "160933.141000", "160933.144000", "160933.147000", "160933.149000", "160933.152000", "160933.154000", "160933.157000", "160933.159000", "160933.162000", "160933.164000", "160933.167000", "160933.170000", "160933.172000", "160933.175000", "160933.177000", "160933.180000", "160933.182000", "160933.185000", "160933.187000", "160933.190000", "160933.192000", "161012.632000", "161012.634000", "161012.637000", "161012.640000", "161012.642000", "161012.645000", "161012.647000", "161012.650000", "161012.652000", "161012.655000", "161012.657000", "161012.660000", "161012.662000", "161012.665000", "161012.667000", "161012.670000", "161012.672000", "161012.675000", "161012.677000", "161012.680000", "161012.682000", "161012.685000", "161012.687000", "161012.690000", "161012.692000", "161012.695000", "161012.698000", "161052.634000", "161052.636000", "161052.639000", "161052.641000", "161052.644000", "161052.647000", "161052.649000", "161052.652000", "161052.654000", "161052.657000", "161052.659000", "161052.662000", "161052.664000", "161052.667000", "161052.669000", "161052.672000", "161052.674000", "161052.677000", "161052.679000", "161052.682000", "161052.684000", "161052.687000", "161052.689000", "161052.692000", "161052.695000", "161052.697000", "161052.700000", "161132.637000", "161132.639000", "161132.642000", "161132.644000", "161132.647000", "161132.649000", "161132.652000", "161132.655000", "161132.657000", "161132.659000", "161132.662000", "161132.665000", "161132.672000", "161132.674000", "161132.677000", "161132.679000", "161132.682000", "161132.684000", "161132.687000", "161132.689000", "161132.692000", "161132.695000", "161132.697000", "161132.700000", "161132.702000", "161132.705000", "161132.707000", "161212.644000", "161212.647000", "161212.650000", "161212.652000", "161212.655000", "161212.657000", "161212.660000", "161212.662000", "161212.665000", "161212.667000", "161212.670000", "161212.673000", "161212.675000", "161212.678000", "161212.680000", "161212.683000", "161212.685000", "161212.688000", "161212.690000", "161212.693000", "161212.695000", "161212.698000", "161212.700000", "161212.703000", "161212.705000", "161212.708000", "161212.711000", "161252.641000", "161252.644000", "161252.646000", "161252.649000", "161252.651000", "161252.654000", "161252.657000", "161252.659000", "161252.662000", "161252.664000", "161252.667000", "161252.669000", "161252.672000", "161252.674000", "161252.677000", "161252.679000", "161252.682000", "161252.684000", "161252.687000", "161252.689000", "161252.692000", "161252.694000", "161252.697000", "161252.699000", "161252.702000", "161252.704000", "161252.707000", "161332.633000", "161332.636000", "161332.639000", "161332.641000", "161332.644000", "161332.646000", "161332.649000", "161332.651000", "161332.654000", "161332.656000", "161332.659000", "161332.661000", "161332.664000", "161332.666000", "161332.669000", "161332.672000", "161332.674000", "161332.677000", "161332.679000", "161332.682000", "161332.685000", "161332.688000", "161332.690000", "161332.699000", "161332.702000", "161332.705000", "161412.647000", "161412.649000", "161412.652000", "161412.654000", "161412.657000", "161412.659000", "161412.662000", "161412.664000", "161412.667000", "161412.669000", "161412.672000", "161412.675000", "161412.677000", "161412.680000", "161412.682000", "161412.685000", "161412.687000", "161412.690000", "161412.693000", "161412.695000", "161412.698000", "161412.700000", "161412.703000", "161412.705000", "161412.708000", "161412.710000", "161412.713000", "161452.638000", "161452.640000", "161452.643000", "161452.645000", "161452.648000", "161452.650000", "161452.653000", "161452.656000", "161452.658000", "161452.661000", "161452.663000", "161452.666000", "161452.668000", "161452.671000", "161452.673000", "161452.676000", "161452.678000", "161452.681000", "161452.683000", "161452.686000", "161452.688000", "161452.691000", "161452.693000", "161452.696000", "161452.699000", "161452.701000", "161452.704000", "161532.634000", "161532.637000", "161532.640000", "161532.642000", "161532.645000", "161532.647000", "161532.650000", "161532.652000", "161532.655000", "161532.657000", "161532.660000", "161532.662000", "161532.665000", "161532.668000", "161532.670000", "161532.673000", "161532.675000", "161532.678000", "161532.680000", "161532.683000", "161532.685000", "161532.688000", "161532.690000", "161532.693000", "161532.695000", "161532.698000", "161532.700000", "161612.655000", "161612.658000", "161612.660000", "161612.663000", "161612.665000", "161612.668000", "161612.670000", "161612.673000", "161612.675000", "161612.678000", "161612.680000", "161612.683000", "161612.686000", "161612.688000", "161612.691000", "161612.693000", "161612.696000", "161612.698000", "161612.701000", "161612.703000", "161612.706000", "161612.709000", "161612.711000", "161612.714000", "161612.716000", "161612.719000", "161612.721000", "161646.681000", "161646.688000", "161646.691000", "161646.693000", "161646.696000", "161646.699000", "161646.701000", "161646.704000", "161646.707000", "161646.709000", "161646.712000", "161646.715000", "161646.717000", "161646.720000", "161646.722000", "161646.725000", "161646.727000", "161646.730000", "161646.733000", "161646.735000", "161646.738000", "161646.740000", "161646.743000"],
