{
  "AcquisitionMatrixPE": 104,
  "AcquisitionNumber": 1,
  "AcquisitionTime": "16:05:17.242500",
  "BandwidthPerPixelPhaseEncode": 17.17,
  "BaseResolution": 104,
  "BodyPartExamined": "BRAIN",
  "CoilCombinationMethod": "Sum of Squares",
  "ConsistencyInfo": "N4_VE11C_LATEST_20160120",
  "ConversionSoftware": "dcm2niix",
  "ConversionSoftwareVersion": "v1.0.20211006",
  "DerivedVendorReportedEchoSpacing": 0.000560011,
  "DeviceSerialNumber": "167006",
  "DwellTime": 2.1e-06,
  "EchoTime": 0.037,
  "EchoTrainLength": 104,
  "EffectiveEchoSpacing": 0.000560011,
  "FlipAngle": 52,
  "HeudiconvVersion": "0.11.3.post9+gc939bf8",
  "ImageComments": "Unaliased MB4/PE3/LB",
  "ImageOrientationPatientDICOM": [0.999279, -0.0363556, 0.0109013, 0.0378645, 0.935088, -0.352386],
  "ImageOrientationText": "Tra>Cor(-20.6)>Sag(-0.1)",
  "ImageType": [
    "ORIGINAL",
    "PRIMARY",
    "M",
    "MB",
    "ND",
    "MOSAIC"
],
  "ImagingFrequency": 123.259,
  "InPlanePhaseEncodingDirectionDICOM": "COL",
  "InstitutionAddress": "Chemin Queen-Mary 4565,Montreal,District,CA,H3W 1W5",
  "InstitutionName": "IUGM",
  "InstitutionalDepartmentName": "Department",
  "MRAcquisitionType": "2D",
  "MagneticFieldStrength": 3,
  "Manufacturer": "Siemens",
  "ManufacturersModelName": "Prisma_fit",
  "MatrixCoilMode": "SENSE",
  "Modality": "MR",
  "MultibandAccelerationFactor": 4,
  "PartialFourier": 1,
  "PatientPosition": "HFS",
  "PercentPhaseFOV": 100,
  "PercentSampling": 100,
  "PhaseEncodingDirection": "j",
  "PhaseEncodingSteps": 104,
  "PhaseResolution": 1,
  "PixelBandwidth": 2290,
  "ProcedureStepDescription": "games^mariostars",
  "ProtocolName": "func_task-mariostars_run-02",
  "PulseSequenceDetails": "%CustomerSeq%\\cmrr_mbep2d_bold",
  "ReceiveCoilActiveElements": "HC1-7;NC1,2",
  "ReceiveCoilName": "HeadNeck_64",
  "ReconMatrixPE": 104,
  "RepetitionTime": 1.49,
  "SAR": 0.0409237,
  "ScanOptions": "FS",
  "ScanningSequence": "EP",
  "SequenceName": "epfid2d1_104",
  "SequenceVariant": "SK\\SS",
  "SeriesDescription": "func_task-mariostars_run-02",
  "SeriesNumber": 14,
  "ShimSetting": [626, -7255, -8818, 555, 19, -195, -97, 1],
  "SliceThickness": 2,
  "SliceTiming": [0, 0.7825, 0.0975, 0.88, 0.195, 0.98, 0.2925, 1.0775, 0.39, 1.175, 0.49, 1.2725, 0.5875, 1.37, 0.685, 0, 0.7825, 0.0975, 0.88, 0.195, 0.98, 0.2925, 1.0775, 0.39, 1.175, 0.49, 1.2725, 0.5875, 1.37, 0.685, 0, 0.7825, 0.0975, 0.88, 0.195, 0.98, 0.2925, 1.0775, 0.39, 1.175, 0.49, 1.2725, 0.5875, 1.37, 0.685, 0, 0.7825, 0.0975, 0.88, 0.195, 0.98, 0.2925, 1.0775, 0.39, 1.175, 0.49, 1.2725, 0.5875, 1.37, 0.685],
  "SoftwareVersions": "syngo MR E11",
  "SpacingBetweenSlices": 2,
  "StationName": "MRC35049",
  "TaskName": "mariostars",
  "TotalReadoutTime": 0.0576811,
  "TxRefAmp": 227.987,
  "WipMemBlock": "cff33b0e-f498-4b53-91bc-16d550fb3b1b||Sequence: R017 ve11c/master r/75a17815+; Jun 28 2022 16:32:11 by eja",
  "dcmmeta_affine": [
    [-1.9985588788986206, 0.07572892308235168, -0.005235125310719013, 102.9329605102539],
    [0.07271123677492142, 1.8701765537261963, -0.7050904631614685, -68.00531005859375],
    [0.021802565082907677, 0.7047727108001709, 1.871582269668579, -68.33857727050781],
    [0.0, 0.0, 0.0, 1.0]
],
  "dcmmeta_reorient_transform": [
    [0.0, -1.0, 0.0, 103.0],
    [1.0, 0.0, 0.0, 0.0],
    [0.0, 0.0, 1.0, 0.0],
    [0.0, 0.0, 0.0, 1.0]
],
  "dcmmeta_shape": [104, 104, 60, 462],
  "dcmmeta_slice_dim": 2,
  "dcmmeta_version": 0.6,
  "global": {
    "const": {
      "AcquisitionMatrix": [104, 0, 0, 104],
      "AngioFlag": "N",
      "BitsAllocated": 16,
      "BitsStored": 16,
      "BodyPartExamined": "BRAIN",
      "Columns": 832,
      "EchoNumbers": 1,
      "EchoTime": 37.0,
      "EchoTrainLength": 104,
      "FlipAngle": 52.0,
      "HighBit": 15,
      "ImageOrientationPatient": [0.99927945588721, -0.0363556196823, 0.01090128246008, 0.03786446101585, 0.93508830569186, -0.3523863549434],
      "ImagePositionPatient": [-865.7738093208, -778.90027310471, 252.85414575109],
      "ImageType": [
        "ORIGINAL",
        "PRIMARY",
        "M",
        "MB",
        "ND",
        "MOSAIC"
],
      "ImagedNucleus": "1H",
      "ImagingFrequency": 123.258772,
      "InPlanePhaseEncodingDirection": "COL",
      "MRAcquisitionType": "2D",
      "MagneticFieldStrength": 3.0,
      "Manufacturer": "SIEMENS",
      "ManufacturerModelName": "Prisma_fit",
      "Modality": "MR",
      "NumberOfAverages": 1.0,
      "NumberOfPhaseEncodingSteps": 104,
      "PercentPhaseFieldOfView": 100.0,
      "PercentSampling": 100.0,
      "PerformedProcedureStepStartTime": "154024.234000",
      "PhotometricInterpretation": "MONOCHROME2",
      "PixelBandwidth": 2290.0,
      "PixelRepresentation": 0,
      "PixelSpacing": [2.0, 2.0],
      "ProtocolName": "func_task-mariostars_run-02",
      "RepetitionTime": 1490.0,
      "Rows": 832,
      "SAR": 0.04092370061343,
      "SamplesPerPixel": 1,
      "ScanOptions": "FS",
      "ScanningSequence": "EP",
      "SequenceName": "epfid2d1_104",
      "SequenceVariant": [
        "SK",
        "SS"
],
      "SeriesDescription": "func_task-mariostars_run-02",
      "SeriesNumber": 14,
      "SeriesTime": "160632.525000",
      "SliceLocation": -40.245118234126,
      "SliceThickness": 2.0,
      "SmallestImagePixelValue": 0,
      "SoftwareVersions": "syngo MR E11",
      "SpacingBetweenSlices": 2.0000000325446,
      "SpecificCharacterSet": "ISO_IR 100",
      "StudyID": "1",
      "StudyTime": "154024.166000",
      "TransmitCoilName": "Body",
      "VariableFlipAngleFlag": "N",
      "dBdt": 0.0},
    "slices": {}
  },
  "time": {
    "samples": {
      "AcquisitionNumber": [1, 2, 3, 4, 5, 6, 7, 8, 9, 10, 11, 12, 13, 14, 15, 16, 17, 18, 19, 20, 21, 22, 23, 24, 25, 26, 27, 28, 29, 30, 31, 32, 33, 34, 35, 36, 37, 38, 39, 40, 41, 42, 43, 44, 45, 46, 47, 48, 49, 50, 51, 52, 53, 54, 55, 56, 57, 58, 59, 60, 61, 62, 63, 64, 65, 66, 67, 68, 69, 70, 71, 72, 73, 74, 75, 76, 77, 78, 79, 80, 81, 82, 83, 84, 85, 86, 87, 88, 89, 90, 91, 92, 93, 94, 95, 96, 97, 98, 99, 100, 101, 102, 103, 104, 105, 106, 107, 108, 109, 110, 111, 112, 113, 114, 115, 116, 117, 118, 119, 120, 121, 122, 123, 124, 125, 126, 127, 128, 129, 130, 131, 132, 133, 134, 135, 136, 137, 138, 139, 140, 141, 142, 143, 144, 145, 146, 147, 148, 149, 150, 151, 152, 153, 154, 155, 156, 157, 158, 159, 160, 161, 162, 163, 164, 165, 166, 167, 168, 169, 170, 171, 172, 173, 174, 175, 176, 177, 178, 179, 180, 181, 182, 183, 184, 185, 186, 187, 188, 189, 190, 191, 192, 193, 194, 195, 196, 197, 198, 199, 200, 201, 202, 203, 204, 205, 206, 207, 208, 209, 210, 211, 212, 213, 214, 215, 216, 217, 218, 219, 220, 221, 222, 223, 224, 225, 226, 227, 228, 229, 230, 231, 232, 233, 234, 235, 236, 237, 238, 239, 240, 241, 242, 243, 244, 245, 246, 247, 248, 249, 250, 251, 252, 253, 254, 255, 256, 257, 258, 259, 260, 261, 262, 263, 264, 265, 266, 267, 268, 269, 270, 271, 272, 273, 274, 275, 276, 277, 278, 279, 280, 281, 282, 283, 284, 285, 286, 287, 288, 289, 290, 291, 292, 293, 294, 295, 296, 297, 298, 299, 300, 301, 302, 303, 304, 305, 306, 307, 308, 309, 310, 311, 312, 313, 314, 315, 316, 317, 318, 319, 320, 321, 322, 323, 324, 325, 326, 327, 328, 329, 330, 331, 332, 333, 334, 335, 336, 337, 338, 339, 340, 341, 342, 343, 344, 345, 346, 347, 348, 349, 350, 351, 352, 353, 354, 355, 356, 357, 358, 359, 360, 361, 362, 363, 364, 365, 366, 367, 368, 369, 370, 371, 372, 373, 374, 375, 376, 377, 378, 379, 380, 381, 382, 383, 384, 385, 386, 387, 388, 389, 390, 391, 392, 393, 394, 395, 396, 397, 398, 399, 400, 401, 402, 403, 404, 405, 406, 407, 408, 409, 410, 411, 412, 413, 414, 415, 416, 417, 418, 419, 420, 421, 422, 423, 424, 425, 426, 427, 428, 429, 430, 431, 432, 433, 434, 435, 436, 437, 438, 439, 440, 441, 442, 443, 444, 445, 446, 447, 448, 449, 450, 451, 452, 453, 454, 455, 456, 457, 458, 459, 460, 461, 462],
      "AcquisitionTime": ["160517.242500", "160518.732500", "160520.222500", "160521.712500", "160523.202500", "160524.692500", "160526.182500", "160527.672500", "160529.162500", "160530.652500", "160532.142500", "160533.632500", "160535.122500", "160536.612500", "160538.102500", "160539.592500", "160541.082500", "160542.572500", "160544.062500", "160545.552500", "160547.042500", "160548.532500", "160550.022500", "160551.512500", "160553.002500", "160554.492500", "160555.982500", "160557.472500", "160558.962500", "160600.452500", "160601.942500", "160603.432500", "160604.922500", "160606.412500", "160607.902500", "160609.392500", "160610.882500", "160612.372500", "160613.862500", "160615.352500", "160616.842500", "160618.332500", "160619.822500", "160621.312500", "160622.802500", "160624.292500", "160625.782500", "160627.272500", "160628.762500", "160630.252500", "160631.742500", "160633.232500", "160634.722500", "160636.212500", "160637.702500", "160639.192500", "160640.682500", "160642.172500", "160643.662500", "160645.152500", "160646.642500", "160648.132500", "160649.622500", "160651.112500", "160652.602500", "160654.092500", "160655.582500", "160657.072500", "160658.562500", "160700.052500", "160701.542500", "160703.032500", "160704.522500", "160706.012500", "160707.502500", "160708.992500", "160710.482500", "160711.972500", "160713.462500", "160714.952500", "160716.442500", "160717.932500", "160719.422500", "160720.912500", "160722.402500", "160723.892500", "160725.382500", "160726.872500", "160728.362500", "160729.852500", "160731.342500", "160732.832500", "160734.322500", "160735.812500", "160737.302500", "160738.792500", "160740.282500", "160741.772500", "160743.262500", "160744.752500", "160746.242500", "160747.732500", "160749.222500", "160750.712500", "160752.202500", "160753.692500", "160755.182500", "160756.672500", "160758.162500", "160759.652500", "160801.142500", "160802.632500", "160804.122500", "160805.612500", "160807.102500", "160808.592500", "160810.082500", "160811.572500", "160813.062500", "160814.552500", "160816.042500", "160817.532500", "160819.022500", "160820.512500", "160822.002500", "160823.492500", "160824.982500", "160826.472500", "160827.962500", "160829.452500", "160830.942500", "160832.432500", "160833.922500", "160835.412500", "160836.902500", "160838.392500", "160839.882500", "160841.372500", "160842.862500", "160844.352500", "160845.842500", "160847.332500", "160848.822500", "160850.312500", "160851.802500", "160853.292500", "160854.782500", "160856.272500", "160857.762500", "160859.252500", "160900.742500", "160902.232500", "160903.722500", "160905.212500", "160906.702500", "160908.192500", "160909.682500", "160911.172500", "160912.662500", "160914.152500", "160915.642500", "160917.132500", "160918.622500", "160920.112500", "160921.602500", "160923.092500", "160924.582500", "160926.072500", "160927.562500", "160929.052500", "160930.542500", "160932.032500", "160933.522500", "160935.012500", "160936.502500", "160937.992500", "160939.482500", "160940.972500", "160942.462500", "160943.952500", "160945.442500", "160946.932500", "160948.422500", "160949.912500", "160951.402500", "160952.892500", "160954.382500", "160955.872500", "160957.362500", "160958.852500", "161000.342500", "161001.832500", "161003.322500", "161004.812500", "161006.302500", "161007.792500", "161009.282500", "161010.772500", "161012.262500", "161013.752500", "161015.242500", "161016.732500", "161018.222500", "161019.712500", "161021.202500", "161022.692500", "161024.182500", "161025.672500", "161027.162500", "161028.652500", "161030.142500", "161031.632500", "161033.122500", "161034.612500", "161036.102500", "161037.592500", "161039.082500", "161040.572500", "161042.062500", "161043.552500", "161045.042500", "161046.532500", "161048.022500", "161049.512500", "161051.002500", "161052.492500", "161053.982500", "161055.472500", "161056.962500", "161058.452500", "161059.942500", "161101.432500", "161102.922500", "161104.412500", "161105.902500", "161107.392500", "161108.882500", "161110.372500", "161111.862500", "161113.352500", "161114.842500", "161116.332500", "161117.822500", "161119.312500", "161120.802500", "161122.292500", "161123.782500", "161125.272500", "161126.762500", "161128.252500", "161129.742500", "161131.232500", "161132.722500", "161134.212500", "161135.702500", "161137.192500", "161138.682500", "161140.172500", "161141.662500", "161143.152500", "161144.642500", "161146.132500", "161147.622500", "161149.112500", "161150.602500", "161152.092500", "161153.582500", "161155.072500", "161156.562500", "161158.052500", "161159.542500", "161201.032500", "161202.522500", "161204.012500", "161205.502500", "161206.992500", "161208.482500", "161209.972500", "161211.462500", "161212.952500", "161214.442500", "161215.932500", "161217.422500", "161218.912500", "161220.402500", "161221.892500", "161223.382500", "161224.872500", "161226.362500", "161227.852500", "161229.342500", "161230.832500", "161232.322500", "161233.812500", "161235.302500", "161236.792500", "161238.282500", "161239.772500", "161241.262500", "161242.752500", "161244.242500", "161245.732500", "161247.222500", "161248.712500", "161250.202500", "161251.692500", "161253.182500", "161254.672500", "161256.162500", "161257.652500", "161259.142500", "161300.632500", "161302.122500", "161303.612500", "161305.102500", "161306.592500", "161308.082500", "161309.572500", "161311.062500", "161312.552500", "161314.042500", "161315.532500", "161317.022500", "161318.512500", "161320.002500", "161321.492500", "161322.982500", "161324.472500", "161325.962500", "161327.452500", "161328.942500", "161330.432500", "161331.922500", "161333.412500", "161334.902500", "161336.392500", "161337.882500", "161339.372500", "161340.862500", "161342.352500", "161343.842500", "161345.332500", "161346.822500", "161348.312500", "161349.802500", "161351.292500", "161352.782500", "161354.272500", "161355.762500", "161357.252500", "161358.742500", "161400.232500", "161401.722500", "161403.212500", "161404.702500", "161406.192500", "161407.682500", "161409.172500", "161410.662500", "161412.152500", "161413.642500", "161415.132500", "161416.622500", "161418.112500", "161419.602500", "161421.092500", "161422.582500", "161424.072500", "161425.562500", "161427.052500", "161428.542500", "161430.032500", "161431.522500", "161433.012500", "161434.502500", "161435.992500", "161437.482500", "161438.972500", "161440.462500", "161441.952500", "161443.442500", "161444.932500", "161446.422500", "161447.912500", "161449.402500", "161450.892500", "161452.382500", "161453.872500", "161455.362500", "161456.852500", "161458.342500", "161459.832500", "161501.322500", "161502.812500", "161504.302500", "161505.792500", "161507.282500", "161508.772500", "161510.262500", "161511.752500", "161513.242500", "161514.732500", "161516.222500", "161517.712500", "161519.202500", "161520.692500", "161522.182500", "161523.672500", "161525.162500", "161526.652500", "161528.142500", "161529.632500", "161531.122500", "161532.612500", "161534.102500", "161535.592500", "161537.082500", "161538.572500", "161540.062500", "161541.552500", "161543.042500", "161544.532500", "161546.022500", "161547.512500", "161549.002500", "161550.492500", "161551.982500", "161553.472500", "161554.962500", "161556.452500", "161557.942500", "161559.432500", "161600.922500", "161602.412500", "161603.902500", "161605.392500", "161606.882500", "161608.372500", "161609.862500", "161611.352500", "161612.842500", "161614.332500", "161615.822500", "161617.312500", "161618.802500", "161620.292500", "161621.782500", "161623.272500", "161624.762500", "161626.252500", "161627.742500", "161629.232500", "161630.722500", "161632.212500", "161633.702500", "161635.192500", "161636.682500", "161638.172500", "161639.662500", "161641.152500", "161642.642500", "161644.132500"],
      "ContentTime": ["160632.529000", "160632.532000", "160632.536000", "160632.539000", "160632.543000", "160632.546000", "160632.550000", "160632.553000", "160632.556000", "160632.560000", "160632.563000", "160632.566000", "160632.570000", "160632.573000", "160632.577000", "160632.580000", "160632.588000", "160632.591000", "160632.595000", "160632.598000", "160632.601000", "160632.605000", "160632.608000", "160632.611000", "160632.615000", "160632.618000", "160632.622000", "160652.493000", "160652.497000", "160652.500000", "160652.504000", "160652.507000", "160652.518000", "160652.522000", "160652.525000", "160652.528000", "160652.532000", "160652.535000", "160652.538000", "160652.542000", "160652.545000", "160652.548000", "160652.552000", "160652.555000", "160652.558000", "160652.562000", "160652.565000", "160712.492000", "160712.497000", "160712.500000", "160712.504000", "160712.508000", "160712.511000", "160712.515000", "160712.519000", "160712.523000", "160712.526000", "160712.530000", "160712.534000", "160712.538000", "160712.541000", "160712.545000", "160712.549000", "160712.553000", "160712.557000", "160712.560000", "160712.573000", "160732.492000", "160732.496000", "160732.499000", "160732.503000", "160732.506000", "160732.510000", "160732.513000", "160732.517000", "160732.520000", "160732.524000", "160732.528000", "160732.531000", "160732.534000", "160732.538000", "160732.541000", "160732.545000", "160732.555000", "160732.558000", "160732.561000", "160732.565000", "160812.492000", "160812.496000", "160812.500000", "160812.504000", "160812.508000", "160812.511000", "160812.521000", "160812.524000", "160812.528000", "160812.531000", "160812.535000", "160812.538000", "160812.562000", "160812.566000", "160812.570000", "160812.573000", "160812.577000", "160812.580000", "160812.584000", "160812.587000", "160812.591000", "160812.594000", "160812.598000", "160812.601000", "160812.604000", "160812.608000", "160812.611000", "160812.615000", "160812.619000", "160812.622000", "160852.493000", "160852.497000", "160852.500000", "160852.504000", "160852.507000", "160852.511000", "160852.514000", "160852.517000", "160852.521000", "160852.524000", "160852.527000", "160852.531000", "160852.534000", "160852.538000", "160852.541000", "160852.544000", "160852.548000", "160852.551000", "160852.554000", "160852.558000", "160852.561000", "160852.565000", "160852.568000", "160852.572000", "160852.575000", "160852.579000", "160932.492000", "160932.496000", "160932.499000", "160932.503000", "160932.506000", "160932.510000", "160932.513000", "160932.516000", "160932.520000", "160932.523000", "160932.526000", "160932.530000", "160932.533000", "160932.540000", "160932.544000", "160932.547000", "160932.550000", "160932.554000", "160932.557000", "160932.560000", "160932.569000", "160932.583000", "160932.586000", "160932.590000", "160932.593000", "160932.596000", "160932.600000", "161012.492000", "161012.496000", "161012.500000", "161012.503000", "161012.506000", "161012.510000", "161012.513000", "161012.516000", "161012.520000", "161012.523000", "161012.527000", "161012.530000", "161012.533000", "161012.537000", "161012.540000", "161012.544000", "161012.547000", "161012.550000", "161012.554000", "161012.557000", "161012.561000", "161012.564000", "161012.567000", "161012.571000", "161012.574000", "161012.577000", "161012.581000", "161052.492000", "161052.496000", "161052.499000", "161052.503000", "161052.506000", "161052.510000", "161052.513000", "161052.522000", "161052.526000", "161052.529000", "161052.533000", "161052.536000", "161052.539000", "161052.543000", "161052.546000", "161052.550000", "161052.553000", "161052.556000", "161052.560000", "161052.563000", "161052.567000", "161052.570000", "161052.574000", "161052.577000", "161052.580000", "161052.584000", "161052.587000", "161132.493000", "161132.497000", "161132.500000", "161132.504000", "161132.507000", "161132.511000", "161132.514000", "161132.517000", "161132.521000", "161132.524000", "161132.527000", "161132.531000", "161132.534000", "161132.538000", "161132.541000", "161132.545000", "161132.548000", "161132.551000", "161132.555000", "161132.558000", "161132.561000", "161132.565000", "161132.568000", "161132.572000", "161132.575000", "161132.579000", "161132.582000", "161212.492000", "161212.496000", "161212.509000", "161212.512000", "161212.515000", "161212.519000", "161212.522000", "161212.526000", "161212.529000", "161212.532000", "161212.536000", "161212.539000", "161212.542000", "161212.546000", "161212.549000", "161212.553000", "161212.556000", "161212.560000", "161212.563000", "161212.566000", "161212.570000", "161212.573000", "161212.577000", "161212.580000", "161212.584000", "161212.587000", "161212.590000", "161252.492000", "161252.496000", "161252.500000", "161252.503000", "161252.507000", "161252.510000", "161252.514000", "161252.517000", "161252.520000", "161252.524000", "161252.527000", "161252.531000", "161252.534000", "161252.537000", "161252.544000", "161252.548000", "161252.551000", "161252.555000", "161252.558000", "161252.561000", "161252.565000", "161252.568000", "161252.572000", "161252.575000", "161252.578000", "161252.582000", "161252.585000", "161332.493000", "161332.497000", "161332.500000", "161332.504000", "161332.507000", "161332.511000", "161332.514000", "161332.518000", "161332.521000", "161332.524000", "161332.528000", "161332.531000", "161332.535000", "161332.538000", "161332.542000", "161332.545000", "161332.548000", "161332.552000", "161332.555000", "161332.559000", "161332.563000", "161332.566000", "161332.570000", "161332.574000", "161332.577000", "161332.580000", "161412.492000", "161412.496000", "161412.499000", "161412.503000", "161412.506000", "161412.510000", "161412.514000", "161412.517000", "161412.521000", "161412.524000", "161412.528000", "161412.531000", "161412.535000", "161412.538000", "161412.553000", "161412.557000", "161412.560000", "161412.563000", "161412.567000", "161412.570000", "161412.574000", "161412.577000", "161412.581000", "161412.584000", "161412.594000", "161412.597000", "161412.601000", "161452.492000", "161452.496000", "161452.499000", "161452.503000", "161452.506000", "161452.510000", "161452.513000", "161452.524000", "161452.527000", "161452.530000", "161452.534000", "161452.539000", "161452.542000", "161452.546000", "161452.549000", "161452.552000", "161452.556000", "161452.559000", "161452.562000", "161452.566000", "161452.569000", "161452.573000", "161452.576000", "161452.580000", "161452.583000", "161452.587000", "161452.590000", "161532.493000", "161532.496000", "161532.500000", "161532.503000", "161532.506000", "161532.510000", "161532.513000", "161532.517000", "161532.520000", "161532.523000", "161532.527000", "161532.530000", "161532.534000", "161532.537000", "161532.540000", "161532.544000", "161532.547000", "161532.551000", "161532.554000", "161532.557000", "161532.568000", "161532.572000", "161532.575000", "161532.579000", "161532.582000", "161532.586000", "161532.589000", "161612.493000", "161612.497000", "161612.500000", "161612.504000", "161612.507000", "161612.511000", "161612.514000", "161612.518000", "161612.521000", "161612.524000", "161612.528000", "161612.531000", "161612.535000", "161612.538000", "161612.541000", "161612.545000", "161612.548000", "161612.551000", "161612.555000", "161612.559000", "161612.563000", "161612.566000", "161612.569000", "161612.573000", "161612.576000", "161612.580000", "161612.596000", "161646.545000", "161646.549000", "161646.553000", "161646.557000", "161646.560000", "161646.564000", "161646.567000", "161646.571000", "161646.574000", "161646.577000", "161646.581000", "161646.585000", "161646.588000", "161646.592000", "161646.595000", "161646.599000", "161646.602000", "161646.605000", "161646.609000", "161646.612000", "161646.616000", "161646.619000", "161646.623000"],
