{
  "AcquisitionMatrixPE": 104,
  "AcquisitionNumber": 1,
  "AcquisitionTime": "16:30:22.695000",
  "BandwidthPerPixelPhaseEncode": 17.17,
  "BaseResolution": 104,
  "BodyPartExamined": "BRAIN",
  "CoilCombinationMethod": "Sum of Squares",
  "ConsistencyInfo": "N4_VE11C_LATEST_20160120",
  "ConversionSoftware": "dcm2niix",
  "ConversionSoftwareVersion": "v1.0.20211006",
  "DerivedVendorReportedEchoSpacing": 0.000560011,
  "DeviceSerialNumber": "167006",
  "DwellTime": 2.1e-06,
  "EchoTime": 0.037,
  "EchoTime1": 0.037,
  "EchoTime2": 0.001,
  "EchoTrainLength": 104,
  "EffectiveEchoSpacing": 0.000560011,
  "FlipAngle": 52,
  "HeudiconvVersion": "0.11.3.post9+gc939bf8",
  "ImageComments": "Unaliased MB4/PE3/LB",
  "ImageOrientationPatientDICOM": [0.999279, -0.0363556, 0.0109013, 0.0378645, 0.935088, -0.352386],
  "ImageOrientationText": "Tra>Cor(-20.6)>Sag(-0.1)",
  "ImageType": [
    "ORIGINAL",
    "PRIMARY",
    "P",
    "MB",
    "ND",
    "MOSAIC",
    "PHASE"
],
  "ImagingFrequency": 123.259,
  "InPlanePhaseEncodingDirectionDICOM": "COL",
  "InstitutionAddress": "Chemin Queen-Mary 4565,Montreal,District,CA,H3W 1W5",
  "InstitutionName": "IUGM",
  "InstitutionalDepartmentName": "Department",
  "MRAcquisitionType": "2D",
  "MagneticFieldStrength": 3,
  "Manufacturer": "Siemens",
  "ManufacturersModelName": "Prisma_fit",
  "MatrixCoilMode": "SENSE",
  "Modality": "MR",
  "MultibandAccelerationFactor": 4,
  "PartialFourier": 1,
  "PatientPosition": "HFS",
  "PercentPhaseFOV": 100,
  "PercentSampling": 100,
  "PhaseEncodingDirection": "j",
  "PhaseEncodingSteps": 104,
  "PhaseResolution": 1,
  "PixelBandwidth": 2290,
  "ProcedureStepDescription": "games^mariostars",
  "ProtocolName": "func_task-mariostars_run-04",
  "PulseSequenceDetails": "%CustomerSeq%\\cmrr_mbep2d_bold",
  "ReceiveCoilActiveElements": "HC1-7;NC1,2",
  "ReceiveCoilName": "HeadNeck_64",
  "ReconMatrixPE": 104,
  "RepetitionTime": 1.49,
  "SAR": 0.0409237,
  "ScanOptions": "FS",
  "ScanningSequence": "EP",
  "SequenceName": "epfid2d1_104",
  "SequenceVariant": "SK\\SS",
  "SeriesDescription": "func_task-mariostars_run-04",
  "SeriesNumber": 21,
  "ShimSetting": [626, -7255, -8818, 555, 19, -195, -97, 1],
  "SliceThickness": 2,
  "SliceTiming": [0, 0.785, 0.1, 0.8825, 0.1975, 0.98, 0.295, 1.0775, 0.3925, 1.1775, 0.49, 1.275, 0.59, 1.3725, 0.6875, 0, 0.785, 0.1, 0.8825, 0.1975, 0.98, 0.295, 1.0775, 0.3925, 1.1775, 0.49, 1.275, 0.59, 1.3725, 0.6875, 0, 0.785, 0.1, 0.8825, 0.1975, 0.98, 0.295, 1.0775, 0.3925, 1.1775, 0.49, 1.275, 0.59, 1.3725, 0.6875, 0, 0.785, 0.1, 0.8825, 0.1975, 0.98, 0.295, 1.0775, 0.3925, 1.1775, 0.49, 1.275, 0.59, 1.3725, 0.6875],
  "SoftwareVersions": "syngo MR E11",
  "SpacingBetweenSlices": 2,
  "StationName": "MRC35049",
  "TaskName": "mariostars",
  "TotalReadoutTime": 0.0576811,
  "TxRefAmp": 227.987,
  "WipMemBlock": "4809e4aa-3b0d-471d-aa54-6e58a9bdf092||Sequence: R017 ve11c/master r/75a17815+; Jun 28 2022 16:32:11 by eja",
  "dcmmeta_affine": [
    [-1.9985588788986206, 0.07572892308235168, -0.005235125310719013, 102.9329605102539],
    [0.07271123677492142, 1.8701765537261963, -0.7050904631614685, -68.00531005859375],
    [0.021802565082907677, 0.7047727108001709, 1.871582269668579, -68.33857727050781],
    [0.0, 0.0, 0.0, 1.0]
],
  "dcmmeta_reorient_transform": [
    [0.0, -1.0, 0.0, 103.0],
    [1.0, 0.0, 0.0, 0.0],
    [0.0, 0.0, 1.0, 0.0],
    [0.0, 0.0, 0.0, 1.0]
],
  "dcmmeta_shape": [104, 104, 60, 442],
  "dcmmeta_slice_dim": 2,
  "dcmmeta_version": 0.6,
  "global": {
    "const": {
      "AcquisitionMatrix": [104, 0, 0, 104],
      "AngioFlag": "N",
      "BitsAllocated": 16,
      "BitsStored": 16,
      "BodyPartExamined": "BRAIN",
      "Columns": 832,
      "EchoNumbers": 1,
      "EchoTime": 37.0,
      "EchoTrainLength": 104,
      "FlipAngle": 52.0,
      "HighBit": 15,
      "ImageOrientationPatient": [0.99927945588721, -0.0363556196823, 0.01090128246008, 0.03786446101585, 0.93508830569186, -0.3523863549434],
      "ImagePositionPatient": [-865.7738093208, -778.90027310471, 252.85414575109],
      "ImageType": [
        "ORIGINAL",
        "PRIMARY",
        "P",
        "MB",
        "ND",
        "MOSAIC"
],
      "ImagedNucleus": "1H",
      "ImagingFrequency": 123.258783,
      "InPlanePhaseEncodingDirection": "COL",
      "LargestImagePixelValue": 4095,
      "MRAcquisitionType": "2D",
      "MagneticFieldStrength": 3.0,
      "Manufacturer": "SIEMENS",
      "ManufacturerModelName": "Prisma_fit",
      "Modality": "MR",
      "NumberOfAverages": 1.0,
      "NumberOfPhaseEncodingSteps": 104,
      "PercentPhaseFieldOfView": 100.0,
      "PercentSampling": 100.0,
      "PerformedProcedureStepStartTime": "154024.234000",
      "PhotometricInterpretation": "MONOCHROME2",
      "PixelBandwidth": 2290.0,
      "PixelRepresentation": 0,
      "PixelSpacing": [2.0, 2.0],
      "ProtocolName": "func_task-mariostars_run-04",
      "RepetitionTime": 1490.0,
      "RescaleIntercept": -4096.0,
      "RescaleSlope": 2.0,
      "RescaleType": "US",
      "Rows": 832,
      "SAR": 0.04092370061343,
      "SamplesPerPixel": 1,
      "ScanOptions": "FS",
      "ScanningSequence": "EP",
      "SequenceName": "epfid2d1_104",
      "SequenceVariant": [
        "SK",
        "SS"
],
      "SeriesDescription": "func_task-mariostars_run-04",
      "SeriesNumber": 21,
      "SeriesTime": "163128.150000",
      "SliceLocation": -40.245118234126,
      "SliceThickness": 2.0,
      "SmallestImagePixelValue": 0,
      "SoftwareVersions": "syngo MR E11",
      "SpacingBetweenSlices": 2.0000000325446,
      "SpecificCharacterSet": "ISO_IR 100",
      "StudyID": "1",
      "StudyTime": "154024.166000",
      "TransmitCoilName": "Body",
      "VariableFlipAngleFlag": "N",
      "WindowCenterWidthExplanation": "Algo1",
      "dBdt": 0.0},
    "slices": {}
  },
  "time": {
    "samples": {
      "AcquisitionNumber": [1, 2, 3, 4, 5, 6, 7, 8, 9, 10, 11, 12, 13, 14, 15, 16, 17, 18, 19, 20, 21, 22, 23, 24, 25, 26, 27, 28, 29, 30, 31, 32, 33, 34, 35, 36, 37, 38, 39, 40, 41, 42, 43, 44, 45, 46, 47, 48, 49, 50, 51, 52, 53, 54, 55, 56, 57, 58, 59, 60, 61, 62, 63, 64, 65, 66, 67, 68, 69, 70, 71, 72, 73, 74, 75, 76, 77, 78, 79, 80, 81, 82, 83, 84, 85, 86, 87, 88, 89, 90, 91, 92, 93, 94, 95, 96, 97, 98, 99, 100, 101, 102, 103, 104, 105, 106, 107, 108, 109, 110, 111, 112, 113, 114, 115, 116, 117, 118, 119, 120, 121, 122, 123, 124, 125, 126, 127, 128, 129, 130, 131, 132, 133, 134, 135, 136, 137, 138, 139, 140, 141, 142, 143, 144, 145, 146, 147, 148, 149, 150, 151, 152, 153, 154, 155, 156, 157, 158, 159, 160, 161, 162, 163, 164, 165, 166, 167, 168, 169, 170, 171, 172, 173, 174, 175, 176, 177, 178, 179, 180, 181, 182, 183, 184, 185, 186, 187, 188, 189, 190, 191, 192, 193, 194, 195, 196, 197, 198, 199, 200, 201, 202, 203, 204, 205, 206, 207, 208, 209, 210, 211, 212, 213, 214, 215, 216, 217, 218, 219, 220, 221, 222, 223, 224, 225, 226, 227, 228, 229, 230, 231, 232, 233, 234, 235, 236, 237, 238, 239, 240, 241, 242, 243, 244, 245, 246, 247, 248, 249, 250, 251, 252, 253, 254, 255, 256, 257, 258, 259, 260, 261, 262, 263, 264, 265, 266, 267, 268, 269, 270, 271, 272, 273, 274, 275, 276, 277, 278, 279, 280, 281, 282, 283, 284, 285, 286, 287, 288, 289, 290, 291, 292, 293, 294, 295, 296, 297, 298, 299, 300, 301, 302, 303, 304, 305, 306, 307, 308, 309, 310, 311, 312, 313, 314, 315, 316, 317, 318, 319, 320, 321, 322, 323, 324, 325, 326, 327, 328, 329, 330, 331, 332, 333, 334, 335, 336, 337, 338, 339, 340, 341, 342, 343, 344, 345, 346, 347, 348, 349, 350, 351, 352, 353, 354, 355, 356, 357, 358, 359, 360, 361, 362, 363, 364, 365, 366, 367, 368, 369, 370, 371, 372, 373, 374, 375, 376, 377, 378, 379, 380, 381, 382, 383, 384, 385, 386, 387, 388, 389, 390, 391, 392, 393, 394, 395, 396, 397, 398, 399, 400, 401, 402, 403, 404, 405, 406, 407, 408, 409, 410, 411, 412, 413, 414, 415, 416, 417, 418, 419, 420, 421, 422, 423, 424, 425, 426, 427, 428, 429, 430, 431, 432, 433, 434, 435, 436, 437, 438, 439, 440, 441, 442],
      "AcquisitionTime": ["163022.695000", "163024.185000", "163025.675000", "163027.165000", "163028.655000", "163030.145000", "163031.635000", "163033.125000", "163034.615000", "163036.105000", "163037.595000", "163039.085000", "163040.575000", "163042.065000", "163043.555000", "163045.045000", "163046.535000", "163048.025000", "163049.515000", "163051.005000", "163052.495000", "163053.985000", "163055.475000", "163056.965000", "163058.455000", "163059.945000", "163101.435000", "163102.925000", "163104.415000", "163105.905000", "163107.395000", "163108.885000", "163110.375000", "163111.865000", "163113.355000", "163114.845000", "163116.335000", "163117.825000", "163119.315000", "163120.805000", "163122.295000", "163123.785000", "163125.275000", "163126.765000", "163128.255000", "163129.745000", "163131.235000", "163132.725000", "163134.215000", "163135.705000", "163137.195000", "163138.685000", "163140.175000", "163141.665000", "163143.155000", "163144.645000", "163146.135000", "163147.625000", "163149.115000", "163150.605000", "163152.095000", "163153.585000", "163155.075000", "163156.565000", "163158.055000", "163159.545000", "163201.035000", "163202.525000", "163204.015000", "163205.505000", "163206.995000", "163208.485000", "163209.975000", "163211.465000", "163212.955000", "163214.445000", "163215.935000", "163217.425000", "163218.915000", "163220.405000", "163221.895000", "163223.385000", "163224.875000", "163226.365000", "163227.855000", "163229.345000", "163230.835000", "163232.325000", "163233.815000", "163235.305000", "163236.795000", "163238.285000", "163239.775000", "163241.265000", "163242.755000", "163244.245000", "163245.735000", "163247.225000", "163248.715000", "163250.205000", "163251.695000", "163253.185000", "163254.675000", "163256.165000", "163257.655000", "163259.145000", "163300.635000", "163302.125000", "163303.615000", "163305.105000", "163306.595000", "163308.085000", "163309.575000", "163311.065000", "163312.555000", "163314.045000", "163315.535000", "163317.025000", "163318.515000", "163320.005000", "163321.495000", "163322.985000", "163324.475000", "163325.965000", "163327.455000", "163328.945000", "163330.435000", "163331.925000", "163333.415000", "163334.905000", "163336.395000", "163337.885000", "163339.375000", "163340.865000", "163342.355000", "163343.845000", "163345.335000", "163346.825000", "163348.315000", "163349.805000", "163351.295000", "163352.785000", "163354.275000", "163355.765000", "163357.255000", "163358.745000", "163400.235000", "163401.725000", "163403.215000", "163404.705000", "163406.195000", "163407.685000", "163409.175000", "163410.665000", "163412.155000", "163413.645000", "163415.135000", "163416.625000", "163418.115000", "163419.605000", "163421.095000", "163422.585000", "163424.075000", "163425.565000", "163427.055000", "163428.545000", "163430.035000", "163431.525000", "163433.015000", "163434.505000", "163435.995000", "163437.485000", "163438.975000", "163440.465000", "163441.955000", "163443.445000", "163444.935000", "163446.425000", "163447.915000", "163449.405000", "163450.895000", "163452.385000", "163453.875000", "163455.365000", "163456.855000", "163458.345000", "163459.835000", "163501.325000", "163502.815000", "163504.305000", "163505.795000", "163507.285000", "163508.775000", "163510.265000", "163511.755000", "163513.245000", "163514.735000", "163516.225000", "163517.715000", "163519.205000", "163520.695000", "163522.185000", "163523.675000", "163525.165000", "163526.655000", "163528.145000", "163529.635000", "163531.125000", "163532.615000", "163534.105000", "163535.595000", "163537.085000", "163538.575000", "163540.065000", "163541.555000", "163543.045000", "163544.535000", "163546.025000", "163547.515000", "163549.005000", "163550.495000", "163551.985000", "163553.475000", "163554.965000", "163556.455000", "163557.945000", "163559.435000", "163600.925000", "163602.415000", "163603.905000", "163605.395000", "163606.885000", "163608.375000", "163609.865000", "163611.355000", "163612.845000", "163614.335000", "163615.825000", "163617.315000", "163618.805000", "163620.295000", "163621.785000", "163623.275000", "163624.765000", "163626.255000", "163627.745000", "163629.235000", "163630.725000", "163632.215000", "163633.705000", "163635.195000", "163636.685000", "163638.175000", "163639.665000", "163641.155000", "163642.645000", "163644.135000", "163645.625000", "163647.115000", "163648.605000", "163650.095000", "163651.585000", "163653.075000", "163654.565000", "163656.055000", "163657.545000", "163659.035000", "163700.525000", "163702.015000", "163703.505000", "163704.995000", "163706.485000", "163707.975000", "163709.465000", "163710.955000", "163712.445000", "163713.935000", "163715.425000", "163716.915000", "163718.405000", "163719.895000", "163721.385000", "163722.875000", "163724.365000", "163725.855000", "163727.345000", "163728.835000", "163730.325000", "163731.815000", "163733.305000", "163734.795000", "163736.285000", "163737.775000", "163739.265000", "163740.755000", "163742.245000", "163743.735000", "163745.225000", "163746.715000", "163748.205000", "163749.695000", "163751.185000", "163752.675000", "163754.165000", "163755.655000", "163757.145000", "163758.635000", "163800.125000", "163801.615000", "163803.105000", "163804.595000", "163806.085000", "163807.575000", "163809.065000", "163810.555000", "163812.045000", "163813.535000", "163815.025000", "163816.515000", "163818.005000", "163819.495000", "163820.985000", "163822.475000", "163823.965000", "163825.455000", "163826.945000", "163828.435000", "163829.925000", "163831.415000", "163832.905000", "163834.395000", "163835.885000", "163837.375000", "163838.865000", "163840.355000", "163841.845000", "163843.335000", "163844.825000", "163846.315000", "163847.805000", "163849.295000", "163850.785000", "163852.275000", "163853.765000", "163855.255000", "163856.745000", "163858.235000", "163859.725000", "163901.215000", "163902.705000", "163904.195000", "163905.685000", "163907.175000", "163908.665000", "163910.155000", "163911.645000", "163913.135000", "163914.625000", "163916.115000", "163917.605000", "163919.095000", "163920.585000", "163922.075000", "163923.565000", "163925.055000", "163926.545000", "163928.035000", "163929.525000", "163931.015000", "163932.505000", "163933.995000", "163935.485000", "163936.975000", "163938.465000", "163939.955000", "163941.445000", "163942.935000", "163944.425000", "163945.915000", "163947.405000", "163948.895000", "163950.385000", "163951.875000", "163953.365000", "163954.855000", "163956.345000", "163957.835000", "163959.325000", "164000.815000", "164002.305000", "164003.795000", "164005.285000", "164006.775000", "164008.265000", "164009.755000", "164011.245000", "164012.735000", "164014.225000", "164015.715000", "164017.205000", "164018.695000", "164020.185000", "164021.675000", "164023.165000", "164024.655000", "164026.145000", "164027.635000", "164029.125000", "164030.615000", "164032.105000", "164033.595000", "164035.085000", "164036.575000", "164038.065000", "164039.555000", "164041.045000", "164042.535000", "164044.025000", "164045.515000", "164047.005000", "164048.495000", "164049.985000", "164051.475000", "164052.965000", "164054.455000", "164055.945000", "164057.435000", "164058.925000", "164100.415000", "164101.905000", "164103.395000", "164104.885000", "164106.375000", "164107.865000", "164109.355000", "164110.845000", "164112.335000", "164113.825000", "164115.315000", "164116.805000", "164118.295000", "164119.785000"],
      "ContentTime": ["163128.152000", "163128.155000", "163128.163000", "163128.166000", "163128.169000", "163128.171000", "163128.174000", "163128.176000", "163128.181000", "163128.184000", "163128.186000", "163128.189000", "163128.191000", "163128.194000", "163128.196000", "163128.199000", "163148.124000", "163148.127000", "163148.130000", "163148.132000", "163148.135000", "163148.137000", "163148.140000", "163148.142000", "163148.145000", "163148.147000", "163148.150000", "163148.152000", "163148.155000", "163148.157000", "163148.160000", "163148.162000", "163148.165000", "163148.167000", "163148.170000", "163148.172000", "163148.175000", "163208.140000", "163208.142000", "163208.145000", "163208.147000", "163208.150000", "163208.152000", "163208.155000", "163208.157000", "163208.160000", "163208.163000", "163208.165000", "163208.168000", "163208.170000", "163208.173000", "163208.176000", "163208.178000", "163208.181000", "163208.183000", "163208.186000", "163208.188000", "163228.105000", "163228.108000", "163228.110000", "163228.113000", "163228.115000", "163228.118000", "163228.120000", "163228.123000", "163228.125000", "163228.128000", "163228.130000", "163228.133000", "163228.135000", "163228.138000", "163228.141000", "163228.143000", "163228.146000", "163228.148000", "163228.151000", "163228.153000", "163308.662000", "163308.665000", "163308.667000", "163308.670000", "163308.672000", "163308.675000", "163308.677000", "163308.680000", "163308.682000", "163308.685000", "163308.687000", "163308.690000", "163308.693000", "163308.695000", "163308.698000", "163308.700000", "163308.703000", "163308.705000", "163308.708000", "163308.710000", "163308.713000", "163308.715000", "163308.718000", "163308.721000", "163308.723000", "163308.726000", "163308.728000", "163308.731000", "163308.733000", "163308.736000", "163308.738000", "163308.741000", "163308.743000", "163348.143000", "163348.146000", "163348.149000", "163348.151000", "163348.154000", "163348.156000", "163348.159000", "163348.161000", "163348.164000", "163348.166000", "163348.169000", "163348.171000", "163348.174000", "163348.176000", "163348.179000", "163348.182000", "163348.184000", "163348.187000", "163348.189000", "163348.192000", "163348.194000", "163348.197000", "163348.199000", "163348.202000", "163348.204000", "163348.207000", "163348.209000", "163428.128000", "163428.131000", "163428.133000", "163428.136000", "163428.139000", "163428.141000", "163428.144000", "163428.146000", "163428.149000", "163428.151000", "163428.154000", "163428.161000", "163428.163000", "163428.166000", "163428.168000", "163428.171000", "163428.173000", "163428.176000", "163428.178000", "163428.181000", "163428.183000", "163428.186000", "163428.188000", "163428.191000", "163428.193000", "163428.196000", "163428.199000", "163508.137000", "163508.140000", "163508.142000", "163508.145000", "163508.147000", "163508.150000", "163508.152000", "163508.168000", "163508.170000", "163508.173000", "163508.175000", "163508.178000", "163508.180000", "163508.183000", "163508.185000", "163508.188000", "163508.190000", "163508.193000", "163508.195000", "163508.198000", "163508.200000", "163508.203000", "163508.205000", "163508.208000", "163508.211000", "163508.213000", "163548.144000", "163548.147000", "163548.149000", "163548.152000", "163548.154000", "163548.157000", "163548.160000", "163548.162000", "163548.165000", "163548.167000", "163548.170000", "163548.172000", "163548.175000", "163548.177000", "163548.180000", "163548.182000", "163548.185000", "163548.187000", "163548.191000", "163548.194000", "163548.196000", "163548.199000", "163548.201000", "163548.204000", "163548.206000", "163548.209000", "163548.211000", "163628.135000", "163628.138000", "163628.141000", "163628.143000", "163628.146000", "163628.148000", "163628.151000", "163628.153000", "163628.156000", "163628.158000", "163628.161000", "163628.163000", "163628.166000", "163628.168000", "163628.171000", "163628.174000", "163628.176000", "163628.179000", "163628.181000", "163628.184000", "163628.186000", "163628.189000", "163628.191000", "163628.194000", "163628.196000", "163628.199000", "163628.201000", "163708.138000", "163708.141000", "163708.143000", "163708.146000", "163708.148000", "163708.151000", "163708.154000", "163708.156000", "163708.159000", "163708.161000", "163708.164000", "163708.166000", "163708.169000", "163708.171000", "163708.174000", "163708.176000", "163708.179000", "163708.182000", "163708.184000", "163708.187000", "163708.189000", "163708.192000", "163708.194000", "163708.197000", "163708.199000", "163708.202000", "163708.204000", "163748.140000", "163748.143000", "163748.145000", "163748.148000", "163748.151000", "163748.153000", "163748.156000", "163748.158000", "163748.161000", "163748.163000", "163748.166000", "163748.168000", "163748.171000", "163748.173000", "163748.176000", "163748.178000", "163748.181000", "163748.183000", "163748.186000", "163748.189000", "163748.191000", "163748.194000", "163748.196000", "163748.199000", "163748.201000", "163748.204000", "163748.206000", "163828.131000", "163828.133000", "163828.136000", "163828.139000", "163828.141000", "163828.144000", "163828.146000", "163828.149000", "163828.151000", "163828.154000", "163828.156000", "163828.159000", "163828.161000", "163828.164000", "163828.166000", "163828.169000", "163828.172000", "163828.174000", "163828.177000", "163828.180000", "163828.183000", "163828.185000", "163828.188000", "163828.191000", "163828.193000", "163828.196000", "163828.198000", "163908.144000", "163908.147000", "163908.150000", "163908.152000", "163908.155000", "163908.157000", "163908.160000", "163908.162000", "163908.165000", "163908.168000", "163908.170000", "163908.173000", "163908.175000", "163908.178000", "163908.180000", "163908.183000", "163908.185000", "163908.188000", "163908.190000", "163908.193000", "163908.196000", "163908.198000", "163908.201000", "163908.203000", "163908.206000", "163908.208000", "163948.137000", "163948.139000", "163948.142000", "163948.145000", "163948.147000", "163948.150000", "163948.152000", "163948.155000", "163948.157000", "163948.160000", "163948.162000", "163948.165000", "163948.167000", "163948.170000", "163948.172000", "163948.175000", "163948.177000", "163948.180000", "163948.183000", "163948.185000", "163948.188000", "163948.190000", "163948.193000", "163948.195000", "163948.198000", "163948.201000", "163948.203000", "164028.145000", "164028.147000", "164028.150000", "164028.152000", "164028.155000", "164028.157000", "164028.160000", "164028.163000", "164028.165000", "164028.168000", "164028.170000", "164028.173000", "164028.175000", "164028.178000", "164028.180000", "164028.183000", "164028.185000", "164028.188000", "164028.191000", "164028.193000", "164028.196000", "164028.198000", "164028.201000", "164028.203000", "164028.206000", "164028.208000", "164028.211000", "164108.136000", "164108.139000", "164108.141000", "164108.144000", "164108.146000", "164108.149000", "164108.151000", "164108.154000", "164108.156000", "164108.159000", "164108.161000", "164108.164000", "164108.167000", "164108.169000", "164108.172000", "164108.174000", "164108.177000", "164108.179000", "164108.182000", "164108.184000", "164108.187000", "164108.189000", "164108.192000", "164108.194000", "164108.197000", "164108.200000", "164108.202000", "164122.820000", "164122.823000", "164122.825000", "164122.828000", "164122.830000", "164122.833000", "164122.836000", "164122.838000", "164122.841000", "164122.843000"],
