{
  "AcquisitionMatrixPE": 104,
  "AcquisitionNumber": 1,
  "AcquisitionTime": "15:52:59.260000",
  "BandwidthPerPixelPhaseEncode": 17.17,
  "BaseResolution": 104,
  "BodyPartExamined": "BRAIN",
  "CoilCombinationMethod": "Sum of Squares",
  "ConsistencyInfo": "N4_VE11C_LATEST_20160120",
  "ConversionSoftware": "dcm2niix",
  "ConversionSoftwareVersion": "v1.0.20211006",
  "DerivedVendorReportedEchoSpacing": 0.000560011,
  "DeviceSerialNumber": "167006",
  "DwellTime": 2.1e-06,
  "EchoTime": 0.037,
  "EchoTime1": 0.037,
  "EchoTime2": 0.001,
  "EchoTrainLength": 104,
  "EffectiveEchoSpacing": 0.000560011,
  "FlipAngle": 52,
  "HeudiconvVersion": "0.11.3.post9+gc939bf8",
  "ImageComments": "Unaliased MB4/PE3/LB",
  "ImageOrientationPatientDICOM": [0.999279, -0.0363556, 0.0109013, 0.0378645, 0.935088, -0.352386],
  "ImageOrientationText": "Tra>Cor(-20.6)>Sag(-0.1)",
  "ImageType": [
    "ORIGINAL",
    "PRIMARY",
    "P",
    "MB",
    "ND",
    "MOSAIC",
    "PHASE"
],
  "ImagingFrequency": 123.259,
  "InPlanePhaseEncodingDirectionDICOM": "COL",
  "InstitutionAddress": "Chemin Queen-Mary 4565,Montreal,District,CA,H3W 1W5",
  "InstitutionName": "IUGM",
  "InstitutionalDepartmentName": "Department",
  "MRAcquisitionType": "2D",
  "MagneticFieldStrength": 3,
  "Manufacturer": "Siemens",
  "ManufacturersModelName": "Prisma_fit",
  "MatrixCoilMode": "SENSE",
  "Modality": "MR",
  "MultibandAccelerationFactor": 4,
  "PartialFourier": 1,
  "PatientPosition": "HFS",
  "PercentPhaseFOV": 100,
  "PercentSampling": 100,
  "PhaseEncodingDirection": "j",
  "PhaseEncodingSteps": 104,
  "PhaseResolution": 1,
  "PixelBandwidth": 2290,
  "ProcedureStepDescription": "games^mariostars",
  "ProtocolName": "func_task-mariostars_run-01",
  "PulseSequenceDetails": "%CustomerSeq%\\cmrr_mbep2d_bold",
  "ReceiveCoilActiveElements": "HC1-7;NC1,2",
  "ReceiveCoilName": "HeadNeck_64",
  "ReconMatrixPE": 104,
  "RepetitionTime": 1.49,
  "SAR": 0.0409237,
  "ScanOptions": "FS",
  "ScanningSequence": "EP",
  "SequenceName": "epfid2d1_104",
  "SequenceVariant": "SK\\SS",
  "SeriesDescription": "func_task-mariostars_run-01",
  "SeriesNumber": 12,
  "ShimSetting": [626, -7255, -8818, 555, 19, -195, -97, 1],
  "SliceThickness": 2,
  "SliceTiming": [0, 0.785, 0.0975, 0.8825, 0.1975, 0.98, 0.295, 1.0775, 0.3925, 1.1775, 0.49, 1.275, 0.5875, 1.3725, 0.6875, 0, 0.785, 0.0975, 0.8825, 0.1975, 0.98, 0.295, 1.0775, 0.3925, 1.1775, 0.49, 1.275, 0.5875, 1.3725, 0.6875, 0, 0.785, 0.0975, 0.8825, 0.1975, 0.98, 0.295, 1.0775, 0.3925, 1.1775, 0.49, 1.275, 0.5875, 1.3725, 0.6875, 0, 0.785, 0.0975, 0.8825, 0.1975, 0.98, 0.295, 1.0775, 0.3925, 1.1775, 0.49, 1.275, 0.5875, 1.3725, 0.6875],
  "SoftwareVersions": "syngo MR E11",
  "SpacingBetweenSlices": 2,
  "StationName": "MRC35049",
  "TaskName": "mariostars",
  "TotalReadoutTime": 0.0576811,
  "TxRefAmp": 227.987,
  "WipMemBlock": "81f52e5b-644c-4e13-89d0-78c16f06d239||Sequence: R017 ve11c/master r/75a17815+; Jun 28 2022 16:32:11 by eja",
  "dcmmeta_affine": [
    [-1.9985588788986206, 0.07572892308235168, -0.005235125310719013, 102.9329605102539],
    [0.07271123677492142, 1.8701765537261963, -0.7050904631614685, -68.00531005859375],
    [0.021802565082907677, 0.7047727108001709, 1.871582269668579, -68.33857727050781],
    [0.0, 0.0, 0.0, 1.0]
],
  "dcmmeta_reorient_transform": [
    [0.0, -1.0, 0.0, 103.0],
    [1.0, 0.0, 0.0, 0.0],
    [0.0, 0.0, 1.0, 0.0],
    [0.0, 0.0, 0.0, 1.0]
],
  "dcmmeta_shape": [104, 104, 60, 429],
  "dcmmeta_slice_dim": 2,
  "dcmmeta_version": 0.6,
  "global": {
    "const": {
      "AcquisitionMatrix": [104, 0, 0, 104],
      "AngioFlag": "N",
      "BitsAllocated": 16,
      "BitsStored": 16,
      "BodyPartExamined": "BRAIN",
      "Columns": 832,
      "EchoNumbers": 1,
      "EchoTime": 37.0,
      "EchoTrainLength": 104,
      "FlipAngle": 52.0,
      "HighBit": 15,
      "ImageOrientationPatient": [0.99927945588721, -0.0363556196823, 0.01090128246008, 0.03786446101585, 0.93508830569186, -0.3523863549434],
      "ImagePositionPatient": [-865.7738093208, -778.90027310471, 252.85414575109],
      "ImageType": [
        "ORIGINAL",
        "PRIMARY",
        "P",
        "MB",
        "ND",
        "MOSAIC"
],
      "ImagedNucleus": "1H",
      "ImagingFrequency": 123.258763,
      "InPlanePhaseEncodingDirection": "COL",
      "LargestImagePixelValue": 4095,
      "MRAcquisitionType": "2D",
      "MagneticFieldStrength": 3.0,
      "Manufacturer": "SIEMENS",
      "ManufacturerModelName": "Prisma_fit",
      "Modality": "MR",
      "NumberOfAverages": 1.0,
      "NumberOfPhaseEncodingSteps": 104,
      "PercentPhaseFieldOfView": 100.0,
      "PercentSampling": 100.0,
      "PerformedProcedureStepStartTime": "154024.234000",
      "PhotometricInterpretation": "MONOCHROME2",
      "PixelBandwidth": 2290.0,
      "PixelRepresentation": 0,
      "PixelSpacing": [2.0, 2.0],
      "ProtocolName": "func_task-mariostars_run-01",
      "RepetitionTime": 1490.0,
      "RescaleIntercept": -4096.0,
      "RescaleSlope": 2.0,
      "RescaleType": "US",
      "Rows": 832,
      "SAR": 0.04092370061343,
      "SamplesPerPixel": 1,
      "ScanOptions": "FS",
      "ScanningSequence": "EP",
      "SequenceName": "epfid2d1_104",
      "SequenceVariant": [
        "SK",
        "SS"
],
      "SeriesDescription": "func_task-mariostars_run-01",
      "SeriesNumber": 12,
      "SeriesTime": "155428.267000",
      "SliceLocation": -40.245118234126,
      "SliceThickness": 2.0,
      "SmallestImagePixelValue": 0,
      "SoftwareVersions": "syngo MR E11",
      "SpacingBetweenSlices": 2.0000000325446,
      "SpecificCharacterSet": "ISO_IR 100",
      "StudyID": "1",
      "StudyTime": "154024.166000",
      "TransmitCoilName": "Body",
      "VariableFlipAngleFlag": "N",
      "WindowCenterWidthExplanation": "Algo1",
      "dBdt": 0.0},
    "slices": {}
  },
  "time": {
    "samples": {
      "AcquisitionNumber": [1, 2, 3, 4, 5, 6, 7, 8, 9, 10, 11, 12, 13, 14, 15, 16, 17, 18, 19, 20, 21, 22, 23, 24, 25, 26, 27, 28, 29, 30, 31, 32, 33, 34, 35, 36, 37, 38, 39, 40, 41, 42, 43, 44, 45, 46, 47, 48, 49, 50, 51, 52, 53, 54, 55, 56, 57, 58, 59, 60, 61, 62, 63, 64, 65, 66, 67, 68, 69, 70, 71, 72, 73, 74, 75, 76, 77, 78, 79, 80, 81, 82, 83, 84, 85, 86, 87, 88, 89, 90, 91, 92, 93, 94, 95, 96, 97, 98, 99, 100, 101, 102, 103, 104, 105, 106, 107, 108, 109, 110, 111, 112, 113, 114, 115, 116, 117, 118, 119, 120, 121, 122, 123, 124, 125, 126, 127, 128, 129, 130, 131, 132, 133, 134, 135, 136, 137, 138, 139, 140, 141, 142, 143, 144, 145, 146, 147, 148, 149, 150, 151, 152, 153, 154, 155, 156, 157, 158, 159, 160, 161, 162, 163, 164, 165, 166, 167, 168, 169, 170, 171, 172, 173, 174, 175, 176, 177, 178, 179, 180, 181, 182, 183, 184, 185, 186, 187, 188, 189, 190, 191, 192, 193, 194, 195, 196, 197, 198, 199, 200, 201, 202, 203, 204, 205, 206, 207, 208, 209, 210, 211, 212, 213, 214, 215, 216, 217, 218, 219, 220, 221, 222, 223, 224, 225, 226, 227, 228, 229, 230, 231, 232, 233, 234, 235, 236, 237, 238, 239, 240, 241, 242, 243, 244, 245, 246, 247, 248, 249, 250, 251, 252, 253, 254, 255, 256, 257, 258, 259, 260, 261, 262, 263, 264, 265, 266, 267, 268, 269, 270, 271, 272, 273, 274, 275, 276, 277, 278, 279, 280, 281, 282, 283, 284, 285, 286, 287, 288, 289, 290, 291, 292, 293, 294, 295, 296, 297, 298, 299, 300, 301, 302, 303, 304, 305, 306, 307, 308, 309, 310, 311, 312, 313, 314, 315, 316, 317, 318, 319, 320, 321, 322, 323, 324, 325, 326, 327, 328, 329, 330, 331, 332, 333, 334, 335, 336, 337, 338, 339, 340, 341, 342, 343, 344, 345, 346, 347, 348, 349, 350, 351, 352, 353, 354, 355, 356, 357, 358, 359, 360, 361, 362, 363, 364, 365, 366, 367, 368, 369, 370, 371, 372, 373, 374, 375, 376, 377, 378, 379, 380, 381, 382, 383, 384, 385, 386, 387, 388, 389, 390, 391, 392, 393, 394, 395, 396, 397, 398, 399, 400, 401, 402, 403, 404, 405, 406, 407, 408, 409, 410, 411, 412, 413, 414, 415, 416, 417, 418, 419, 420, 421, 422, 423, 424, 425, 426, 427, 428, 429],
      "AcquisitionTime": ["155259.260000", "155300.750000", "155302.240000", "155303.730000", "155305.220000", "155306.710000", "155308.200000", "155309.690000", "155311.180000", "155312.670000", "155314.160000", "155315.650000", "155317.140000", "155318.630000", "155320.120000", "155321.610000", "155323.100000", "155324.590000", "155326.080000", "155327.570000", "155329.060000", "155330.550000", "155332.040000", "155333.530000", "155335.020000", "155336.510000", "155338.000000", "155339.490000", "155340.980000", "155342.470000", "155343.960000", "155345.450000", "155346.940000", "155348.430000", "155349.920000", "155351.410000", "155352.900000", "155354.390000", "155355.880000", "155357.370000", "155358.860000", "155400.350000", "155401.840000", "155403.330000", "155404.820000", "155406.310000", "155407.800000", "155409.290000", "155410.780000", "155412.270000", "155413.760000", "155415.250000", "155416.740000", "155418.230000", "155419.720000", "155421.210000", "155422.700000", "155424.190000", "155425.680000", "155427.170000", "155428.660000", "155430.150000", "155431.640000", "155433.130000", "155434.620000", "155436.110000", "155437.600000", "155439.090000", "155440.580000", "155442.070000", "155443.560000", "155445.050000", "155446.540000", "155448.030000", "155449.520000", "155451.010000", "155452.500000", "155453.990000", "155455.480000", "155456.970000", "155458.460000", "155459.950000", "155501.440000", "155502.930000", "155504.420000", "155505.910000", "155507.400000", "155508.890000", "155510.380000", "155511.870000", "155513.360000", "155514.850000", "155516.340000", "155517.830000", "155519.320000", "155520.810000", "155522.300000", "155523.790000", "155525.280000", "155526.770000", "155528.260000", "155529.750000", "155531.240000", "155532.730000", "155534.220000", "155535.710000", "155537.200000", "155538.690000", "155540.180000", "155541.670000", "155543.160000", "155544.650000", "155546.140000", "155547.630000", "155549.120000", "155550.610000", "155552.100000", "155553.590000", "155555.080000", "155556.570000", "155558.060000", "155559.550000", "155601.040000", "155602.530000", "155604.020000", "155605.510000", "155607.000000", "155608.490000", "155609.980000", "155611.470000", "155612.960000", "155614.450000", "155615.940000", "155617.430000", "155618.920000", "155620.410000", "155621.900000", "155623.390000", "155624.880000", "155626.370000", "155627.860000", "155629.350000", "155630.840000", "155632.330000", "155633.820000", "155635.310000", "155636.800000", "155638.290000", "155639.780000", "155641.270000", "155642.760000", "155644.250000", "155645.740000", "155647.230000", "155648.720000", "155650.210000", "155651.700000", "155653.190000", "155654.680000", "155656.170000", "155657.660000", "155659.150000", "155700.640000", "155702.130000", "155703.620000", "155705.110000", "155706.600000", "155708.090000", "155709.580000", "155711.070000", "155712.560000", "155714.050000", "155715.540000", "155717.030000", "155718.520000", "155720.010000", "155721.500000", "155722.990000", "155724.480000", "155725.970000", "155727.460000", "155728.950000", "155730.440000", "155731.930000", "155733.420000", "155734.910000", "155736.400000", "155737.890000", "155739.380000", "155740.870000", "155742.360000", "155743.850000", "155745.340000", "155746.830000", "155748.320000", "155749.810000", "155751.300000", "155752.790000", "155754.280000", "155755.770000", "155757.260000", "155758.750000", "155800.240000", "155801.730000", "155803.220000", "155804.710000", "155806.200000", "155807.690000", "155809.180000", "155810.670000", "155812.160000", "155813.650000", "155815.140000", "155816.630000", "155818.120000", "155819.610000", "155821.100000", "155822.590000", "155824.080000", "155825.570000", "155827.060000", "155828.550000", "155830.040000", "155831.530000", "155833.020000", "155834.510000", "155836.000000", "155837.490000", "155838.980000", "155840.470000", "155841.960000", "155843.450000", "155844.940000", "155846.430000", "155847.920000", "155849.410000", "155850.900000", "155852.390000", "155853.880000", "155855.370000", "155856.860000", "155858.350000", "155859.840000", "155901.330000", "155902.820000", "155904.310000", "155905.800000", "155907.290000", "155908.780000", "155910.270000", "155911.760000", "155913.250000", "155914.740000", "155916.230000", "155917.720000", "155919.210000", "155920.700000", "155922.190000", "155923.680000", "155925.170000", "155926.660000", "155928.150000", "155929.640000", "155931.130000", "155932.620000", "155934.110000", "155935.600000", "155937.090000", "155938.580000", "155940.070000", "155941.560000", "155943.050000", "155944.540000", "155946.030000", "155947.520000", "155949.010000", "155950.500000", "155951.990000", "155953.480000", "155954.970000", "155956.460000", "155957.950000", "155959.440000", "160000.930000", "160002.420000", "160003.910000", "160005.400000", "160006.890000", "160008.380000", "160009.870000", "160011.360000", "160012.850000", "160014.340000", "160015.830000", "160017.320000", "160018.810000", "160020.300000", "160021.790000", "160023.280000", "160024.770000", "160026.260000", "160027.750000", "160029.240000", "160030.730000", "160032.220000", "160033.710000", "160035.200000", "160036.690000", "160038.180000", "160039.670000", "160041.160000", "160042.650000", "160044.140000", "160045.630000", "160047.120000", "160048.610000", "160050.100000", "160051.590000", "160053.080000", "160054.570000", "160056.060000", "160057.550000", "160059.040000", "160100.530000", "160102.020000", "160103.510000", "160105.000000", "160106.490000", "160107.980000", "160109.470000", "160110.960000", "160112.450000", "160113.940000", "160115.430000", "160116.920000", "160118.410000", "160119.900000", "160121.390000", "160122.880000", "160124.370000", "160125.860000", "160127.350000", "160128.840000", "160130.330000", "160131.820000", "160133.310000", "160134.800000", "160136.290000", "160137.780000", "160139.270000", "160140.760000", "160142.250000", "160143.740000", "160145.230000", "160146.720000", "160148.210000", "160149.700000", "160151.190000", "160152.680000", "160154.170000", "160155.660000", "160157.150000", "160158.640000", "160200.130000", "160201.620000", "160203.110000", "160204.600000", "160206.090000", "160207.580000", "160209.070000", "160210.560000", "160212.050000", "160213.540000", "160215.030000", "160216.520000", "160218.010000", "160219.500000", "160220.990000", "160222.480000", "160223.970000", "160225.460000", "160226.950000", "160228.440000", "160229.930000", "160231.420000", "160232.910000", "160234.400000", "160235.890000", "160237.380000", "160238.870000", "160240.360000", "160241.850000", "160243.340000", "160244.830000", "160246.320000", "160247.810000", "160249.300000", "160250.790000", "160252.280000", "160253.770000", "160255.260000", "160256.750000", "160258.240000", "160259.730000", "160301.220000", "160302.710000", "160304.200000", "160305.690000", "160307.180000", "160308.670000", "160310.160000", "160311.650000", "160313.140000", "160314.630000", "160316.120000", "160317.610000", "160319.100000", "160320.590000", "160322.080000", "160323.570000", "160325.060000", "160326.550000", "160328.040000", "160329.530000", "160331.020000", "160332.510000", "160334.000000", "160335.490000", "160336.980000"],
      "ContentTime": ["155428.269000", "155428.272000", "155428.275000", "155428.277000", "155428.280000", "155428.283000", "155428.285000", "155428.288000", "155428.290000", "155428.293000", "155428.295000", "155428.298000", "155428.308000", "155428.311000", "155428.313000", "155428.315000", "155428.318000", "155428.320000", "155428.323000", "155428.325000", "155428.328000", "155428.331000", "155428.333000", "155428.351000", "155428.354000", "155428.356000", "155428.359000", "155428.361000", "155428.364000", "155428.366000", "155428.369000", "155428.371000", "155428.378000", "155428.380000", "155428.383000", "155428.385000", "155428.388000", "155428.390000", "155428.393000", "155448.101000", "155448.104000", "155448.106000", "155448.109000", "155448.111000", "155448.114000", "155448.116000", "155448.119000", "155448.121000", "155448.124000", "155448.126000", "155448.129000", "155448.131000", "155448.134000", "155448.136000", "155448.139000", "155448.141000", "155448.144000", "155448.147000", "155448.149000", "155508.106000", "155508.108000", "155508.111000", "155508.113000", "155508.116000", "155508.119000", "155508.123000", "155508.125000", "155508.128000", "155508.131000", "155508.134000", "155508.137000", "155508.141000", "155508.145000", "155508.148000", "155508.151000", "155508.154000", "155508.156000", "155508.159000", "155508.162000", "155528.099000", "155528.101000", "155528.104000", "155528.106000", "155528.109000", "155528.111000", "155528.114000", "155528.116000", "155528.119000", "155528.121000", "155528.124000", "155528.126000", "155528.129000", "155528.131000", "155528.134000", "155528.137000", "155528.139000", "155528.142000", "155528.144000", "155528.147000", "155608.141000", "155608.143000", "155608.146000", "155608.148000", "155608.151000", "155608.153000", "155608.156000", "155608.158000", "155608.161000", "155608.164000", "155608.166000", "155608.169000", "155608.171000", "155608.174000", "155608.176000", "155608.179000", "155608.181000", "155608.184000", "155608.186000", "155608.189000", "155608.191000", "155608.194000", "155608.196000", "155608.199000", "155608.201000", "155608.204000", "155608.206000", "155648.177000", "155648.179000", "155648.182000", "155648.184000", "155648.187000", "155648.189000", "155648.192000", "155648.194000", "155648.197000", "155648.199000", "155648.202000", "155648.205000", "155648.207000", "155648.210000", "155648.212000", "155648.215000", "155648.217000", "155648.220000", "155648.222000", "155648.225000", "155648.227000", "155648.230000", "155648.232000", "155648.235000", "155648.237000", "155648.240000", "155648.242000", "155728.897000", "155728.900000", "155728.903000", "155728.905000", "155728.908000", "155728.910000", "155728.913000", "155728.916000", "155728.918000", "155728.921000", "155728.923000", "155728.926000", "155728.928000", "155728.931000", "155728.933000", "155728.936000", "155728.939000", "155728.941000", "155728.944000", "155728.946000", "155728.949000", "155728.951000", "155728.954000", "155728.957000", "155728.959000", "155728.962000", "155808.152000", "155808.155000", "155808.158000", "155808.160000", "155808.163000", "155808.165000", "155808.168000", "155808.171000", "155808.174000", "155808.176000", "155808.179000", "155808.185000", "155808.188000", "155808.190000", "155808.193000", "155808.195000", "155808.198000", "155808.200000", "155808.203000", "155808.205000", "155808.208000", "155808.210000", "155808.213000", "155808.215000", "155808.218000", "155808.220000", "155808.223000", "155848.149000", "155848.152000", "155848.154000", "155848.157000", "155848.159000", "155848.162000", "155848.164000", "155848.167000", "155848.169000", "155848.172000", "155848.174000", "155848.177000", "155848.179000", "155848.182000", "155848.184000", "155848.187000", "155848.189000", "155848.192000", "155848.194000", "155848.197000", "155848.199000", "155848.202000", "155848.205000", "155848.207000", "155848.210000", "155848.212000", "155848.215000", "155928.151000", "155928.154000", "155928.156000", "155928.159000", "155928.161000", "155928.164000", "155928.166000", "155928.169000", "155928.171000", "155928.174000", "155928.176000", "155928.179000", "155928.181000", "155928.184000", "155928.186000", "155928.189000", "155928.191000", "155928.195000", "155928.197000", "155928.200000", "155928.202000", "155928.205000", "155928.207000", "155928.210000", "155928.212000", "155928.215000", "155928.217000", "160008.137000", "160008.139000", "160008.142000", "160008.145000", "160008.147000", "160008.150000", "160008.152000", "160008.155000", "160008.157000", "160008.160000", "160008.162000", "160008.165000", "160008.167000", "160008.170000", "160008.172000", "160008.175000", "160008.177000", "160008.180000", "160008.183000", "160008.185000", "160008.188000", "160008.190000", "160008.193000", "160008.195000", "160008.198000", "160008.200000", "160008.203000", "160028.078000", "160028.081000", "160028.083000", "160028.086000", "160028.088000", "160028.091000", "160028.093000", "160028.096000", "160028.098000", "160028.101000", "160028.103000", "160028.106000", "160028.108000", "160108.161000", "160108.163000", "160108.166000", "160108.168000", "160108.171000", "160108.174000", "160108.190000", "160108.193000", "160108.195000", "160108.198000", "160108.200000", "160108.203000", "160108.206000", "160108.208000", "160108.211000", "160108.213000", "160108.216000", "160108.218000", "160108.221000", "160108.223000", "160108.226000", "160108.229000", "160108.231000", "160108.234000", "160108.236000", "160108.239000", "160108.241000", "160148.134000", "160148.137000", "160148.140000", "160148.142000", "160148.145000", "160148.147000", "160148.150000", "160148.152000", "160148.155000", "160148.159000", "160148.161000", "160148.164000", "160148.166000", "160148.169000", "160148.171000", "160148.174000", "160148.176000", "160148.179000", "160148.182000", "160148.184000", "160148.187000", "160148.189000", "160148.192000", "160148.194000", "160148.197000", "160148.199000", "160148.202000", "160228.149000", "160228.152000", "160228.154000", "160228.157000", "160228.159000", "160228.162000", "160228.164000", "160228.167000", "160228.169000", "160228.172000", "160228.174000", "160228.177000", "160228.180000", "160228.182000", "160228.185000", "160228.187000", "160228.190000", "160228.192000", "160228.195000", "160228.197000", "160228.200000", "160228.202000", "160228.205000", "160228.207000", "160228.210000", "160228.212000", "160228.215000", "160308.146000", "160308.149000", "160308.151000", "160308.154000", "160308.156000", "160308.159000", "160308.161000", "160308.164000", "160308.167000", "160308.169000", "160308.172000", "160308.174000", "160308.177000", "160308.179000", "160308.182000", "160308.184000", "160308.187000", "160308.189000", "160308.192000", "160308.194000", "160308.197000", "160308.199000", "160308.202000", "160308.204000", "160308.207000", "160308.209000", "160308.212000", "160339.924000", "160339.928000", "160339.930000", "160339.933000", "160339.935000", "160339.938000", "160339.940000", "160339.943000", "160339.946000", "160339.948000", "160339.951000", "160339.954000", "160339.956000", "160339.959000", "160339.961000", "160339.964000", "160339.967000", "160339.969000", "160339.972000", "160339.975000", "160339.977000"],
      "InstanceCreationTime": ["155428.269000", "155428.272000", "155428.275000", "155428.277000", "155428.280000", "155428.283000", "155428.285000", "155428.288000", "155428.290000", "155428.293000", "155428.295000", "155428.298000", "155428.308000", "155428.311000", "155428.313000", "155428.315000", "155428.318000", "155428.320000", "155428.323000", "155428.325000", "155428.328000", "155428.331000", "155428.333000", "155428.351000", "155428.354000", "155428.356000", "155428.359000", "155428.361000", "155428.364000", "155428.366000", "155428.369000", "155428.371000", "155428.378000", "155428.380000", "155428.383000", "155428.385000", "155428.388000", "155428.390000", "155428.393000", "155448.101000", "155448.104000", "155448.106000", "155448.109000", "155448.111000", "155448.114000", "155448.116000", "155448.119000", "155448.121000", "155448.124000", "155448.126000", "155448.129000", "155448.131000", "155448.134000", "155448.136000", "155448.139000", "155448.141000", "155448.144000", "155448.147000", "155448.149000", "155508.106000", "155508.108000", "155508.111000", "155508.113000", "155508.116000", "155508.119000", "155508.123000", "155508.125000", "155508.128000", "155508.131000", "155508.134000", "155508.137000", "155508.141000", "155508.145000", "155508.148000", "155508.151000", "155508.154000", "155508.156000", "155508.159000", "155508.162000", "155528.099000", "155528.101000", "155528.104000", "155528.106000", "155528.109000", "155528.111000", "155528.114000", "155528.116000", "155528.119000", "155528.121000", "155528.124000", "155528.126000", "155528.129000", "155528.131000", "155528.134000", "155528.137000", "155528.139000", "155528.142000", "155528.144000", "155528.147000", "155608.141000", "155608.143000", "155608.146000", "155608.148000", "155608.151000", "155608.153000", "155608.156000", "155608.158000", "155608.161000", "155608.164000", "155608.166000", "155608.169000", "155608.171000", "155608.174000", "155608.176000", "155608.179000", "155608.181000", "155608.184000", "155608.186000", "155608.189000", "155608.191000", "155608.194000", "155608.196000", "155608.199000", "155608.201000", "155608.204000", "155608.206000", "155648.177000", "155648.179000", "155648.182000", "155648.184000", "155648.187000", "155648.189000", "155648.192000", "155648.194000", "155648.197000", "155648.199000", "155648.202000", "155648.205000", "155648.207000", "155648.210000", "155648.212000", "155648.215000", "155648.217000", "155648.220000", "155648.222000", "155648.225000", "155648.227000", "155648.230000", "155648.232000", "155648.235000", "155648.237000", "155648.240000", "155648.242000", "155728.897000", "155728.900000", "155728.903000", "155728.905000", "155728.908000", "155728.910000", "155728.913000", "155728.916000", "155728.918000", "155728.921000", "155728.923000", "155728.926000", "155728.928000", "155728.931000", "155728.933000", "155728.936000", "155728.939000", "155728.941000", "155728.944000", "155728.946000", "155728.949000", "155728.951000", "155728.954000", "155728.957000", "155728.959000", "155728.962000", "155808.152000", "155808.155000", "155808.158000", "155808.160000", "155808.163000", "155808.165000", "155808.168000", "155808.171000", "155808.174000", "155808.176000", "155808.179000", "155808.185000", "155808.188000", "155808.190000", "155808.193000", "155808.195000", "155808.198000", "155808.200000", "155808.203000", "155808.205000", "155808.208000", "155808.210000", "155808.213000", "155808.215000", "155808.218000", "155808.220000", "155808.223000", "155848.149000", "155848.152000", "155848.154000", "155848.157000", "155848.159000", "155848.162000", "155848.164000", "155848.167000", "155848.169000", "155848.172000", "155848.174000", "155848.177000", "155848.179000", "155848.182000", "155848.184000", "155848.187000", "155848.189000", "155848.192000", "155848.194000", "155848.197000", "155848.199000", "155848.202000", "155848.205000", "155848.207000", "155848.210000", "155848.212000", "155848.215000", "155928.151000", "155928.154000", "155928.156000", "155928.159000", "155928.161000", "155928.164000", "155928.166000", "155928.169000", "155928.171000", "155928.174000", "155928.176000", "155928.179000", "155928.181000", "155928.184000", "155928.186000", "155928.189000", "155928.191000", "155928.195000", "155928.197000", "155928.200000", "155928.202000", "155928.205000", "155928.207000", "155928.210000", "155928.212000", "155928.215000", "155928.217000", "160008.137000", "160008.139000", "160008.142000", "160008.145000", "160008.147000", "160008.150000", "160008.152000", "160008.155000", "160008.157000", "160008.160000", "160008.162000", "160008.165000", "160008.167000", "160008.170000", "160008.172000", "160008.175000", "160008.177000", "160008.180000", "160008.183000", "160008.185000", "160008.188000", "160008.190000", "160008.193000", "160008.195000", "160008.198000", "160008.200000", "160008.203000", "160028.078000", "160028.081000", "160028.083000", "160028.086000", "160028.088000", "160028.091000", "160028.093000", "160028.096000", "160028.098000", "160028.101000", "160028.103000", "160028.106000", "160028.108000", "160108.161000", "160108.163000", "160108.166000", "160108.168000", "160108.171000", "160108.174000", "160108.190000", "160108.193000", "160108.195000", "160108.198000", "160108.200000", "160108.203000", "160108.206000", "160108.208000", "160108.211000", "160108.213000", "160108.216000", "160108.218000", "160108.221000", "160108.223000", "160108.226000", "160108.229000", "160108.231000", "160108.234000", "160108.236000", "160108.239000", "160108.241000", "160148.134000", "160148.137000", "160148.140000", "160148.142000", "160148.145000", "160148.147000", "160148.150000", "160148.152000", "160148.155000", "160148.159000", "160148.161000", "160148.164000", "160148.166000", "160148.169000", "160148.171000", "160148.174000", "160148.176000", "160148.179000", "160148.182000", "160148.184000", "160148.187000", "160148.189000", "160148.192000", "160148.194000", "160148.197000", "160148.199000", "160148.202000", "160228.149000", "160228.152000", "160228.154000", "160228.157000", "160228.159000", "160228.162000", "160228.164000", "160228.167000", "160228.169000", "160228.172000", "160228.174000", "160228.177000", "160228.180000", "160228.182000", "160228.185000", "160228.187000", "160228.190000", "160228.192000", "160228.195000", "160228.197000", "160228.200000", "160228.202000", "160228.205000", "160228.207000", "160228.210000", "160228.212000", "160228.215000", "160308.146000", "160308.149000", "160308.151000", "160308.154000", "160308.156000", "160308.159000", "160308.161000", "160308.164000", "160308.167000", "160308.169000", "160308.172000", "160308.174000", "160308.177000", "160308.179000", "160308.182000", "160308.184000", "160308.187000", "160308.189000", "160308.192000", "160308.194000", "160308.197000", "160308.199000", "160308.202000", "160308.204000", "160308.207000", "160308.209000", "160308.212000", "160339.924000", "160339.928000", "160339.930000", "160339.933000", "160339.935000", "160339.938000", "160339.940000", "160339.943000", "160339.946000", "160339.948000", "160339.951000", "160339.954000", "160339.956000", "160339.959000", "160339.961000", "160339.964000", "160339.967000", "160339.969000", "160339.972000", "160339.975000", "160339.977000"],
