{
  "AcquisitionMatrixPE": 104,
  "AcquisitionNumber": 1,
  "AcquisitionTime": "19:43:38.380000",
  "BandwidthPerPixelPhaseEncode": 17.17,
  "BaseResolution": 104,
  "BodyPartExamined": "BRAIN",
  "CoilCombinationMethod": "Sum of Squares",
  "ConsistencyInfo": "N4_VE11C_LATEST_20160120",
  "ConversionSoftware": "dcm2niix",
  "ConversionSoftwareVersion": "v1.0.20220505",
  "DerivedVendorReportedEchoSpacing": 0.000560011,
  "DeviceSerialNumber": "167006",
  "DwellTime": 2.1e-06,
  "EchoTime": 0.037,
  "EchoTime1": 0.037,
  "EchoTime2": 0.001,
  "EchoTrainLength": 104,
  "EffectiveEchoSpacing": 0.000560011,
  "FlipAngle": 52,
  "HeudiconvVersion": "0.5.3.post811+g6206e14",
  "ImageComments": "Unaliased MB4/PE3/LB",
  "ImageOrientationPatientDICOM": [0.999762, -0.0217896, -0.00067374, 0.0200692, 0.932015, -0.361864],
  "ImageOrientationText": "Tra>Cor(-21.2)>Sag(-0.5)",
  "ImageType": [
    "ORIGINAL",
    "PRIMARY",
    "P",
    "MB",
    "ND",
    "MOSAIC",
    "PHASE"
],
  "ImagingFrequency": 123.26,
  "InPlanePhaseEncodingDirectionDICOM": "COL",
  "InstitutionAddress": "Chemin Queen-Mary 4565,Montreal,District,CA,H3W 1W5",
  "InstitutionName": "IUGM",
  "InstitutionalDepartmentName": "Department",
  "MRAcquisitionType": "2D",
  "MagneticFieldStrength": 3,
  "Manufacturer": "Siemens",
  "ManufacturersModelName": "Prisma_fit",
  "MatrixCoilMode": "SENSE",
  "Modality": "MR",
  "MultibandAccelerationFactor": 4,
  "PartialFourier": 1,
  "PatientPosition": "HFS",
  "PercentPhaseFOV": 100,
  "PercentSampling": 100,
  "PhaseEncodingDirection": "j",
  "PhaseEncodingSteps": 104,
  "PhaseResolution": 1,
  "PixelBandwidth": 2290,
  "ProcedureStepDescription": "games^mariostars",
  "ProtocolName": "func_task-mariostars_run-06",
  "PulseSequenceDetails": "%CustomerSeq%\\cmrr_mbep2d_bold",
  "ReceiveCoilActiveElements": "HC1-7;NC1,2",
  "ReceiveCoilName": "HeadNeck_64",
  "ReconMatrixPE": 104,
  "RepetitionTime": 1.49,
  "SAR": 0.0734961,
  "ScanOptions": "FS",
  "ScanningSequence": "EP",
  "SequenceName": "epfid2d1_104",
  "SequenceVariant": "SK\\SS",
  "SeriesDescription": "func_task-mariostars_run-06",
  "SeriesNumber": 27,
  "ShimSetting": [590, -7264, -8832, 382, 0, -328, 13, 50],
  "SliceThickness": 2,
  "SliceTiming": [0, 0.7825, 0.0975, 0.8825, 0.195, 0.98, 0.2925, 1.0775, 0.3925, 1.175, 0.49, 1.2725, 0.5875, 1.3725, 0.685, 0, 0.7825, 0.0975, 0.8825, 0.195, 0.98, 0.2925, 1.0775, 0.3925, 1.175, 0.49, 1.2725, 0.5875, 1.3725, 0.685, 0, 0.7825, 0.0975, 0.8825, 0.195, 0.98, 0.2925, 1.0775, 0.3925, 1.175, 0.49, 1.2725, 0.5875, 1.3725, 0.685, 0, 0.7825, 0.0975, 0.8825, 0.195, 0.98, 0.2925, 1.0775, 0.3925, 1.175, 0.49, 1.2725, 0.5875, 1.3725, 0.685],
  "SoftwareVersions": "syngo MR E11",
  "SpacingBetweenSlices": 2,
  "StationName": "MRC35049",
  "TaskName": "mariostars",
  "TotalReadoutTime": 0.0576811,
  "TxRefAmp": 289.344,
  "WipMemBlock": "a688b221-ae00-4a90-abf6-9c4f36c41320||Sequence: R017 ve11c/master r/75a17815+; Jun 28 2022 16:32:11 by eja",
  "dcmmeta_affine": [
    [-1.999524712562561, 0.04013841226696968, -0.017025642096996307, 102.65934753417969],
    [0.04357922822237015, 1.8640294075012207, -0.7235297560691833, -64.2630844116211],
    [-0.0013474804582074285, 0.7237287759780884, 1.864461064338684, -57.84170150756836],
    [0.0, 0.0, 0.0, 1.0]
],
  "dcmmeta_reorient_transform": [
    [0.0, -1.0, 0.0, 103.0],
    [1.0, 0.0, 0.0, 0.0],
    [0.0, 0.0, 1.0, 0.0],
    [0.0, 0.0, 0.0, 1.0]
],
  "dcmmeta_shape": [104, 104, 60, 504],
  "dcmmeta_slice_dim": 2,
  "dcmmeta_version": 0.6,
  "global": {
    "const": {
      "AcquisitionMatrix": [104, 0, 0, 104],
      "AngioFlag": "N",
      "BitsAllocated": 16,
      "BitsStored": 16,
      "BodyPartExamined": "BRAIN",
      "Columns": 832,
      "EchoNumbers": 1,
      "EchoTime": 37.0,
      "EchoTrainLength": 104,
      "FlipAngle": 52.0,
      "HighBit": 15,
      "ImageOrientationPatient": [0.99976235117207, -0.0217896134196, -0.0006737402422, 0.02006920663052, 0.93201469083538, -0.3618643986527],
      "ImagePositionPatient": [-849.23097447278, -790.37579544633, 280.630131295],
      "ImageType": [
        "ORIGINAL",
        "PRIMARY",
        "P",
        "MB",
        "ND",
        "MOSAIC"
],
      "ImagedNucleus": "1H",
      "ImagingFrequency": 123.260193,
      "InPlanePhaseEncodingDirection": "COL",
      "LargestImagePixelValue": 4095,
      "MRAcquisitionType": "2D",
      "MagneticFieldStrength": 3.0,
      "Manufacturer": "SIEMENS",
      "ManufacturerModelName": "Prisma_fit",
      "Modality": "MR",
      "NumberOfAverages": 1.0,
      "NumberOfPhaseEncodingSteps": 104,
      "PercentPhaseFieldOfView": 100.0,
      "PercentSampling": 100.0,
      "PerformedProcedureStepStartTime": "183309.918000",
      "PhotometricInterpretation": "MONOCHROME2",
      "PixelBandwidth": 2290.0,
      "PixelRepresentation": 0,
      "PixelSpacing": [2.0, 2.0],
      "ProtocolName": "func_task-mariostars_run-06",
      "RepetitionTime": 1490.0,
      "RescaleIntercept": -4096.0,
      "RescaleSlope": 2.0,
      "RescaleType": "US",
      "Rows": 832,
      "SAR": 0.07349605225176,
      "SamplesPerPixel": 1,
      "ScanOptions": "FS",
      "ScanningSequence": "EP",
      "SequenceName": "epfid2d1_104",
      "SequenceVariant": [
        "SK",
        "SS"
],
      "SeriesDescription": "func_task-mariostars_run-06",
      "SeriesNumber": 27,
      "SeriesTime": "194502.696000",
      "SliceLocation": -31.547589354047,
      "SliceThickness": 2.0,
      "SmallestImagePixelValue": 0,
      "SoftwareVersions": "syngo MR E11",
      "SpacingBetweenSlices": 2.0000000526323,
      "SpecificCharacterSet": "ISO_IR 100",
      "StudyID": "1",
      "StudyTime": "183309.840000",
      "TransmitCoilName": "Body",
      "VariableFlipAngleFlag": "N",
      "WindowCenterWidthExplanation": "Algo1",
      "dBdt": 0.0},
    "slices": {}
  },
  "time": {
    "samples": {
      "AcquisitionNumber": [1, 2, 3, 4, 5, 6, 7, 8, 9, 10, 11, 12, 13, 14, 15, 16, 17, 18, 19, 20, 21, 22, 23, 24, 25, 26, 27, 28, 29, 30, 31, 32, 33, 34, 35, 36, 37, 38, 39, 40, 41, 42, 43, 44, 45, 46, 47, 48, 49, 50, 51, 52, 53, 54, 55, 56, 57, 58, 59, 60, 61, 62, 63, 64, 65, 66, 67, 68, 69, 70, 71, 72, 73, 74, 75, 76, 77, 78, 79, 80, 81, 82, 83, 84, 85, 86, 87, 88, 89, 90, 91, 92, 93, 94, 95, 96, 97, 98, 99, 100, 101, 102, 103, 104, 105, 106, 107, 108, 109, 110, 111, 112, 113, 114, 115, 116, 117, 118, 119, 120, 121, 122, 123, 124, 125, 126, 127, 128, 129, 130, 131, 132, 133, 134, 135, 136, 137, 138, 139, 140, 141, 142, 143, 144, 145, 146, 147, 148, 149, 150, 151, 152, 153, 154, 155, 156, 157, 158, 159, 160, 161, 162, 163, 164, 165, 166, 167, 168, 169, 170, 171, 172, 173, 174, 175, 176, 177, 178, 179, 180, 181, 182, 183, 184, 185, 186, 187, 188, 189, 190, 191, 192, 193, 194, 195, 196, 197, 198, 199, 200, 201, 202, 203, 204, 205, 206, 207, 208, 209, 210, 211, 212, 213, 214, 215, 216, 217, 218, 219, 220, 221, 222, 223, 224, 225, 226, 227, 228, 229, 230, 231, 232, 233, 234, 235, 236, 237, 238, 239, 240, 241, 242, 243, 244, 245, 246, 247, 248, 249, 250, 251, 252, 253, 254, 255, 256, 257, 258, 259, 260, 261, 262, 263, 264, 265, 266, 267, 268, 269, 270, 271, 272, 273, 274, 275, 276, 277, 278, 279, 280, 281, 282, 283, 284, 285, 286, 287, 288, 289, 290, 291, 292, 293, 294, 295, 296, 297, 298, 299, 300, 301, 302, 303, 304, 305, 306, 307, 308, 309, 310, 311, 312, 313, 314, 315, 316, 317, 318, 319, 320, 321, 322, 323, 324, 325, 326, 327, 328, 329, 330, 331, 332, 333, 334, 335, 336, 337, 338, 339, 340, 341, 342, 343, 344, 345, 346, 347, 348, 349, 350, 351, 352, 353, 354, 355, 356, 357, 358, 359, 360, 361, 362, 363, 364, 365, 366, 367, 368, 369, 370, 371, 372, 373, 374, 375, 376, 377, 378, 379, 380, 381, 382, 383, 384, 385, 386, 387, 388, 389, 390, 391, 392, 393, 394, 395, 396, 397, 398, 399, 400, 401, 402, 403, 404, 405, 406, 407, 408, 409, 410, 411, 412, 413, 414, 415, 416, 417, 418, 419, 420, 421, 422, 423, 424, 425, 426, 427, 428, 429, 430, 431, 432, 433, 434, 435, 436, 437, 438, 439, 440, 441, 442, 443, 444, 445, 446, 447, 448, 449, 450, 451, 452, 453, 454, 455, 456, 457, 458, 459, 460, 461, 462, 463, 464, 465, 466, 467, 468, 469, 470, 471, 472, 473, 474, 475, 476, 477, 478, 479, 480, 481, 482, 483, 484, 485, 486, 487, 488, 489, 490, 491, 492, 493, 494, 495, 496, 497, 498, 499, 500, 501, 502, 503, 504],
      "AcquisitionTime": ["194338.380000", "194339.870000", "194341.360000", "194342.850000", "194344.340000", "194345.830000", "194347.320000", "194348.810000", "194350.300000", "194351.790000", "194353.280000", "194354.770000", "194356.260000", "194357.750000", "194359.240000", "194400.730000", "194402.220000", "194403.710000", "194405.200000", "194406.690000", "194408.180000", "194409.670000", "194411.160000", "194412.650000", "194414.140000", "194415.630000", "194417.120000", "194418.610000", "194420.100000", "194421.590000", "194423.080000", "194424.570000", "194426.060000", "194427.550000", "194429.040000", "194430.530000", "194432.020000", "194433.510000", "194435.000000", "194436.490000", "194437.980000", "194439.470000", "194440.960000", "194442.450000", "194443.940000", "194445.430000", "194446.920000", "194448.410000", "194449.900000", "194451.390000", "194452.880000", "194454.370000", "194455.860000", "194457.350000", "194458.840000", "194500.330000", "194501.820000", "194503.310000", "194504.800000", "194506.290000", "194507.780000", "194509.270000", "194510.760000", "194512.250000", "194513.740000", "194515.230000", "194516.720000", "194518.210000", "194519.700000", "194521.190000", "194522.680000", "194524.170000", "194525.660000", "194527.150000", "194528.640000", "194530.130000", "194531.620000", "194533.110000", "194534.600000", "194536.090000", "194537.580000", "194539.070000", "194540.560000", "194542.050000", "194543.540000", "194545.030000", "194546.520000", "194548.010000", "194549.500000", "194550.990000", "194552.480000", "194553.970000", "194555.460000", "194556.950000", "194558.440000", "194559.930000", "194601.420000", "194602.910000", "194604.400000", "194605.890000", "194607.380000", "194608.870000", "194610.360000", "194611.850000", "194613.340000", "194614.830000", "194616.320000", "194617.810000", "194619.300000", "194620.790000", "194622.280000", "194623.770000", "194625.260000", "194626.750000", "194628.240000", "194629.730000", "194631.220000", "194632.710000", "194634.200000", "194635.690000", "194637.180000", "194638.670000", "194640.160000", "194641.650000", "194643.140000", "194644.630000", "194646.120000", "194647.610000", "194649.100000", "194650.590000", "194652.080000", "194653.570000", "194655.060000", "194656.550000", "194658.040000", "194659.530000", "194701.020000", "194702.510000", "194704.000000", "194705.490000", "194706.980000", "194708.470000", "194709.960000", "194711.450000", "194712.940000", "194714.430000", "194715.920000", "194717.410000", "194718.900000", "194720.390000", "194721.880000", "194723.370000", "194724.860000", "194726.350000", "194727.840000", "194729.330000", "194730.820000", "194732.310000", "194733.800000", "194735.290000", "194736.780000", "194738.270000", "194739.760000", "194741.250000", "194742.740000", "194744.230000", "194745.720000", "194747.210000", "194748.700000", "194750.190000", "194751.680000", "194753.170000", "194754.660000", "194756.150000", "194757.640000", "194759.130000", "194800.620000", "194802.110000", "194803.600000", "194805.090000", "194806.580000", "194808.070000", "194809.560000", "194811.050000", "194812.540000", "194814.030000", "194815.520000", "194817.010000", "194818.500000", "194819.990000", "194821.480000", "194822.970000", "194824.460000", "194825.950000", "194827.440000", "194828.930000", "194830.420000", "194831.910000", "194833.400000", "194834.890000", "194836.380000", "194837.870000", "194839.360000", "194840.850000", "194842.340000", "194843.830000", "194845.320000", "194846.810000", "194848.300000", "194849.790000", "194851.280000", "194852.770000", "194854.260000", "194855.750000", "194857.240000", "194858.730000", "194900.220000", "194901.710000", "194903.200000", "194904.690000", "194906.180000", "194907.670000", "194909.160000", "194910.650000", "194912.140000", "194913.630000", "194915.120000", "194916.610000", "194918.100000", "194919.590000", "194921.080000", "194922.570000", "194924.060000", "194925.550000", "194927.040000", "194928.530000", "194930.020000", "194931.510000", "194933.000000", "194934.490000", "194935.980000", "194937.470000", "194938.960000", "194940.450000", "194941.940000", "194943.430000", "194944.920000", "194946.410000", "194947.900000", "194949.390000", "194950.880000", "194952.370000", "194953.860000", "194955.350000", "194956.840000", "194958.330000", "194959.820000", "195001.310000", "195002.800000", "195004.290000", "195005.780000", "195007.270000", "195008.760000", "195010.250000", "195011.740000", "195013.230000", "195014.720000", "195016.210000", "195017.700000", "195019.190000", "195020.680000", "195022.170000", "195023.660000", "195025.150000", "195026.640000", "195028.130000", "195029.620000", "195031.110000", "195032.600000", "195034.090000", "195035.580000", "195037.070000", "195038.560000", "195040.050000", "195041.540000", "195043.030000", "195044.520000", "195046.010000", "195047.500000", "195048.990000", "195050.480000", "195051.970000", "195053.460000", "195054.950000", "195056.440000", "195057.930000", "195059.420000", "195100.910000", "195102.400000", "195103.890000", "195105.380000", "195106.870000", "195108.360000", "195109.850000", "195111.340000", "195112.830000", "195114.320000", "195115.810000", "195117.300000", "195118.790000", "195120.280000", "195121.770000", "195123.260000", "195124.750000", "195126.240000", "195127.730000", "195129.220000", "195130.710000", "195132.200000", "195133.690000", "195135.180000", "195136.670000", "195138.160000", "195139.650000", "195141.140000", "195142.630000", "195144.120000", "195145.610000", "195147.100000", "195148.590000", "195150.080000", "195151.570000", "195153.060000", "195154.550000", "195156.040000", "195157.530000", "195159.020000", "195200.510000", "195202.000000", "195203.490000", "195204.980000", "195206.470000", "195207.960000", "195209.450000", "195210.940000", "195212.430000", "195213.920000", "195215.410000", "195216.900000", "195218.390000", "195219.880000", "195221.370000", "195222.860000", "195224.350000", "195225.840000", "195227.330000", "195228.820000", "195230.310000", "195231.800000", "195233.290000", "195234.780000", "195236.270000", "195237.760000", "195239.250000", "195240.740000", "195242.230000", "195243.720000", "195245.210000", "195246.700000", "195248.190000", "195249.680000", "195251.170000", "195252.660000", "195254.150000", "195255.640000", "195257.130000", "195258.620000", "195300.110000", "195301.600000", "195303.090000", "195304.580000", "195306.070000", "195307.560000", "195309.050000", "195310.540000", "195312.030000", "195313.520000", "195315.010000", "195316.500000", "195317.990000", "195319.480000", "195320.970000", "195322.460000", "195323.950000", "195325.440000", "195326.930000", "195328.420000", "195329.910000", "195331.400000", "195332.890000", "195334.380000", "195335.870000", "195337.360000", "195338.850000", "195340.340000", "195341.830000", "195343.320000", "195344.810000", "195346.300000", "195347.790000", "195349.280000", "195350.770000", "195352.260000", "195353.750000", "195355.240000", "195356.730000", "195358.220000", "195359.710000", "195401.200000", "195402.690000", "195404.180000", "195405.670000", "195407.160000", "195408.650000", "195410.140000", "195411.630000", "195413.120000", "195414.610000", "195416.100000", "195417.590000", "195419.080000", "195420.570000", "195422.060000", "195423.550000", "195425.040000", "195426.530000", "195428.020000", "195429.510000", "195431.000000", "195432.490000", "195433.980000", "195435.470000", "195436.960000", "195438.450000", "195439.940000", "195441.430000", "195442.920000", "195444.410000", "195445.900000", "195447.390000", "195448.880000", "195450.370000", "195451.860000", "195453.350000", "195454.840000", "195456.330000", "195457.820000", "195459.310000", "195500.800000", "195502.290000", "195503.780000", "195505.270000", "195506.760000", "195508.250000", "195509.740000", "195511.230000", "195512.720000", "195514.210000", "195515.700000", "195517.190000", "195518.680000", "195520.170000", "195521.660000", "195523.150000", "195524.640000", "195526.130000", "195527.620000", "195529.110000", "195530.600000", "195532.090000", "195533.580000", "195535.070000", "195536.560000", "195538.050000", "195539.540000", "195541.030000", "195542.520000", "195544.010000", "195545.500000", "195546.990000", "195548.480000", "195549.970000", "195551.460000", "195552.950000", "195554.440000", "195555.930000", "195557.420000", "195558.910000", "195600.400000", "195601.890000", "195603.380000", "195604.870000", "195606.360000", "195607.850000"],
      "ContentTime": ["194502.698000", "194502.701000", "194502.704000", "194502.706000", "194502.709000", "194502.711000", "194502.714000", "194502.716000", "194502.719000", "194502.722000", "194502.724000", "194502.727000", "194502.729000", "194502.732000", "194502.734000", "194502.737000", "194502.739000", "194502.742000", "194502.744000", "194502.747000", "194502.749000", "194502.752000", "194502.760000", "194502.762000", "194502.765000", "194502.767000", "194502.770000", "194502.772000", "194502.775000", "194502.777000", "194502.780000", "194502.782000", "194502.785000", "194502.787000", "194502.790000", "194522.609000", "194522.612000", "194522.615000", "194522.617000", "194522.620000", "194522.622000", "194522.625000", "194522.627000", "194522.630000", "194522.632000", "194522.635000", "194522.637000", "194522.640000", "194522.642000", "194522.645000", "194522.647000", "194522.650000", "194522.652000", "194522.655000", "194522.657000", "194522.660000", "194542.609000", "194542.611000", "194542.614000", "194542.616000", "194542.619000", "194542.621000", "194542.624000", "194542.626000", "194542.629000", "194542.631000", "194542.634000", "194542.636000", "194542.639000", "194542.642000", "194542.644000", "194542.647000", "194542.649000", "194542.652000", "194542.654000", "194542.657000", "194602.585000", "194602.588000", "194602.591000", "194602.593000", "194602.596000", "194602.598000", "194602.601000", "194602.603000", "194602.606000", "194602.608000", "194602.611000", "194602.613000", "194602.616000", "194602.618000", "194602.621000", "194602.623000", "194602.626000", "194602.628000", "194602.631000", "194602.633000", "194642.622000", "194642.626000", "194642.629000", "194642.632000", "194642.634000", "194642.637000", "194642.640000", "194642.642000", "194642.645000", "194642.647000", "194642.650000", "194642.652000", "194642.655000", "194642.657000", "194642.660000", "194642.662000", "194642.665000", "194642.667000", "194642.670000", "194642.672000", "194642.675000", "194642.677000", "194642.680000", "194642.682000", "194642.685000", "194642.687000", "194722.612000", "194722.615000", "194722.617000", "194722.620000", "194722.622000", "194722.625000", "194722.627000", "194722.630000", "194722.632000", "194722.635000", "194722.638000", "194722.640000", "194722.643000", "194722.645000", "194722.648000", "194722.650000", "194722.653000", "194722.655000", "194722.658000", "194722.660000", "194722.663000", "194722.665000", "194722.668000", "194722.670000", "194722.673000", "194722.675000", "194722.678000", "194802.631000", "194802.633000", "194802.636000", "194802.638000", "194802.641000", "194802.643000", "194802.646000", "194802.649000", "194802.651000", "194802.654000", "194802.656000", "194802.659000", "194802.661000", "194802.664000", "194802.666000", "194802.669000", "194802.672000", "194802.674000", "194802.677000", "194802.679000", "194802.682000", "194802.684000", "194802.687000", "194802.689000", "194802.692000", "194802.694000", "194802.697000", "194842.622000", "194842.625000", "194842.628000", "194842.631000", "194842.633000", "194842.636000", "194842.638000", "194842.641000", "194842.643000", "194842.646000", "194842.648000", "194842.651000", "194842.654000", "194842.656000", "194842.659000", "194842.661000", "194842.664000", "194842.666000", "194842.669000", "194842.671000", "194842.674000", "194842.676000", "194842.679000", "194842.686000", "194842.689000", "194842.692000", "194842.694000", "194922.619000", "194922.622000", "194922.624000", "194922.627000", "194922.629000", "194922.632000", "194922.634000", "194922.637000", "194922.639000", "194922.642000", "194922.644000", "194922.647000", "194922.649000", "194922.652000", "194922.655000", "194922.657000", "194922.660000", "194922.662000", "194922.665000", "194922.667000", "194922.670000", "194922.672000", "194922.675000", "194922.677000", "194922.680000", "194922.682000", "194922.685000", "195002.613000", "195002.616000", "195002.619000", "195002.621000", "195002.624000", "195002.626000", "195002.629000", "195002.631000", "195002.634000", "195002.636000", "195002.639000", "195002.641000", "195002.644000", "195002.646000", "195002.649000", "195002.651000", "195002.654000", "195002.656000", "195002.659000", "195002.662000", "195002.664000", "195002.667000", "195002.669000", "195002.672000", "195002.674000", "195002.677000", "195002.679000", "195042.628000", "195042.631000", "195042.633000", "195042.636000", "195042.638000", "195042.641000", "195042.643000", "195042.646000", "195042.648000", "195042.651000", "195042.653000", "195042.656000", "195042.659000", "195042.661000", "195042.664000", "195042.666000", "195042.669000", "195042.671000", "195042.674000", "195042.676000", "195042.679000", "195042.682000", "195042.684000", "195042.687000", "195042.689000", "195042.692000", "195123.024000", "195123.027000", "195123.029000", "195123.032000", "195123.034000", "195123.037000", "195123.040000", "195123.042000", "195123.045000", "195123.047000", "195123.050000", "195123.052000", "195123.055000", "195123.057000", "195123.060000", "195123.062000", "195123.065000", "195123.067000", "195123.070000", "195123.072000", "195123.075000", "195123.077000", "195123.080000", "195123.082000", "195123.085000", "195123.087000", "195123.090000", "195202.604000", "195202.607000", "195202.609000", "195202.612000", "195202.614000", "195202.617000", "195202.619000", "195202.622000", "195202.624000", "195202.627000", "195202.630000", "195202.632000", "195202.635000", "195202.637000", "195202.640000", "195202.642000", "195202.645000", "195202.647000", "195202.650000", "195202.653000", "195202.655000", "195202.658000", "195202.660000", "195202.663000", "195202.665000", "195202.668000", "195202.670000", "195242.613000", "195242.616000", "195242.618000", "195242.621000", "195242.624000", "195242.626000", "195242.629000", "195242.631000", "195242.634000", "195242.636000", "195242.639000", "195242.641000", "195242.644000", "195242.647000", "195242.649000", "195242.652000", "195242.654000", "195242.657000", "195242.659000", "195242.662000", "195242.664000", "195242.667000", "195242.670000", "195242.673000", "195242.675000", "195242.678000", "195242.680000", "195322.621000", "195322.624000", "195322.626000", "195322.629000", "195322.632000", "195322.634000", "195322.637000", "195322.639000", "195322.642000", "195322.644000", "195322.647000", "195322.649000", "195322.652000", "195322.654000", "195322.657000", "195322.659000", "195322.662000", "195322.664000", "195322.667000", "195322.670000", "195322.672000", "195322.675000", "195322.677000", "195322.680000", "195322.682000", "195322.685000", "195322.687000", "195402.612000", "195402.615000", "195402.618000", "195402.620000", "195402.623000", "195402.625000", "195402.628000", "195402.630000", "195402.633000", "195402.635000", "195402.638000", "195402.641000", "195402.643000", "195402.646000", "195402.648000", "195402.651000", "195402.653000", "195402.656000", "195402.658000", "195402.661000", "195402.663000", "195402.666000", "195402.668000", "195402.671000", "195402.674000", "195402.676000", "195402.679000", "195442.622000", "195442.625000", "195442.627000", "195442.630000", "195442.632000", "195442.635000", "195442.637000", "195442.640000", "195442.643000", "195442.645000", "195442.648000", "195442.650000", "195442.653000", "195442.655000", "195442.658000", "195442.660000", "195442.663000", "195442.666000", "195442.668000", "195442.671000", "195442.673000", "195442.676000", "195442.678000", "195442.681000", "195442.683000", "195442.686000", "195442.688000", "195522.614000", "195522.617000", "195522.620000", "195522.623000", "195522.625000", "195522.628000", "195522.630000", "195522.633000", "195522.636000", "195522.638000", "195522.641000", "195522.643000", "195522.646000", "195522.648000", "195522.651000", "195522.653000", "195522.656000", "195522.658000", "195522.661000", "195522.663000", "195522.666000", "195522.668000", "195522.671000", "195522.673000", "195522.676000", "195522.679000", "195602.622000", "195602.624000", "195602.627000", "195602.630000", "195602.632000", "195602.635000", "195602.637000", "195602.640000", "195602.642000", "195602.645000", "195602.647000", "195602.650000", "195602.652000", "195602.655000", "195602.657000", "195602.660000", "195602.662000", "195602.665000", "195602.668000", "195602.670000", "195602.673000", "195602.675000", "195602.678000", "195602.680000", "195602.683000", "195602.685000", "195602.688000", "195610.699000", "195610.701000", "195610.704000", "195610.706000", "195610.709000", "195610.712000"],
