{
  "AcquisitionMatrixPE": 104,
  "AcquisitionNumber": 1,
  "AcquisitionTime": "19:43:38.380000",
  "BandwidthPerPixelPhaseEncode": 17.17,
  "BaseResolution": 104,
  "BodyPartExamined": "BRAIN",
  "CoilCombinationMethod": "Sum of Squares",
  "ConsistencyInfo": "N4_VE11C_LATEST_20160120",
  "ConversionSoftware": "dcm2niix",
  "ConversionSoftwareVersion": "v1.0.20220505",
  "DerivedVendorReportedEchoSpacing": 0.000560011,
  "DeviceSerialNumber": "167006",
  "DwellTime": 2.1e-06,
  "EchoTime": 0.037,
  "EchoTrainLength": 104,
  "EffectiveEchoSpacing": 0.000560011,
  "FlipAngle": 52,
  "HeudiconvVersion": "0.5.3.post811+g6206e14",
  "ImageComments": "Unaliased MB4/PE3/LB",
  "ImageOrientationPatientDICOM": [0.999762, -0.0217896, -0.00067374, 0.0200692, 0.932015, -0.361864],
  "ImageOrientationText": "Tra>Cor(-21.2)>Sag(-0.5)",
  "ImageType": [
    "ORIGINAL",
    "PRIMARY",
    "M",
    "MB",
    "ND",
    "MOSAIC"
],
  "ImagingFrequency": 123.26,
  "InPlanePhaseEncodingDirectionDICOM": "COL",
  "InstitutionAddress": "Chemin Queen-Mary 4565,Montreal,District,CA,H3W 1W5",
  "InstitutionName": "IUGM",
  "InstitutionalDepartmentName": "Department",
  "MRAcquisitionType": "2D",
  "MagneticFieldStrength": 3,
  "Manufacturer": "Siemens",
  "ManufacturersModelName": "Prisma_fit",
  "MatrixCoilMode": "SENSE",
  "Modality": "MR",
  "MultibandAccelerationFactor": 4,
  "PartialFourier": 1,
  "PatientPosition": "HFS",
  "PercentPhaseFOV": 100,
  "PercentSampling": 100,
  "PhaseEncodingDirection": "j",
  "PhaseEncodingSteps": 104,
  "PhaseResolution": 1,
  "PixelBandwidth": 2290,
  "ProcedureStepDescription": "games^mariostars",
  "ProtocolName": "func_task-mariostars_run-06",
  "PulseSequenceDetails": "%CustomerSeq%\\cmrr_mbep2d_bold",
  "ReceiveCoilActiveElements": "HC1-7;NC1,2",
  "ReceiveCoilName": "HeadNeck_64",
  "ReconMatrixPE": 104,
  "RepetitionTime": 1.49,
  "SAR": 0.0734961,
  "ScanOptions": "FS",
  "ScanningSequence": "EP",
  "SequenceName": "epfid2d1_104",
  "SequenceVariant": "SK\\SS",
  "SeriesDescription": "func_task-mariostars_run-06",
  "SeriesNumber": 26,
  "ShimSetting": [590, -7264, -8832, 382, 0, -328, 13, 50],
  "SliceThickness": 2,
  "SliceTiming": [0, 0.7825, 0.0975, 0.8825, 0.195, 0.98, 0.2925, 1.0775, 0.3925, 1.175, 0.49, 1.2725, 0.5875, 1.3725, 0.685, 0, 0.7825, 0.0975, 0.8825, 0.195, 0.98, 0.2925, 1.0775, 0.3925, 1.175, 0.49, 1.2725, 0.5875, 1.3725, 0.685, 0, 0.7825, 0.0975, 0.8825, 0.195, 0.98, 0.2925, 1.0775, 0.3925, 1.175, 0.49, 1.2725, 0.5875, 1.3725, 0.685, 0, 0.7825, 0.0975, 0.8825, 0.195, 0.98, 0.2925, 1.0775, 0.3925, 1.175, 0.49, 1.2725, 0.5875, 1.3725, 0.685],
  "SoftwareVersions": "syngo MR E11",
  "SpacingBetweenSlices": 2,
  "StationName": "MRC35049",
  "TaskName": "mariostars",
  "TotalReadoutTime": 0.0576811,
  "TxRefAmp": 289.344,
  "WipMemBlock": "a688b221-ae00-4a90-abf6-9c4f36c41320||Sequence: R017 ve11c/master r/75a17815+; Jun 28 2022 16:32:11 by eja",
  "dcmmeta_affine": [
    [-1.999524712562561, 0.04013841226696968, -0.017025642096996307, 102.65934753417969],
    [0.04357922822237015, 1.8640294075012207, -0.7235297560691833, -64.2630844116211],
    [-0.0013474804582074285, 0.7237287759780884, 1.864461064338684, -57.84170150756836],
    [0.0, 0.0, 0.0, 1.0]
],
  "dcmmeta_reorient_transform": [
    [0.0, -1.0, 0.0, 103.0],
    [1.0, 0.0, 0.0, 0.0],
    [0.0, 0.0, 1.0, 0.0],
    [0.0, 0.0, 0.0, 1.0]
],
  "dcmmeta_shape": [104, 104, 60, 504],
  "dcmmeta_slice_dim": 2,
  "dcmmeta_version": 0.6,
  "global": {
    "const": {
      "AcquisitionMatrix": [104, 0, 0, 104],
      "AngioFlag": "N",
      "BitsAllocated": 16,
      "BitsStored": 16,
      "BodyPartExamined": "BRAIN",
      "Columns": 832,
      "EchoNumbers": 1,
      "EchoTime": 37.0,
      "EchoTrainLength": 104,
      "FlipAngle": 52.0,
      "HighBit": 15,
      "ImageOrientationPatient": [0.99976235117207, -0.0217896134196, -0.0006737402422, 0.02006920663052, 0.93201469083538, -0.3618643986527],
      "ImagePositionPatient": [-849.23097447278, -790.37579544633, 280.630131295],
      "ImageType": [
        "ORIGINAL",
        "PRIMARY",
        "M",
        "MB",
        "ND",
        "MOSAIC"
],
      "ImagedNucleus": "1H",
      "ImagingFrequency": 123.260193,
      "InPlanePhaseEncodingDirection": "COL",
      "MRAcquisitionType": "2D",
      "MagneticFieldStrength": 3.0,
      "Manufacturer": "SIEMENS",
      "ManufacturerModelName": "Prisma_fit",
      "Modality": "MR",
      "NumberOfAverages": 1.0,
      "NumberOfPhaseEncodingSteps": 104,
      "PercentPhaseFieldOfView": 100.0,
      "PercentSampling": 100.0,
      "PerformedProcedureStepStartTime": "183309.918000",
      "PhotometricInterpretation": "MONOCHROME2",
      "PixelBandwidth": 2290.0,
      "PixelRepresentation": 0,
      "PixelSpacing": [2.0, 2.0],
      "ProtocolName": "func_task-mariostars_run-06",
      "RepetitionTime": 1490.0,
      "Rows": 832,
      "SAR": 0.07349605225176,
      "SamplesPerPixel": 1,
      "ScanOptions": "FS",
      "ScanningSequence": "EP",
      "SequenceName": "epfid2d1_104",
      "SequenceVariant": [
        "SK",
        "SS"
],
      "SeriesDescription": "func_task-mariostars_run-06",
      "SeriesNumber": 26,
      "SeriesTime": "194502.509000",
      "SliceLocation": -31.547589354047,
      "SliceThickness": 2.0,
      "SmallestImagePixelValue": 0,
      "SoftwareVersions": "syngo MR E11",
      "SpacingBetweenSlices": 2.0000000526323,
      "SpecificCharacterSet": "ISO_IR 100",
      "StudyID": "1",
      "StudyTime": "183309.840000",
      "TransmitCoilName": "Body",
      "VariableFlipAngleFlag": "N",
      "WindowCenterWidthExplanation": "Algo1",
      "dBdt": 0.0},
    "slices": {}
  },
  "time": {
    "samples": {
      "AcquisitionNumber": [1, 2, 3, 4, 5, 6, 7, 8, 9, 10, 11, 12, 13, 14, 15, 16, 17, 18, 19, 20, 21, 22, 23, 24, 25, 26, 27, 28, 29, 30, 31, 32, 33, 34, 35, 36, 37, 38, 39, 40, 41, 42, 43, 44, 45, 46, 47, 48, 49, 50, 51, 52, 53, 54, 55, 56, 57, 58, 59, 60, 61, 62, 63, 64, 65, 66, 67, 68, 69, 70, 71, 72, 73, 74, 75, 76, 77, 78, 79, 80, 81, 82, 83, 84, 85, 86, 87, 88, 89, 90, 91, 92, 93, 94, 95, 96, 97, 98, 99, 100, 101, 102, 103, 104, 105, 106, 107, 108, 109, 110, 111, 112, 113, 114, 115, 116, 117, 118, 119, 120, 121, 122, 123, 124, 125, 126, 127, 128, 129, 130, 131, 132, 133, 134, 135, 136, 137, 138, 139, 140, 141, 142, 143, 144, 145, 146, 147, 148, 149, 150, 151, 152, 153, 154, 155, 156, 157, 158, 159, 160, 161, 162, 163, 164, 165, 166, 167, 168, 169, 170, 171, 172, 173, 174, 175, 176, 177, 178, 179, 180, 181, 182, 183, 184, 185, 186, 187, 188, 189, 190, 191, 192, 193, 194, 195, 196, 197, 198, 199, 200, 201, 202, 203, 204, 205, 206, 207, 208, 209, 210, 211, 212, 213, 214, 215, 216, 217, 218, 219, 220, 221, 222, 223, 224, 225, 226, 227, 228, 229, 230, 231, 232, 233, 234, 235, 236, 237, 238, 239, 240, 241, 242, 243, 244, 245, 246, 247, 248, 249, 250, 251, 252, 253, 254, 255, 256, 257, 258, 259, 260, 261, 262, 263, 264, 265, 266, 267, 268, 269, 270, 271, 272, 273, 274, 275, 276, 277, 278, 279, 280, 281, 282, 283, 284, 285, 286, 287, 288, 289, 290, 291, 292, 293, 294, 295, 296, 297, 298, 299, 300, 301, 302, 303, 304, 305, 306, 307, 308, 309, 310, 311, 312, 313, 314, 315, 316, 317, 318, 319, 320, 321, 322, 323, 324, 325, 326, 327, 328, 329, 330, 331, 332, 333, 334, 335, 336, 337, 338, 339, 340, 341, 342, 343, 344, 345, 346, 347, 348, 349, 350, 351, 352, 353, 354, 355, 356, 357, 358, 359, 360, 361, 362, 363, 364, 365, 366, 367, 368, 369, 370, 371, 372, 373, 374, 375, 376, 377, 378, 379, 380, 381, 382, 383, 384, 385, 386, 387, 388, 389, 390, 391, 392, 393, 394, 395, 396, 397, 398, 399, 400, 401, 402, 403, 404, 405, 406, 407, 408, 409, 410, 411, 412, 413, 414, 415, 416, 417, 418, 419, 420, 421, 422, 423, 424, 425, 426, 427, 428, 429, 430, 431, 432, 433, 434, 435, 436, 437, 438, 439, 440, 441, 442, 443, 444, 445, 446, 447, 448, 449, 450, 451, 452, 453, 454, 455, 456, 457, 458, 459, 460, 461, 462, 463, 464, 465, 466, 467, 468, 469, 470, 471, 472, 473, 474, 475, 476, 477, 478, 479, 480, 481, 482, 483, 484, 485, 486, 487, 488, 489, 490, 491, 492, 493, 494, 495, 496, 497, 498, 499, 500, 501, 502, 503, 504],
      "AcquisitionTime": ["194338.380000", "194339.870000", "194341.360000", "194342.850000", "194344.340000", "194345.830000", "194347.320000", "194348.810000", "194350.300000", "194351.790000", "194353.280000", "194354.770000", "194356.260000", "194357.750000", "194359.240000", "194400.730000", "194402.220000", "194403.710000", "194405.200000", "194406.690000", "194408.180000", "194409.670000", "194411.160000", "194412.650000", "194414.140000", "194415.630000", "194417.120000", "194418.610000", "194420.100000", "194421.590000", "194423.080000", "194424.570000", "194426.060000", "194427.550000", "194429.040000", "194430.530000", "194432.020000", "194433.510000", "194435.000000", "194436.490000", "194437.980000", "194439.470000", "194440.960000", "194442.450000", "194443.940000", "194445.430000", "194446.920000", "194448.410000", "194449.900000", "194451.390000", "194452.880000", "194454.370000", "194455.860000", "194457.350000", "194458.840000", "194500.330000", "194501.820000", "194503.310000", "194504.800000", "194506.290000", "194507.780000", "194509.270000", "194510.760000", "194512.250000", "194513.740000", "194515.230000", "194516.720000", "194518.210000", "194519.700000", "194521.190000", "194522.680000", "194524.170000", "194525.660000", "194527.150000", "194528.640000", "194530.130000", "194531.620000", "194533.110000", "194534.600000", "194536.090000", "194537.580000", "194539.070000", "194540.560000", "194542.050000", "194543.540000", "194545.030000", "194546.520000", "194548.010000", "194549.500000", "194550.990000", "194552.480000", "194553.970000", "194555.460000", "194556.950000", "194558.440000", "194559.930000", "194601.420000", "194602.910000", "194604.400000", "194605.890000", "194607.380000", "194608.870000", "194610.360000", "194611.850000", "194613.340000", "194614.830000", "194616.320000", "194617.810000", "194619.300000", "194620.790000", "194622.280000", "194623.770000", "194625.260000", "194626.750000", "194628.240000", "194629.730000", "194631.220000", "194632.710000", "194634.200000", "194635.690000", "194637.180000", "194638.670000", "194640.160000", "194641.650000", "194643.140000", "194644.630000", "194646.120000", "194647.610000", "194649.100000", "194650.590000", "194652.080000", "194653.570000", "194655.060000", "194656.550000", "194658.040000", "194659.530000", "194701.020000", "194702.510000", "194704.000000", "194705.490000", "194706.980000", "194708.470000", "194709.960000", "194711.450000", "194712.940000", "194714.430000", "194715.920000", "194717.410000", "194718.900000", "194720.390000", "194721.880000", "194723.370000", "194724.860000", "194726.350000", "194727.840000", "194729.330000", "194730.820000", "194732.310000", "194733.800000", "194735.290000", "194736.780000", "194738.270000", "194739.760000", "194741.250000", "194742.740000", "194744.230000", "194745.720000", "194747.210000", "194748.700000", "194750.190000", "194751.680000", "194753.170000", "194754.660000", "194756.150000", "194757.640000", "194759.130000", "194800.620000", "194802.110000", "194803.600000", "194805.090000", "194806.580000", "194808.070000", "194809.560000", "194811.050000", "194812.540000", "194814.030000", "194815.520000", "194817.010000", "194818.500000", "194819.990000", "194821.480000", "194822.970000", "194824.460000", "194825.950000", "194827.440000", "194828.930000", "194830.420000", "194831.910000", "194833.400000", "194834.890000", "194836.380000", "194837.870000", "194839.360000", "194840.850000", "194842.340000", "194843.830000", "194845.320000", "194846.810000", "194848.300000", "194849.790000", "194851.280000", "194852.770000", "194854.260000", "194855.750000", "194857.240000", "194858.730000", "194900.220000", "194901.710000", "194903.200000", "194904.690000", "194906.180000", "194907.670000", "194909.160000", "194910.650000", "194912.140000", "194913.630000", "194915.120000", "194916.610000", "194918.100000", "194919.590000", "194921.080000", "194922.570000", "194924.060000", "194925.550000", "194927.040000", "194928.530000", "194930.020000", "194931.510000", "194933.000000", "194934.490000", "194935.980000", "194937.470000", "194938.960000", "194940.450000", "194941.940000", "194943.430000", "194944.920000", "194946.410000", "194947.900000", "194949.390000", "194950.880000", "194952.370000", "194953.860000", "194955.350000", "194956.840000", "194958.330000", "194959.820000", "195001.310000", "195002.800000", "195004.290000", "195005.780000", "195007.270000", "195008.760000", "195010.250000", "195011.740000", "195013.230000", "195014.720000", "195016.210000", "195017.700000", "195019.190000", "195020.680000", "195022.170000", "195023.660000", "195025.150000", "195026.640000", "195028.130000", "195029.620000", "195031.110000", "195032.600000", "195034.090000", "195035.580000", "195037.070000", "195038.560000", "195040.050000", "195041.540000", "195043.030000", "195044.520000", "195046.010000", "195047.500000", "195048.990000", "195050.480000", "195051.970000", "195053.460000", "195054.950000", "195056.440000", "195057.930000", "195059.420000", "195100.910000", "195102.400000", "195103.890000", "195105.380000", "195106.870000", "195108.360000", "195109.850000", "195111.340000", "195112.830000", "195114.320000", "195115.810000", "195117.300000", "195118.790000", "195120.280000", "195121.770000", "195123.260000", "195124.750000", "195126.240000", "195127.730000", "195129.220000", "195130.710000", "195132.200000", "195133.690000", "195135.180000", "195136.670000", "195138.160000", "195139.650000", "195141.140000", "195142.630000", "195144.120000", "195145.610000", "195147.100000", "195148.590000", "195150.080000", "195151.570000", "195153.060000", "195154.550000", "195156.040000", "195157.530000", "195159.020000", "195200.510000", "195202.000000", "195203.490000", "195204.980000", "195206.470000", "195207.960000", "195209.450000", "195210.940000", "195212.430000", "195213.920000", "195215.410000", "195216.900000", "195218.390000", "195219.880000", "195221.370000", "195222.860000", "195224.350000", "195225.840000", "195227.330000", "195228.820000", "195230.310000", "195231.800000", "195233.290000", "195234.780000", "195236.270000", "195237.760000", "195239.250000", "195240.740000", "195242.230000", "195243.720000", "195245.210000", "195246.700000", "195248.190000", "195249.680000", "195251.170000", "195252.660000", "195254.150000", "195255.640000", "195257.130000", "195258.620000", "195300.110000", "195301.600000", "195303.090000", "195304.580000", "195306.070000", "195307.560000", "195309.050000", "195310.540000", "195312.030000", "195313.520000", "195315.010000", "195316.500000", "195317.990000", "195319.480000", "195320.970000", "195322.460000", "195323.950000", "195325.440000", "195326.930000", "195328.420000", "195329.910000", "195331.400000", "195332.890000", "195334.380000", "195335.870000", "195337.360000", "195338.850000", "195340.340000", "195341.830000", "195343.320000", "195344.810000", "195346.300000", "195347.790000", "195349.280000", "195350.770000", "195352.260000", "195353.750000", "195355.240000", "195356.730000", "195358.220000", "195359.710000", "195401.200000", "195402.690000", "195404.180000", "195405.670000", "195407.160000", "195408.650000", "195410.140000", "195411.630000", "195413.120000", "195414.610000", "195416.100000", "195417.590000", "195419.080000", "195420.570000", "195422.060000", "195423.550000", "195425.040000", "195426.530000", "195428.020000", "195429.510000", "195431.000000", "195432.490000", "195433.980000", "195435.470000", "195436.960000", "195438.450000", "195439.940000", "195441.430000", "195442.920000", "195444.410000", "195445.900000", "195447.390000", "195448.880000", "195450.370000", "195451.860000", "195453.350000", "195454.840000", "195456.330000", "195457.820000", "195459.310000", "195500.800000", "195502.290000", "195503.780000", "195505.270000", "195506.760000", "195508.250000", "195509.740000", "195511.230000", "195512.720000", "195514.210000", "195515.700000", "195517.190000", "195518.680000", "195520.170000", "195521.660000", "195523.150000", "195524.640000", "195526.130000", "195527.620000", "195529.110000", "195530.600000", "195532.090000", "195533.580000", "195535.070000", "195536.560000", "195538.050000", "195539.540000", "195541.030000", "195542.520000", "195544.010000", "195545.500000", "195546.990000", "195548.480000", "195549.970000", "195551.460000", "195552.950000", "195554.440000", "195555.930000", "195557.420000", "195558.910000", "195600.400000", "195601.890000", "195603.380000", "195604.870000", "195606.360000", "195607.850000"],
      "ContentTime": ["194502.512000", "194502.516000", "194502.519000", "194502.522000", "194502.526000", "194502.529000", "194502.533000", "194502.536000", "194502.539000", "194502.543000", "194502.546000", "194502.549000", "194502.552000", "194502.556000", "194502.559000", "194502.563000", "194502.566000", "194502.569000", "194502.573000", "194502.576000", "194502.579000", "194502.582000", "194502.586000", "194502.589000", "194502.592000", "194502.596000", "194502.599000", "194502.602000", "194502.606000", "194502.618000", "194502.621000", "194502.625000", "194502.628000", "194502.631000", "194502.635000", "194522.471000", "194522.475000", "194522.478000", "194522.482000", "194522.485000", "194522.488000", "194522.492000", "194522.495000", "194522.498000", "194522.501000", "194522.505000", "194522.508000", "194522.511000", "194522.515000", "194522.518000", "194522.521000", "194522.525000", "194522.528000", "194522.531000", "194522.535000", "194522.538000", "194542.471000", "194542.475000", "194542.478000", "194542.482000", "194542.485000", "194542.488000", "194542.492000", "194542.495000", "194542.498000", "194542.518000", "194542.522000", "194542.525000", "194542.528000", "194542.532000", "194542.535000", "194542.538000", "194542.542000", "194542.545000", "194542.549000", "194542.552000", "194602.472000", "194602.476000", "194602.479000", "194602.482000", "194602.486000", "194602.489000", "194602.492000", "194602.496000", "194602.499000", "194602.503000", "194602.506000", "194602.509000", "194602.513000", "194602.516000", "194602.519000", "194602.523000", "194602.526000", "194602.529000", "194602.533000", "194602.536000", "194642.471000", "194642.475000", "194642.478000", "194642.482000", "194642.486000", "194642.490000", "194642.494000", "194642.497000", "194642.500000", "194642.504000", "194642.507000", "194642.510000", "194642.514000", "194642.518000", "194642.521000", "194642.524000", "194642.528000", "194642.531000", "194642.534000", "194642.538000", "194642.541000", "194642.545000", "194642.548000", "194642.552000", "194642.555000", "194642.559000", "194722.471000", "194722.475000", "194722.478000", "194722.482000", "194722.485000", "194722.488000", "194722.492000", "194722.495000", "194722.499000", "194722.502000", "194722.505000", "194722.509000", "194722.512000", "194722.515000", "194722.519000", "194722.522000", "194722.525000", "194722.529000", "194722.532000", "194722.535000", "194722.539000", "194722.542000", "194722.545000", "194722.549000", "194722.552000", "194722.555000", "194722.559000", "194802.471000", "194802.475000", "194802.478000", "194802.482000", "194802.485000", "194802.488000", "194802.492000", "194802.495000", "194802.499000", "194802.502000", "194802.505000", "194802.509000", "194802.512000", "194802.516000", "194802.532000", "194802.535000", "194802.539000", "194802.542000", "194802.545000", "194802.549000", "194802.552000", "194802.556000", "194802.559000", "194802.562000", "194802.566000", "194802.569000", "194802.572000", "194842.473000", "194842.477000", "194842.480000", "194842.483000", "194842.487000", "194842.490000", "194842.494000", "194842.497000", "194842.500000", "194842.504000", "194842.507000", "194842.510000", "194842.514000", "194842.517000", "194842.520000", "194842.524000", "194842.527000", "194842.531000", "194842.534000", "194842.538000", "194842.541000", "194842.544000", "194842.548000", "194842.551000", "194842.554000", "194842.558000", "194842.561000", "194922.471000", "194922.475000", "194922.478000", "194922.482000", "194922.485000", "194922.488000", "194922.492000", "194922.495000", "194922.498000", "194922.502000", "194922.505000", "194922.509000", "194922.512000", "194922.515000", "194922.519000", "194922.522000", "194922.525000", "194922.529000", "194922.532000", "194922.536000", "194922.539000", "194922.542000", "194922.546000", "194922.549000", "194922.552000", "194922.556000", "194922.559000", "195002.471000", "195002.475000", "195002.478000", "195002.482000", "195002.485000", "195002.488000", "195002.492000", "195002.495000", "195002.498000", "195002.502000", "195002.505000", "195002.508000", "195002.512000", "195002.515000", "195002.518000", "195002.522000", "195002.525000", "195002.528000", "195002.532000", "195002.535000", "195002.538000", "195002.542000", "195002.545000", "195002.548000", "195002.552000", "195002.555000", "195002.558000", "195042.472000", "195042.476000", "195042.495000", "195042.499000", "195042.502000", "195042.506000", "195042.509000", "195042.513000", "195042.516000", "195042.519000", "195042.523000", "195042.526000", "195042.530000", "195042.533000", "195042.536000", "195042.540000", "195042.543000", "195042.546000", "195042.550000", "195042.553000", "195042.556000", "195042.560000", "195042.563000", "195042.567000", "195042.570000", "195042.574000", "195122.471000", "195122.475000", "195122.478000", "195122.482000", "195122.485000", "195122.488000", "195122.492000", "195122.495000", "195122.499000", "195122.502000", "195122.505000", "195122.509000", "195122.512000", "195122.515000", "195122.519000", "195122.522000", "195122.525000", "195122.529000", "195122.532000", "195122.535000", "195122.539000", "195122.542000", "195122.545000", "195122.549000", "195122.552000", "195122.555000", "195122.559000", "195202.471000", "195202.475000", "195202.478000", "195202.482000", "195202.485000", "195202.488000", "195202.492000", "195202.495000", "195202.499000", "195202.502000", "195202.505000", "195202.509000", "195202.512000", "195202.516000", "195202.519000", "195202.522000", "195202.526000", "195202.529000", "195202.532000", "195202.536000", "195202.539000", "195202.543000", "195202.546000", "195202.549000", "195202.553000", "195202.556000", "195202.559000", "195242.472000", "195242.476000", "195242.479000", "195242.483000", "195242.486000", "195242.489000", "195242.493000", "195242.496000", "195242.499000", "195242.503000", "195242.506000", "195242.509000", "195242.513000", "195242.516000", "195242.519000", "195242.531000", "195242.537000", "195242.540000", "195242.544000", "195242.547000", "195242.550000", "195242.554000", "195242.557000", "195242.560000", "195242.564000", "195242.567000", "195242.570000", "195322.473000", "195322.476000", "195322.479000", "195322.483000", "195322.486000", "195322.490000", "195322.493000", "195322.496000", "195322.500000", "195322.503000", "195322.507000", "195322.510000", "195322.513000", "195322.517000", "195322.520000", "195322.523000", "195322.527000", "195322.530000", "195322.533000", "195322.537000", "195322.540000", "195322.543000", "195322.547000", "195322.550000", "195322.553000", "195322.557000", "195322.560000", "195402.471000", "195402.475000", "195402.478000", "195402.482000", "195402.485000", "195402.488000", "195402.492000", "195402.495000", "195402.498000", "195402.502000", "195402.505000", "195402.508000", "195402.512000", "195402.515000", "195402.518000", "195402.522000", "195402.525000", "195402.528000", "195402.532000", "195402.535000", "195402.538000", "195402.542000", "195402.545000", "195402.548000", "195402.552000", "195402.555000", "195402.558000", "195442.471000", "195442.475000", "195442.478000", "195442.482000", "195442.485000", "195442.488000", "195442.492000", "195442.495000", "195442.499000", "195442.502000", "195442.505000", "195442.509000", "195442.512000", "195442.515000", "195442.519000", "195442.522000", "195442.525000", "195442.529000", "195442.532000", "195442.536000", "195442.539000", "195442.542000", "195442.546000", "195442.549000", "195442.552000", "195442.556000", "195442.559000", "195522.472000", "195522.476000", "195522.479000", "195522.483000", "195522.487000", "195522.491000", "195522.494000", "195522.498000", "195522.501000", "195522.504000", "195522.508000", "195522.511000", "195522.514000", "195522.518000", "195522.521000", "195522.525000", "195522.528000", "195522.531000", "195522.535000", "195522.538000", "195522.541000", "195522.545000", "195522.548000", "195522.551000", "195522.555000", "195522.558000", "195602.471000", "195602.475000", "195602.478000", "195602.482000", "195602.485000", "195602.489000", "195602.492000", "195602.495000", "195602.499000", "195602.502000", "195602.505000", "195602.509000", "195602.512000", "195602.515000", "195602.519000", "195602.522000", "195602.525000", "195602.529000", "195602.532000", "195602.535000", "195602.539000", "195602.542000", "195602.545000", "195602.549000", "195602.552000", "195602.555000", "195602.559000", "195610.634000", "195610.638000", "195610.641000", "195610.645000", "195610.648000", "195610.651000"],
