{
  "AcquisitionMatrixPE": 104,
  "AcquisitionNumber": 1,
  "AcquisitionTime": "19:21:7.970000",
  "BandwidthPerPixelPhaseEncode": 17.17,
  "BaseResolution": 104,
  "BodyPartExamined": "BRAIN",
  "CoilCombinationMethod": "Sum of Squares",
  "ConsistencyInfo": "N4_VE11C_LATEST_20160120",
  "ConversionSoftware": "dcm2niix",
  "ConversionSoftwareVersion": "v1.0.20220505",
  "DerivedVendorReportedEchoSpacing": 0.000560011,
  "DeviceSerialNumber": "167006",
  "DwellTime": 2.1e-06,
  "EchoTime": 0.037,
  "EchoTrainLength": 104,
  "EffectiveEchoSpacing": 0.000560011,
  "FlipAngle": 52,
  "HeudiconvVersion": "0.5.3.post811+g6206e14",
  "ImageComments": "Unaliased MB4/PE3/LB",
  "ImageOrientationPatientDICOM": [0.999762, -0.0217896, -0.00067374, 0.0200692, 0.932015, -0.361864],
  "ImageOrientationText": "Tra>Cor(-21.2)>Sag(-0.5)",
  "ImageType": [
    "ORIGINAL",
    "PRIMARY",
    "M",
    "MB",
    "ND",
    "MOSAIC"
],
  "ImagingFrequency": 123.26,
  "InPlanePhaseEncodingDirectionDICOM": "COL",
  "InstitutionAddress": "Chemin Queen-Mary 4565,Montreal,District,CA,H3W 1W5",
  "InstitutionName": "IUGM",
  "InstitutionalDepartmentName": "Department",
  "MRAcquisitionType": "2D",
  "MagneticFieldStrength": 3,
  "Manufacturer": "Siemens",
  "ManufacturersModelName": "Prisma_fit",
  "MatrixCoilMode": "SENSE",
  "Modality": "MR",
  "MultibandAccelerationFactor": 4,
  "PartialFourier": 1,
  "PatientPosition": "HFS",
  "PercentPhaseFOV": 100,
  "PercentSampling": 100,
  "PhaseEncodingDirection": "j",
  "PhaseEncodingSteps": 104,
  "PhaseResolution": 1,
  "PixelBandwidth": 2290,
  "ProcedureStepDescription": "games^mariostars",
  "ProtocolName": "func_task-mariostars_run-04",
  "PulseSequenceDetails": "%CustomerSeq%\\cmrr_mbep2d_bold",
  "ReceiveCoilActiveElements": "HC1-7;NC1,2",
  "ReceiveCoilName": "HeadNeck_64",
  "ReconMatrixPE": 104,
  "RepetitionTime": 1.49,
  "SAR": 0.0734961,
  "ScanOptions": "FS",
  "ScanningSequence": "EP",
  "SequenceName": "epfid2d1_104",
  "SequenceVariant": "SK\\SS",
  "SeriesDescription": "func_task-mariostars_run-04",
  "SeriesNumber": 20,
  "ShimSetting": [590, -7264, -8832, 382, 0, -328, 13, 50],
  "SliceThickness": 2,
  "SliceTiming": [0, 0.785, 0.0975, 0.8825, 0.1975, 0.98, 0.295, 1.0775, 0.3925, 1.1775, 0.49, 1.275, 0.5875, 1.3725, 0.6875, 0, 0.785, 0.0975, 0.8825, 0.1975, 0.98, 0.295, 1.0775, 0.3925, 1.1775, 0.49, 1.275, 0.5875, 1.3725, 0.6875, 0, 0.785, 0.0975, 0.8825, 0.1975, 0.98, 0.295, 1.0775, 0.3925, 1.1775, 0.49, 1.275, 0.5875, 1.3725, 0.6875, 0, 0.785, 0.0975, 0.8825, 0.1975, 0.98, 0.295, 1.0775, 0.3925, 1.1775, 0.49, 1.275, 0.5875, 1.3725, 0.6875],
  "SoftwareVersions": "syngo MR E11",
  "SpacingBetweenSlices": 2,
  "StationName": "MRC35049",
  "TaskName": "mariostars",
  "TotalReadoutTime": 0.0576811,
  "TxRefAmp": 289.344,
  "WipMemBlock": "26a9ee15-ce1e-4cff-a342-ede458fcd0cd||Sequence: R017 ve11c/master r/75a17815+; Jun 28 2022 16:32:11 by eja",
  "dcmmeta_affine": [
    [-1.999524712562561, 0.04013841226696968, -0.017025642096996307, 102.65934753417969],
    [0.04357922822237015, 1.8640294075012207, -0.7235297560691833, -64.2630844116211],
    [-0.0013474804582074285, 0.7237287759780884, 1.864461064338684, -57.84170150756836],
    [0.0, 0.0, 0.0, 1.0]
],
  "dcmmeta_reorient_transform": [
    [0.0, -1.0, 0.0, 103.0],
    [1.0, 0.0, 0.0, 0.0],
    [0.0, 0.0, 1.0, 0.0],
    [0.0, 0.0, 0.0, 1.0]
],
  "dcmmeta_shape": [104, 104, 60, 444],
  "dcmmeta_slice_dim": 2,
  "dcmmeta_version": 0.6,
  "global": {
    "const": {
      "AcquisitionMatrix": [104, 0, 0, 104],
      "AngioFlag": "N",
      "BitsAllocated": 16,
      "BitsStored": 16,
      "BodyPartExamined": "BRAIN",
      "Columns": 832,
      "EchoNumbers": 1,
      "EchoTime": 37.0,
      "EchoTrainLength": 104,
      "FlipAngle": 52.0,
      "HighBit": 15,
      "ImageOrientationPatient": [0.99976235117207, -0.0217896134196, -0.0006737402422, 0.02006920663052, 0.93201469083538, -0.3618643986527],
      "ImagePositionPatient": [-849.23097447278, -790.37579544633, 280.630131295],
      "ImageType": [
        "ORIGINAL",
        "PRIMARY",
        "M",
        "MB",
        "ND",
        "MOSAIC"
],
      "ImagedNucleus": "1H",
      "ImagingFrequency": 123.260201,
      "InPlanePhaseEncodingDirection": "COL",
      "MRAcquisitionType": "2D",
      "MagneticFieldStrength": 3.0,
      "Manufacturer": "SIEMENS",
      "ManufacturerModelName": "Prisma_fit",
      "Modality": "MR",
      "NumberOfAverages": 1.0,
      "NumberOfPhaseEncodingSteps": 104,
      "PercentPhaseFieldOfView": 100.0,
      "PercentSampling": 100.0,
      "PerformedProcedureStepStartTime": "183309.918000",
      "PhotometricInterpretation": "MONOCHROME2",
      "PixelBandwidth": 2290.0,
      "PixelRepresentation": 0,
      "PixelSpacing": [2.0, 2.0],
      "ProtocolName": "func_task-mariostars_run-04",
      "RepetitionTime": 1490.0,
      "Rows": 832,
      "SAR": 0.07349605225176,
      "SamplesPerPixel": 1,
      "ScanOptions": "FS",
      "ScanningSequence": "EP",
      "SequenceName": "epfid2d1_104",
      "SequenceVariant": [
        "SK",
        "SS"
],
      "SeriesDescription": "func_task-mariostars_run-04",
      "SeriesNumber": 20,
      "SeriesTime": "192233.457000",
      "SliceLocation": -31.547589354047,
      "SliceThickness": 2.0,
      "SmallestImagePixelValue": 0,
      "SoftwareVersions": "syngo MR E11",
      "SpacingBetweenSlices": 2.0000000526323,
      "SpecificCharacterSet": "ISO_IR 100",
      "StudyID": "1",
      "StudyTime": "183309.840000",
      "TransmitCoilName": "Body",
      "VariableFlipAngleFlag": "N",
      "WindowCenterWidthExplanation": "Algo1",
      "dBdt": 0.0},
    "slices": {}
  },
  "time": {
    "samples": {
      "AcquisitionNumber": [1, 2, 3, 4, 5, 6, 7, 8, 9, 10, 11, 12, 13, 14, 15, 16, 17, 18, 19, 20, 21, 22, 23, 24, 25, 26, 27, 28, 29, 30, 31, 32, 33, 34, 35, 36, 37, 38, 39, 40, 41, 42, 43, 44, 45, 46, 47, 48, 49, 50, 51, 52, 53, 54, 55, 56, 57, 58, 59, 60, 61, 62, 63, 64, 65, 66, 67, 68, 69, 70, 71, 72, 73, 74, 75, 76, 77, 78, 79, 80, 81, 82, 83, 84, 85, 86, 87, 88, 89, 90, 91, 92, 93, 94, 95, 96, 97, 98, 99, 100, 101, 102, 103, 104, 105, 106, 107, 108, 109, 110, 111, 112, 113, 114, 115, 116, 117, 118, 119, 120, 121, 122, 123, 124, 125, 126, 127, 128, 129, 130, 131, 132, 133, 134, 135, 136, 137, 138, 139, 140, 141, 142, 143, 144, 145, 146, 147, 148, 149, 150, 151, 152, 153, 154, 155, 156, 157, 158, 159, 160, 161, 162, 163, 164, 165, 166, 167, 168, 169, 170, 171, 172, 173, 174, 175, 176, 177, 178, 179, 180, 181, 182, 183, 184, 185, 186, 187, 188, 189, 190, 191, 192, 193, 194, 195, 196, 197, 198, 199, 200, 201, 202, 203, 204, 205, 206, 207, 208, 209, 210, 211, 212, 213, 214, 215, 216, 217, 218, 219, 220, 221, 222, 223, 224, 225, 226, 227, 228, 229, 230, 231, 232, 233, 234, 235, 236, 237, 238, 239, 240, 241, 242, 243, 244, 245, 246, 247, 248, 249, 250, 251, 252, 253, 254, 255, 256, 257, 258, 259, 260, 261, 262, 263, 264, 265, 266, 267, 268, 269, 270, 271, 272, 273, 274, 275, 276, 277, 278, 279, 280, 281, 282, 283, 284, 285, 286, 287, 288, 289, 290, 291, 292, 293, 294, 295, 296, 297, 298, 299, 300, 301, 302, 303, 304, 305, 306, 307, 308, 309, 310, 311, 312, 313, 314, 315, 316, 317, 318, 319, 320, 321, 322, 323, 324, 325, 326, 327, 328, 329, 330, 331, 332, 333, 334, 335, 336, 337, 338, 339, 340, 341, 342, 343, 344, 345, 346, 347, 348, 349, 350, 351, 352, 353, 354, 355, 356, 357, 358, 359, 360, 361, 362, 363, 364, 365, 366, 367, 368, 369, 370, 371, 372, 373, 374, 375, 376, 377, 378, 379, 380, 381, 382, 383, 384, 385, 386, 387, 388, 389, 390, 391, 392, 393, 394, 395, 396, 397, 398, 399, 400, 401, 402, 403, 404, 405, 406, 407, 408, 409, 410, 411, 412, 413, 414, 415, 416, 417, 418, 419, 420, 421, 422, 423, 424, 425, 426, 427, 428, 429, 430, 431, 432, 433, 434, 435, 436, 437, 438, 439, 440, 441, 442, 443, 444],
      "AcquisitionTime": ["192107.970000", "192109.460000", "192110.950000", "192112.440000", "192113.930000", "192115.420000", "192116.910000", "192118.400000", "192119.890000", "192121.380000", "192122.870000", "192124.360000", "192125.850000", "192127.340000", "192128.830000", "192130.320000", "192131.810000", "192133.300000", "192134.790000", "192136.280000", "192137.770000", "192139.260000", "192140.750000", "192142.240000", "192143.730000", "192145.220000", "192146.710000", "192148.200000", "192149.690000", "192151.180000", "192152.670000", "192154.160000", "192155.650000", "192157.140000", "192158.630000", "192200.120000", "192201.610000", "192203.100000", "192204.590000", "192206.080000", "192207.570000", "192209.060000", "192210.550000", "192212.040000", "192213.530000", "192215.020000", "192216.510000", "192218.000000", "192219.490000", "192220.980000", "192222.470000", "192223.960000", "192225.450000", "192226.940000", "192228.430000", "192229.920000", "192231.410000", "192232.900000", "192234.390000", "192235.880000", "192237.370000", "192238.860000", "192240.350000", "192241.840000", "192243.330000", "192244.820000", "192246.310000", "192247.800000", "192249.290000", "192250.780000", "192252.270000", "192253.760000", "192255.250000", "192256.740000", "192258.230000", "192259.720000", "192301.210000", "192302.700000", "192304.190000", "192305.680000", "192307.170000", "192308.660000", "192310.150000", "192311.640000", "192313.130000", "192314.620000", "192316.110000", "192317.600000", "192319.090000", "192320.580000", "192322.070000", "192323.560000", "192325.050000", "192326.540000", "192328.030000", "192329.520000", "192331.010000", "192332.500000", "192333.990000", "192335.480000", "192336.970000", "192338.460000", "192339.950000", "192341.440000", "192342.930000", "192344.420000", "192345.910000", "192347.400000", "192348.890000", "192350.380000", "192351.870000", "192353.360000", "192354.850000", "192356.340000", "192357.830000", "192359.320000", "192400.810000", "192402.300000", "192403.790000", "192405.280000", "192406.770000", "192408.260000", "192409.750000", "192411.240000", "192412.730000", "192414.220000", "192415.710000", "192417.200000", "192418.690000", "192420.180000", "192421.670000", "192423.160000", "192424.650000", "192426.140000", "192427.630000", "192429.120000", "192430.610000", "192432.100000", "192433.590000", "192435.080000", "192436.570000", "192438.060000", "192439.550000", "192441.040000", "192442.530000", "192444.020000", "192445.510000", "192447.000000", "192448.490000", "192449.980000", "192451.470000", "192452.960000", "192454.450000", "192455.940000", "192457.430000", "192458.920000", "192500.410000", "192501.900000", "192503.390000", "192504.880000", "192506.370000", "192507.860000", "192509.350000", "192510.840000", "192512.330000", "192513.820000", "192515.310000", "192516.800000", "192518.290000", "192519.780000", "192521.270000", "192522.760000", "192524.250000", "192525.740000", "192527.230000", "192528.720000", "192530.210000", "192531.700000", "192533.190000", "192534.680000", "192536.170000", "192537.660000", "192539.150000", "192540.640000", "192542.130000", "192543.620000", "192545.110000", "192546.600000", "192548.090000", "192549.580000", "192551.070000", "192552.560000", "192554.050000", "192555.540000", "192557.030000", "192558.520000", "192600.010000", "192601.500000", "192602.990000", "192604.480000", "192605.970000", "192607.460000", "192608.950000", "192610.440000", "192611.930000", "192613.420000", "192614.910000", "192616.400000", "192617.890000", "192619.380000", "192620.870000", "192622.360000", "192623.850000", "192625.340000", "192626.830000", "192628.320000", "192629.810000", "192631.300000", "192632.790000", "192634.280000", "192635.770000", "192637.260000", "192638.750000", "192640.240000", "192641.730000", "192643.220000", "192644.710000", "192646.200000", "192647.690000", "192649.180000", "192650.670000", "192652.160000", "192653.650000", "192655.140000", "192656.630000", "192658.120000", "192659.610000", "192701.100000", "192702.590000", "192704.080000", "192705.570000", "192707.060000", "192708.550000", "192710.040000", "192711.530000", "192713.020000", "192714.510000", "192716.000000", "192717.490000", "192718.980000", "192720.470000", "192721.960000", "192723.450000", "192724.940000", "192726.430000", "192727.920000", "192729.410000", "192730.900000", "192732.390000", "192733.880000", "192735.370000", "192736.860000", "192738.350000", "192739.840000", "192741.330000", "192742.820000", "192744.310000", "192745.800000", "192747.290000", "192748.780000", "192750.270000", "192751.760000", "192753.250000", "192754.740000", "192756.230000", "192757.720000", "192759.210000", "192800.700000", "192802.190000", "192803.680000", "192805.170000", "192806.660000", "192808.150000", "192809.640000", "192811.130000", "192812.620000", "192814.110000", "192815.600000", "192817.090000", "192818.580000", "192820.070000", "192821.560000", "192823.050000", "192824.540000", "192826.030000", "192827.520000", "192829.010000", "192830.500000", "192831.990000", "192833.480000", "192834.970000", "192836.460000", "192837.950000", "192839.440000", "192840.930000", "192842.420000", "192843.910000", "192845.400000", "192846.890000", "192848.380000", "192849.870000", "192851.360000", "192852.850000", "192854.340000", "192855.830000", "192857.320000", "192858.810000", "192900.300000", "192901.790000", "192903.280000", "192904.770000", "192906.260000", "192907.750000", "192909.240000", "192910.730000", "192912.220000", "192913.710000", "192915.200000", "192916.690000", "192918.180000", "192919.670000", "192921.160000", "192922.650000", "192924.140000", "192925.630000", "192927.120000", "192928.610000", "192930.100000", "192931.590000", "192933.080000", "192934.570000", "192936.060000", "192937.550000", "192939.040000", "192940.530000", "192942.020000", "192943.510000", "192945.000000", "192946.490000", "192947.980000", "192949.470000", "192950.960000", "192952.450000", "192953.940000", "192955.430000", "192956.920000", "192958.410000", "192959.900000", "193001.390000", "193002.880000", "193004.370000", "193005.860000", "193007.350000", "193008.840000", "193010.330000", "193011.820000", "193013.310000", "193014.800000", "193016.290000", "193017.780000", "193019.270000", "193020.760000", "193022.250000", "193023.740000", "193025.230000", "193026.720000", "193028.210000", "193029.700000", "193031.190000", "193032.680000", "193034.170000", "193035.660000", "193037.150000", "193038.640000", "193040.130000", "193041.620000", "193043.110000", "193044.600000", "193046.090000", "193047.580000", "193049.070000", "193050.560000", "193052.050000", "193053.540000", "193055.030000", "193056.520000", "193058.010000", "193059.500000", "193100.990000", "193102.480000", "193103.970000", "193105.460000", "193106.950000", "193108.440000", "193109.930000", "193111.420000", "193112.910000", "193114.400000", "193115.890000", "193117.380000", "193118.870000", "193120.360000", "193121.850000", "193123.340000", "193124.830000", "193126.320000", "193127.810000", "193129.300000", "193130.790000", "193132.280000", "193133.770000", "193135.260000", "193136.750000", "193138.240000", "193139.730000", "193141.220000", "193142.710000", "193144.200000", "193145.690000", "193147.180000", "193148.670000", "193150.160000", "193151.650000", "193153.140000", "193154.630000", "193156.120000", "193157.610000", "193159.100000", "193200.590000", "193202.080000", "193203.570000", "193205.060000", "193206.550000", "193208.040000"],
      "ContentTime": ["192233.460000", "192233.464000", "192233.467000", "192233.471000", "192233.474000", "192233.477000", "192233.481000", "192233.484000", "192233.488000", "192233.491000", "192233.494000", "192233.497000", "192233.501000", "192233.504000", "192233.508000", "192233.511000", "192233.514000", "192233.517000", "192233.536000", "192233.539000", "192233.543000", "192233.554000", "192233.557000", "192233.561000", "192233.564000", "192233.567000", "192233.570000", "192233.574000", "192233.577000", "192233.580000", "192233.584000", "192233.587000", "192233.590000", "192233.594000", "192233.597000", "192233.600000", "192233.604000", "192253.424000", "192253.428000", "192253.431000", "192253.435000", "192253.438000", "192253.441000", "192253.445000", "192253.448000", "192253.451000", "192253.455000", "192253.458000", "192253.461000", "192253.465000", "192253.468000", "192253.471000", "192253.475000", "192253.478000", "192253.481000", "192253.485000", "192253.488000", "192253.491000", "192313.424000", "192313.428000", "192313.431000", "192313.435000", "192313.438000", "192313.441000", "192313.445000", "192313.448000", "192313.451000", "192313.455000", "192313.458000", "192313.461000", "192313.464000", "192313.468000", "192313.471000", "192313.474000", "192313.478000", "192313.481000", "192313.485000", "192313.488000", "192353.425000", "192353.429000", "192353.432000", "192353.435000", "192353.439000", "192353.442000", "192353.456000", "192353.460000", "192353.463000", "192353.466000", "192353.470000", "192353.473000", "192353.476000", "192353.480000", "192353.483000", "192353.486000", "192353.490000", "192353.493000", "192353.497000", "192353.500000", "192353.503000", "192353.507000", "192353.510000", "192353.513000", "192353.516000", "192353.520000", "192353.523000", "192353.526000", "192353.530000", "192353.533000", "192353.536000", "192353.540000", "192433.425000", "192433.429000", "192433.432000", "192433.435000", "192433.445000", "192433.448000", "192433.452000", "192433.455000", "192433.458000", "192433.462000", "192433.465000", "192433.468000", "192433.472000", "192433.475000", "192433.478000", "192433.482000", "192433.485000", "192433.488000", "192433.492000", "192433.495000", "192433.499000", "192433.502000", "192433.505000", "192433.509000", "192433.512000", "192433.515000", "192433.519000", "192513.424000", "192513.428000", "192513.431000", "192513.435000", "192513.438000", "192513.441000", "192513.445000", "192513.448000", "192513.451000", "192513.455000", "192513.458000", "192513.461000", "192513.465000", "192513.468000", "192513.471000", "192513.475000", "192513.478000", "192513.481000", "192513.485000", "192513.488000", "192513.491000", "192513.495000", "192513.498000", "192513.501000", "192513.505000", "192513.508000", "192513.511000", "192553.424000", "192553.428000", "192553.431000", "192553.434000", "192553.438000", "192553.441000", "192553.445000", "192553.448000", "192553.452000", "192553.455000", "192553.458000", "192553.461000", "192553.465000", "192553.468000", "192553.471000", "192553.475000", "192553.478000", "192553.481000", "192553.485000", "192553.488000", "192553.491000", "192553.495000", "192553.498000", "192553.501000", "192553.505000", "192553.508000", "192553.511000", "192633.425000", "192633.429000", "192633.432000", "192633.435000", "192633.439000", "192633.442000", "192633.445000", "192633.449000", "192633.452000", "192633.455000", "192633.459000", "192633.462000", "192633.466000", "192633.469000", "192633.472000", "192633.476000", "192633.479000", "192633.482000", "192633.486000", "192633.489000", "192633.492000", "192633.496000", "192633.499000", "192633.502000", "192633.506000", "192633.509000", "192633.512000", "192713.425000", "192713.429000", "192713.432000", "192713.436000", "192713.439000", "192713.442000", "192713.446000", "192713.449000", "192713.452000", "192713.456000", "192713.459000", "192713.462000", "192713.466000", "192713.469000", "192713.473000", "192713.477000", "192713.480000", "192713.483000", "192713.487000", "192713.490000", "192713.493000", "192713.497000", "192713.500000", "192713.503000", "192713.507000", "192713.510000", "192753.424000", "192753.428000", "192753.431000", "192753.435000", "192753.438000", "192753.441000", "192753.445000", "192753.448000", "192753.451000", "192753.455000", "192753.458000", "192753.462000", "192753.465000", "192753.468000", "192753.472000", "192753.475000", "192753.478000", "192753.482000", "192753.485000", "192753.488000", "192753.492000", "192753.495000", "192753.498000", "192753.502000", "192753.505000", "192753.508000", "192753.512000", "192813.424000", "192813.428000", "192813.431000", "192813.435000", "192813.438000", "192813.442000", "192813.445000", "192813.448000", "192813.452000", "192813.473000", "192813.477000", "192813.480000", "192813.483000", "192813.487000", "192853.426000", "192853.429000", "192853.433000", "192853.436000", "192853.439000", "192853.443000", "192853.446000", "192853.450000", "192853.453000", "192853.456000", "192853.460000", "192853.463000", "192853.466000", "192853.470000", "192853.473000", "192853.476000", "192853.480000", "192853.483000", "192853.486000", "192853.490000", "192853.493000", "192853.496000", "192853.500000", "192853.503000", "192853.506000", "192853.510000", "192933.425000", "192933.429000", "192933.432000", "192933.436000", "192933.439000", "192933.442000", "192933.446000", "192933.449000", "192933.452000", "192933.456000", "192933.459000", "192933.462000", "192933.466000", "192933.469000", "192933.472000", "192933.476000", "192933.479000", "192933.482000", "192933.486000", "192933.489000", "192933.492000", "192933.496000", "192933.499000", "192933.503000", "192933.506000", "192933.509000", "192933.513000", "193013.424000", "193013.428000", "193013.431000", "193013.435000", "193013.438000", "193013.441000", "193013.445000", "193013.448000", "193013.451000", "193013.455000", "193013.458000", "193013.461000", "193013.465000", "193013.468000", "193013.471000", "193013.475000", "193013.478000", "193013.481000", "193013.485000", "193013.490000", "193013.493000", "193013.496000", "193013.500000", "193013.503000", "193013.506000", "193013.510000", "193013.513000", "193053.425000", "193053.429000", "193053.432000", "193053.435000", "193053.439000", "193053.442000", "193053.446000", "193053.449000", "193053.452000", "193053.456000", "193053.459000", "193053.462000", "193053.466000", "193053.469000", "193053.472000", "193053.476000", "193053.479000", "193053.482000", "193053.486000", "193053.489000", "193053.492000", "193053.496000", "193053.499000", "193053.502000", "193053.506000", "193053.509000", "193053.512000", "193133.425000", "193133.429000", "193133.432000", "193133.436000", "193133.439000", "193133.442000", "193133.446000", "193133.449000", "193133.452000", "193133.456000", "193133.459000", "193133.462000", "193133.466000", "193133.469000", "193133.472000", "193133.476000", "193133.479000", "193133.482000", "193133.486000", "193133.489000", "193133.492000", "193133.496000", "193133.499000", "193133.502000", "193133.506000", "193133.509000", "193133.512000", "193210.543000", "193210.547000", "193210.550000", "193210.554000", "193210.557000", "193210.560000", "193210.563000", "193210.567000", "193210.570000", "193210.573000", "193210.577000", "193210.580000", "193210.584000", "193210.587000", "193210.590000", "193210.594000", "193210.597000", "193210.600000", "193210.604000", "193210.607000", "193210.610000", "193210.614000", "193210.617000", "193210.620000", "193210.624000"],
