{
  "AcquisitionMatrixPE": 104,
  "AcquisitionNumber": 1,
  "AcquisitionTime": "18:39:26.645000",
  "BandwidthPerPixelPhaseEncode": 17.17,
  "BaseResolution": 104,
  "BodyPartExamined": "BRAIN",
  "CoilCombinationMethod": "Sum of Squares",
  "ConsistencyInfo": "N4_VE11C_LATEST_20160120",
  "ConversionSoftware": "dcm2niix",
  "ConversionSoftwareVersion": "v1.0.20220505",
  "DerivedVendorReportedEchoSpacing": 0.000560011,
  "DeviceSerialNumber": "167006",
  "DwellTime": 2.1e-06,
  "EchoTime": 0.037,
  "EchoTrainLength": 104,
  "EffectiveEchoSpacing": 0.000560011,
  "FlipAngle": 52,
  "HeudiconvVersion": "0.5.3.post811+g6206e14",
  "ImageComments": "Unaliased MB4/PE3/LB",
  "ImageOrientationPatientDICOM": [0.999762, -0.0217896, -0.00067374, 0.0200692, 0.932015, -0.361864],
  "ImageOrientationText": "Tra>Cor(-21.2)>Sag(-0.5)",
  "ImageType": [
    "ORIGINAL",
    "PRIMARY",
    "M",
    "MB",
    "ND",
    "MOSAIC"
],
  "ImagingFrequency": 123.26,
  "InPlanePhaseEncodingDirectionDICOM": "COL",
  "InstitutionAddress": "Chemin Queen-Mary 4565,Montreal,District,CA,H3W 1W5",
  "InstitutionName": "IUGM",
  "InstitutionalDepartmentName": "Department",
  "MRAcquisitionType": "2D",
  "MagneticFieldStrength": 3,
  "Manufacturer": "Siemens",
  "ManufacturersModelName": "Prisma_fit",
  "MatrixCoilMode": "SENSE",
  "Modality": "MR",
  "MultibandAccelerationFactor": 4,
  "PartialFourier": 1,
  "PatientPosition": "HFS",
  "PercentPhaseFOV": 100,
  "PercentSampling": 100,
  "PhaseEncodingDirection": "j",
  "PhaseEncodingSteps": 104,
  "PhaseResolution": 1,
  "PixelBandwidth": 2290,
  "ProcedureStepDescription": "games^mariostars",
  "ProtocolName": "func_task-mariostars_run-01",
  "PulseSequenceDetails": "%CustomerSeq%\\cmrr_mbep2d_bold",
  "ReceiveCoilActiveElements": "HC1-7;NC1,2",
  "ReceiveCoilName": "HeadNeck_64",
  "ReconMatrixPE": 104,
  "RepetitionTime": 1.49,
  "SAR": 0.0734961,
  "ScanOptions": "FS",
  "ScanningSequence": "EP",
  "SequenceName": "epfid2d1_104",
  "SequenceVariant": "SK\\SS",
  "SeriesDescription": "func_task-mariostars_run-01",
  "SeriesNumber": 11,
  "ShimSetting": [590, -7264, -8832, 382, 0, -328, 13, 50],
  "SliceThickness": 2,
  "SliceTiming": [0, 0.7825, 0.0975, 0.8825, 0.195, 0.98, 0.2925, 1.0775, 0.3925, 1.175, 0.49, 1.2725, 0.5875, 1.3725, 0.685, 0, 0.7825, 0.0975, 0.8825, 0.195, 0.98, 0.2925, 1.0775, 0.3925, 1.175, 0.49, 1.2725, 0.5875, 1.3725, 0.685, 0, 0.7825, 0.0975, 0.8825, 0.195, 0.98, 0.2925, 1.0775, 0.3925, 1.175, 0.49, 1.2725, 0.5875, 1.3725, 0.685, 0, 0.7825, 0.0975, 0.8825, 0.195, 0.98, 0.2925, 1.0775, 0.3925, 1.175, 0.49, 1.2725, 0.5875, 1.3725, 0.685],
  "SoftwareVersions": "syngo MR E11",
  "SpacingBetweenSlices": 2,
  "StationName": "MRC35049",
  "TaskName": "mariostars",
  "TotalReadoutTime": 0.0576811,
  "TxRefAmp": 289.344,
  "WipMemBlock": "0862f234-d34e-4d72-9cea-d68a3ef215f7||Sequence: R017 ve11c/master r/75a17815+; Jun 28 2022 16:32:11 by eja",
  "dcmmeta_affine": [
    [-1.999524712562561, 0.04013841226696968, -0.017025642096996307, 102.65934753417969],
    [0.04357922822237015, 1.8640294075012207, -0.7235297560691833, -64.2630844116211],
    [-0.0013474804582074285, 0.7237287759780884, 1.864461064338684, -57.84170150756836],
    [0.0, 0.0, 0.0, 1.0]
],
  "dcmmeta_reorient_transform": [
    [0.0, -1.0, 0.0, 103.0],
    [1.0, 0.0, 0.0, 0.0],
    [0.0, 0.0, 1.0, 0.0],
    [0.0, 0.0, 0.0, 1.0]
],
  "dcmmeta_shape": [104, 104, 60, 491],
  "dcmmeta_slice_dim": 2,
  "dcmmeta_version": 0.6,
  "global": {
    "const": {
      "AcquisitionMatrix": [104, 0, 0, 104],
      "AngioFlag": "N",
      "BitsAllocated": 16,
      "BitsStored": 16,
      "BodyPartExamined": "BRAIN",
      "Columns": 832,
      "EchoNumbers": 1,
      "EchoTime": 37.0,
      "EchoTrainLength": 104,
      "FlipAngle": 52.0,
      "HighBit": 15,
      "ImageOrientationPatient": [0.99976235117207, -0.0217896134196, -0.0006737402422, 0.02006920663052, 0.93201469083538, -0.3618643986527],
      "ImagePositionPatient": [-849.23097447278, -790.37579544633, 280.630131295],
      "ImageType": [
        "ORIGINAL",
        "PRIMARY",
        "M",
        "MB",
        "ND",
        "MOSAIC"
],
      "ImagedNucleus": "1H",
      "ImagingFrequency": 123.26019,
      "InPlanePhaseEncodingDirection": "COL",
      "MRAcquisitionType": "2D",
      "MagneticFieldStrength": 3.0,
      "Manufacturer": "SIEMENS",
      "ManufacturerModelName": "Prisma_fit",
      "Modality": "MR",
      "NumberOfAverages": 1.0,
      "NumberOfPhaseEncodingSteps": 104,
      "PercentPhaseFieldOfView": 100.0,
      "PercentSampling": 100.0,
      "PerformedProcedureStepStartTime": "183309.918000",
      "PhotometricInterpretation": "MONOCHROME2",
      "PixelBandwidth": 2290.0,
      "PixelRepresentation": 0,
      "PixelSpacing": [2.0, 2.0],
      "ProtocolName": "func_task-mariostars_run-01",
      "RepetitionTime": 1490.0,
      "Rows": 832,
      "SAR": 0.07349605225176,
      "SamplesPerPixel": 1,
      "ScanOptions": "FS",
      "ScanningSequence": "EP",
      "SequenceName": "epfid2d1_104",
      "SequenceVariant": [
        "SK",
        "SS"
],
      "SeriesDescription": "func_task-mariostars_run-01",
      "SeriesNumber": 11,
      "SeriesTime": "184033.469000",
      "SliceLocation": -31.547589354047,
      "SliceThickness": 2.0,
      "SmallestImagePixelValue": 0,
      "SoftwareVersions": "syngo MR E11",
      "SpacingBetweenSlices": 2.0000000526323,
      "SpecificCharacterSet": "ISO_IR 100",
      "StudyID": "1",
      "StudyTime": "183309.840000",
      "TransmitCoilName": "Body",
      "VariableFlipAngleFlag": "N",
      "WindowCenterWidthExplanation": "Algo1",
      "dBdt": 0.0},
    "slices": {}
  },
  "time": {
    "samples": {
      "AcquisitionNumber": [1, 2, 3, 4, 5, 6, 7, 8, 9, 10, 11, 12, 13, 14, 15, 16, 17, 18, 19, 20, 21, 22, 23, 24, 25, 26, 27, 28, 29, 30, 31, 32, 33, 34, 35, 36, 37, 38, 39, 40, 41, 42, 43, 44, 45, 46, 47, 48, 49, 50, 51, 52, 53, 54, 55, 56, 57, 58, 59, 60, 61, 62, 63, 64, 65, 66, 67, 68, 69, 70, 71, 72, 73, 74, 75, 76, 77, 78, 79, 80, 81, 82, 83, 84, 85, 86, 87, 88, 89, 90, 91, 92, 93, 94, 95, 96, 97, 98, 99, 100, 101, 102, 103, 104, 105, 106, 107, 108, 109, 110, 111, 112, 113, 114, 115, 116, 117, 118, 119, 120, 121, 122, 123, 124, 125, 126, 127, 128, 129, 130, 131, 132, 133, 134, 135, 136, 137, 138, 139, 140, 141, 142, 143, 144, 145, 146, 147, 148, 149, 150, 151, 152, 153, 154, 155, 156, 157, 158, 159, 160, 161, 162, 163, 164, 165, 166, 167, 168, 169, 170, 171, 172, 173, 174, 175, 176, 177, 178, 179, 180, 181, 182, 183, 184, 185, 186, 187, 188, 189, 190, 191, 192, 193, 194, 195, 196, 197, 198, 199, 200, 201, 202, 203, 204, 205, 206, 207, 208, 209, 210, 211, 212, 213, 214, 215, 216, 217, 218, 219, 220, 221, 222, 223, 224, 225, 226, 227, 228, 229, 230, 231, 232, 233, 234, 235, 236, 237, 238, 239, 240, 241, 242, 243, 244, 245, 246, 247, 248, 249, 250, 251, 252, 253, 254, 255, 256, 257, 258, 259, 260, 261, 262, 263, 264, 265, 266, 267, 268, 269, 270, 271, 272, 273, 274, 275, 276, 277, 278, 279, 280, 281, 282, 283, 284, 285, 286, 287, 288, 289, 290, 291, 292, 293, 294, 295, 296, 297, 298, 299, 300, 301, 302, 303, 304, 305, 306, 307, 308, 309, 310, 311, 312, 313, 314, 315, 316, 317, 318, 319, 320, 321, 322, 323, 324, 325, 326, 327, 328, 329, 330, 331, 332, 333, 334, 335, 336, 337, 338, 339, 340, 341, 342, 343, 344, 345, 346, 347, 348, 349, 350, 351, 352, 353, 354, 355, 356, 357, 358, 359, 360, 361, 362, 363, 364, 365, 366, 367, 368, 369, 370, 371, 372, 373, 374, 375, 376, 377, 378, 379, 380, 381, 382, 383, 384, 385, 386, 387, 388, 389, 390, 391, 392, 393, 394, 395, 396, 397, 398, 399, 400, 401, 402, 403, 404, 405, 406, 407, 408, 409, 410, 411, 412, 413, 414, 415, 416, 417, 418, 419, 420, 421, 422, 423, 424, 425, 426, 427, 428, 429, 430, 431, 432, 433, 434, 435, 436, 437, 438, 439, 440, 441, 442, 443, 444, 445, 446, 447, 448, 449, 450, 451, 452, 453, 454, 455, 456, 457, 458, 459, 460, 461, 462, 463, 464, 465, 466, 467, 468, 469, 470, 471, 472, 473, 474, 475, 476, 477, 478, 479, 480, 481, 482, 483, 484, 485, 486, 487, 488, 489, 490, 491],
      "AcquisitionTime": ["183926.645000", "183928.135000", "183929.625000", "183931.115000", "183932.605000", "183934.095000", "183935.585000", "183937.075000", "183938.565000", "183940.055000", "183941.545000", "183943.035000", "183944.525000", "183946.015000", "183947.505000", "183948.995000", "183950.485000", "183951.975000", "183953.465000", "183954.955000", "183956.445000", "183957.935000", "183959.425000", "184000.915000", "184002.405000", "184003.895000", "184005.385000", "184006.875000", "184008.365000", "184009.855000", "184011.345000", "184012.835000", "184014.325000", "184015.815000", "184017.305000", "184018.795000", "184020.285000", "184021.775000", "184023.265000", "184024.755000", "184026.245000", "184027.735000", "184029.225000", "184030.715000", "184032.205000", "184033.695000", "184035.185000", "184036.675000", "184038.165000", "184039.655000", "184041.145000", "184042.635000", "184044.125000", "184045.615000", "184047.105000", "184048.595000", "184050.085000", "184051.575000", "184053.065000", "184054.555000", "184056.045000", "184057.535000", "184059.025000", "184100.515000", "184102.005000", "184103.495000", "184104.985000", "184106.475000", "184107.965000", "184109.455000", "184110.945000", "184112.435000", "184113.925000", "184115.415000", "184116.905000", "184118.395000", "184119.885000", "184121.375000", "184122.865000", "184124.355000", "184125.845000", "184127.335000", "184128.825000", "184130.315000", "184131.805000", "184133.295000", "184134.785000", "184136.275000", "184137.765000", "184139.255000", "184140.745000", "184142.235000", "184143.725000", "184145.215000", "184146.705000", "184148.195000", "184149.685000", "184151.175000", "184152.665000", "184154.155000", "184155.645000", "184157.135000", "184158.625000", "184200.115000", "184201.605000", "184203.095000", "184204.585000", "184206.075000", "184207.565000", "184209.055000", "184210.545000", "184212.035000", "184213.525000", "184215.015000", "184216.505000", "184217.995000", "184219.485000", "184220.975000", "184222.465000", "184223.955000", "184225.445000", "184226.935000", "184228.425000", "184229.915000", "184231.405000", "184232.895000", "184234.385000", "184235.875000", "184237.365000", "184238.855000", "184240.345000", "184241.835000", "184243.325000", "184244.815000", "184246.305000", "184247.795000", "184249.285000", "184250.775000", "184252.265000", "184253.755000", "184255.245000", "184256.735000", "184258.225000", "184259.715000", "184301.205000", "184302.695000", "184304.185000", "184305.675000", "184307.165000", "184308.655000", "184310.145000", "184311.635000", "184313.125000", "184314.615000", "184316.105000", "184317.595000", "184319.085000", "184320.575000", "184322.065000", "184323.555000", "184325.045000", "184326.535000", "184328.025000", "184329.515000", "184331.005000", "184332.495000", "184333.985000", "184335.475000", "184336.965000", "184338.455000", "184339.945000", "184341.435000", "184342.925000", "184344.415000", "184345.905000", "184347.395000", "184348.885000", "184350.375000", "184351.865000", "184353.355000", "184354.845000", "184356.335000", "184357.825000", "184359.315000", "184400.805000", "184402.295000", "184403.785000", "184405.275000", "184406.765000", "184408.255000", "184409.745000", "184411.235000", "184412.725000", "184414.215000", "184415.705000", "184417.195000", "184418.685000", "184420.175000", "184421.665000", "184423.155000", "184424.645000", "184426.135000", "184427.625000", "184429.115000", "184430.605000", "184432.095000", "184433.585000", "184435.075000", "184436.565000", "184438.055000", "184439.545000", "184441.035000", "184442.525000", "184444.015000", "184445.505000", "184446.995000", "184448.485000", "184449.975000", "184451.465000", "184452.955000", "184454.445000", "184455.935000", "184457.425000", "184458.915000", "184500.405000", "184501.895000", "184503.385000", "184504.875000", "184506.365000", "184507.855000", "184509.345000", "184510.835000", "184512.325000", "184513.815000", "184515.305000", "184516.795000", "184518.285000", "184519.775000", "184521.265000", "184522.755000", "184524.245000", "184525.735000", "184527.225000", "184528.715000", "184530.205000", "184531.695000", "184533.185000", "184534.675000", "184536.165000", "184537.655000", "184539.145000", "184540.635000", "184542.125000", "184543.615000", "184545.105000", "184546.595000", "184548.085000", "184549.575000", "184551.065000", "184552.555000", "184554.045000", "184555.535000", "184557.025000", "184558.515000", "184600.005000", "184601.495000", "184602.985000", "184604.475000", "184605.965000", "184607.455000", "184608.945000", "184610.435000", "184611.925000", "184613.415000", "184614.905000", "184616.395000", "184617.885000", "184619.375000", "184620.865000", "184622.355000", "184623.845000", "184625.335000", "184626.825000", "184628.315000", "184629.805000", "184631.295000", "184632.785000", "184634.275000", "184635.765000", "184637.255000", "184638.745000", "184640.235000", "184641.725000", "184643.215000", "184644.705000", "184646.195000", "184647.685000", "184649.175000", "184650.665000", "184652.155000", "184653.645000", "184655.135000", "184656.625000", "184658.115000", "184659.605000", "184701.095000", "184702.585000", "184704.075000", "184705.565000", "184707.055000", "184708.545000", "184710.035000", "184711.525000", "184713.015000", "184714.505000", "184715.995000", "184717.485000", "184718.975000", "184720.465000", "184721.955000", "184723.445000", "184724.935000", "184726.425000", "184727.915000", "184729.405000", "184730.895000", "184732.385000", "184733.875000", "184735.365000", "184736.855000", "184738.345000", "184739.835000", "184741.325000", "184742.815000", "184744.305000", "184745.795000", "184747.285000", "184748.775000", "184750.265000", "184751.755000", "184753.245000", "184754.735000", "184756.225000", "184757.715000", "184759.205000", "184800.695000", "184802.185000", "184803.675000", "184805.165000", "184806.655000", "184808.145000", "184809.635000", "184811.125000", "184812.615000", "184814.105000", "184815.595000", "184817.085000", "184818.575000", "184820.065000", "184821.555000", "184823.045000", "184824.535000", "184826.025000", "184827.515000", "184829.005000", "184830.495000", "184831.985000", "184833.475000", "184834.965000", "184836.455000", "184837.945000", "184839.435000", "184840.925000", "184842.415000", "184843.905000", "184845.395000", "184846.885000", "184848.375000", "184849.865000", "184851.355000", "184852.845000", "184854.335000", "184855.825000", "184857.315000", "184858.805000", "184900.295000", "184901.785000", "184903.275000", "184904.765000", "184906.255000", "184907.745000", "184909.235000", "184910.725000", "184912.215000", "184913.705000", "184915.195000", "184916.685000", "184918.175000", "184919.665000", "184921.155000", "184922.645000", "184924.135000", "184925.625000", "184927.115000", "184928.605000", "184930.095000", "184931.585000", "184933.075000", "184934.565000", "184936.055000", "184937.545000", "184939.035000", "184940.525000", "184942.015000", "184943.505000", "184944.995000", "184946.485000", "184947.975000", "184949.465000", "184950.955000", "184952.445000", "184953.935000", "184955.425000", "184956.915000", "184958.405000", "184959.895000", "185001.385000", "185002.875000", "185004.365000", "185005.855000", "185007.345000", "185008.835000", "185010.325000", "185011.815000", "185013.305000", "185014.795000", "185016.285000", "185017.775000", "185019.265000", "185020.755000", "185022.245000", "185023.735000", "185025.225000", "185026.715000", "185028.205000", "185029.695000", "185031.185000", "185032.675000", "185034.165000", "185035.655000", "185037.145000", "185038.635000", "185040.125000", "185041.615000", "185043.105000", "185044.595000", "185046.085000", "185047.575000", "185049.065000", "185050.555000", "185052.045000", "185053.535000", "185055.025000", "185056.515000", "185058.005000", "185059.495000", "185100.985000", "185102.475000", "185103.965000", "185105.455000", "185106.945000", "185108.435000", "185109.925000", "185111.415000", "185112.905000", "185114.395000", "185115.885000", "185117.375000", "185118.865000", "185120.355000", "185121.845000", "185123.335000", "185124.825000", "185126.315000", "185127.805000", "185129.295000", "185130.785000", "185132.275000", "185133.765000", "185135.255000", "185136.745000"],
      "ContentTime": ["184033.472000", "184033.476000", "184033.479000", "184033.483000", "184033.486000", "184033.489000", "184033.493000", "184033.496000", "184033.499000", "184033.503000", "184033.506000", "184033.509000", "184033.512000", "184033.525000", "184033.528000", "184033.532000", "184033.535000", "184033.538000", "184053.425000", "184053.429000", "184053.432000", "184053.435000", "184053.439000", "184053.442000", "184053.445000", "184053.449000", "184053.452000", "184053.455000", "184053.459000", "184053.462000", "184053.465000", "184053.468000", "184053.472000", "184053.475000", "184053.488000", "184053.491000", "184053.494000", "184053.498000", "184113.424000", "184113.428000", "184113.431000", "184113.434000", "184113.437000", "184113.441000", "184113.444000", "184113.448000", "184113.451000", "184113.454000", "184113.457000", "184113.461000", "184113.464000", "184113.467000", "184113.471000", "184113.479000", "184113.483000", "184113.486000", "184113.489000", "184113.493000", "184133.424000", "184133.428000", "184133.431000", "184133.434000", "184133.438000", "184133.441000", "184133.444000", "184133.448000", "184133.451000", "184133.454000", "184133.458000", "184133.461000", "184133.464000", "184133.468000", "184133.471000", "184133.474000", "184133.478000", "184133.481000", "184133.484000", "184133.488000", "184133.491000", "184213.425000", "184213.429000", "184213.432000", "184213.435000", "184213.439000", "184213.442000", "184213.445000", "184213.449000", "184213.452000", "184213.455000", "184213.459000", "184213.462000", "184213.465000", "184213.469000", "184213.472000", "184213.475000", "184213.479000", "184213.482000", "184213.485000", "184213.489000", "184213.507000", "184213.511000", "184213.514000", "184213.517000", "184213.520000", "184213.524000", "184213.527000", "184213.530000", "184213.534000", "184213.537000", "184213.540000", "184213.544000", "184253.425000", "184253.429000", "184253.432000", "184253.435000", "184253.439000", "184253.442000", "184253.446000", "184253.449000", "184253.452000", "184253.455000", "184253.459000", "184253.462000", "184253.466000", "184253.469000", "184253.472000", "184253.476000", "184253.479000", "184253.482000", "184253.486000", "184253.489000", "184253.492000", "184253.496000", "184253.499000", "184253.502000", "184253.506000", "184253.509000", "184253.512000", "184333.424000", "184333.428000", "184333.431000", "184333.434000", "184333.438000", "184333.441000", "184333.444000", "184333.448000", "184333.451000", "184333.454000", "184333.458000", "184333.461000", "184333.465000", "184333.468000", "184333.471000", "184333.475000", "184333.478000", "184333.481000", "184333.484000", "184333.488000", "184333.491000", "184333.494000", "184333.498000", "184333.501000", "184333.515000", "184333.518000", "184333.521000", "184413.424000", "184413.428000", "184413.432000", "184413.435000", "184413.439000", "184413.442000", "184413.445000", "184413.449000", "184413.452000", "184413.455000", "184413.459000", "184413.462000", "184413.465000", "184413.469000", "184413.472000", "184413.475000", "184413.479000", "184413.482000", "184413.485000", "184413.489000", "184413.492000", "184413.496000", "184413.499000", "184413.502000", "184413.506000", "184413.509000", "184453.425000", "184453.429000", "184453.432000", "184453.455000", "184453.459000", "184453.462000", "184453.465000", "184453.468000", "184453.472000", "184453.475000", "184453.478000", "184453.482000", "184453.485000", "184453.488000", "184453.492000", "184453.495000", "184453.498000", "184453.502000", "184453.505000", "184453.508000", "184453.512000", "184453.515000", "184453.518000", "184453.522000", "184453.525000", "184453.528000", "184453.532000", "184533.425000", "184533.429000", "184533.432000", "184533.435000", "184533.439000", "184533.442000", "184533.445000", "184533.449000", "184533.452000", "184533.456000", "184533.459000", "184533.463000", "184533.466000", "184533.469000", "184533.473000", "184533.476000", "184533.479000", "184533.483000", "184533.486000", "184533.489000", "184533.493000", "184533.496000", "184533.499000", "184533.503000", "184533.506000", "184533.509000", "184533.522000", "184613.424000", "184613.428000", "184613.431000", "184613.434000", "184613.438000", "184613.441000", "184613.444000", "184613.448000", "184613.451000", "184613.454000", "184613.458000", "184613.461000", "184613.464000", "184613.468000", "184613.471000", "184613.474000", "184613.478000", "184613.481000", "184613.485000", "184613.488000", "184613.491000", "184613.494000", "184613.498000", "184613.501000", "184613.504000", "184613.508000", "184613.511000", "184653.425000", "184653.429000", "184653.432000", "184653.436000", "184653.439000", "184653.443000", "184653.446000", "184653.449000", "184653.453000", "184653.456000", "184653.459000", "184653.463000", "184653.466000", "184653.469000", "184653.473000", "184653.476000", "184653.479000", "184653.483000", "184653.486000", "184653.489000", "184653.493000", "184653.496000", "184653.519000", "184653.523000", "184653.526000", "184653.529000", "184653.533000", "184733.425000", "184733.429000", "184733.432000", "184733.436000", "184733.439000", "184733.442000", "184733.446000", "184733.449000", "184733.452000", "184733.456000", "184733.459000", "184733.462000", "184733.466000", "184733.469000", "184733.472000", "184733.476000", "184733.479000", "184733.483000", "184733.486000", "184733.498000", "184733.501000", "184733.504000", "184733.508000", "184733.511000", "184733.514000", "184733.518000", "184733.521000", "184813.424000", "184813.428000", "184813.431000", "184813.435000", "184813.439000", "184813.442000", "184813.446000", "184813.449000", "184813.453000", "184813.456000", "184813.459000", "184813.463000", "184813.466000", "184813.470000", "184813.473000", "184813.476000", "184813.480000", "184813.483000", "184813.486000", "184813.490000", "184813.493000", "184813.496000", "184813.500000", "184813.503000", "184813.506000", "184813.510000", "184853.424000", "184853.428000", "184853.431000", "184853.435000", "184853.438000", "184853.441000", "184853.445000", "184853.448000", "184853.451000", "184853.455000", "184853.458000", "184853.461000", "184853.465000", "184853.468000", "184853.472000", "184853.475000", "184853.478000", "184853.482000", "184853.485000", "184853.488000", "184853.492000", "184853.495000", "184853.498000", "184853.502000", "184853.505000", "184853.508000", "184853.513000", "184933.425000", "184933.429000", "184933.432000", "184933.436000", "184933.439000", "184933.442000", "184933.446000", "184933.449000", "184933.452000", "184933.456000", "184933.459000", "184933.462000", "184933.466000", "184933.469000", "184933.472000", "184933.476000", "184933.479000", "184933.482000", "184933.486000", "184933.489000", "184933.493000", "184933.496000", "184933.499000", "184933.503000", "184933.506000", "184933.509000", "184933.512000", "185013.425000", "185013.429000", "185013.432000", "185013.436000", "185013.439000", "185013.442000", "185013.446000", "185013.449000", "185013.452000", "185013.456000", "185013.459000", "185013.462000", "185013.466000", "185013.469000", "185013.472000", "185013.476000", "185013.479000", "185013.482000", "185013.486000", "185013.489000", "185013.493000", "185013.496000", "185013.499000", "185013.503000", "185013.506000", "185013.509000", "185013.513000", "185053.424000", "185053.428000", "185053.431000", "185053.435000", "185053.438000", "185053.441000", "185053.445000", "185053.448000", "185053.451000", "185053.455000", "185053.458000", "185053.462000", "185053.465000", "185053.468000", "185053.471000", "185053.475000", "185053.478000", "185053.482000", "185053.485000", "185053.488000", "185053.492000", "185053.495000", "185053.498000", "185053.502000", "185053.505000", "185053.508000", "185053.512000", "185133.425000", "185133.447000", "185133.451000", "185133.454000", "185133.458000", "185133.461000", "185133.464000", "185133.468000", "185133.471000", "185133.474000", "185133.478000", "185133.481000", "185133.484000", "185133.488000", "185133.491000", "185133.494000", "185133.498000", "185133.501000", "185133.505000", "185133.508000", "185133.511000", "185133.515000", "185133.518000", "185133.521000", "185133.525000", "185133.528000", "185133.531000", "185139.985000", "185139.988000", "185139.992000", "185139.995000"],
