{
  "AcquisitionMatrixPE": 104,
  "AcquisitionNumber": 1,
  "AcquisitionTime": "18:52:6.907500",
  "BandwidthPerPixelPhaseEncode": 17.17,
  "BaseResolution": 104,
  "BodyPartExamined": "BRAIN",
  "CoilCombinationMethod": "Sum of Squares",
  "ConsistencyInfo": "N4_VE11C_LATEST_20160120",
  "ConversionSoftware": "dcm2niix",
  "ConversionSoftwareVersion": "v1.0.20220505",
  "DerivedVendorReportedEchoSpacing": 0.000560011,
  "DeviceSerialNumber": "167006",
  "DwellTime": 2.1e-06,
  "EchoTime": 0.037,
  "EchoTrainLength": 104,
  "EffectiveEchoSpacing": 0.000560011,
  "FlipAngle": 52,
  "HeudiconvVersion": "0.5.3.post811+g6206e14",
  "ImageComments": "Unaliased MB4/PE3/LB",
  "ImageOrientationPatientDICOM": [0.999762, -0.0217896, -0.00067374, 0.0200692, 0.932015, -0.361864],
  "ImageOrientationText": "Tra>Cor(-21.2)>Sag(-0.5)",
  "ImageType": [
    "ORIGINAL",
    "PRIMARY",
    "M",
    "MB",
    "ND",
    "MOSAIC"
],
  "ImagingFrequency": 123.26,
  "InPlanePhaseEncodingDirectionDICOM": "COL",
  "InstitutionAddress": "Chemin Queen-Mary 4565,Montreal,District,CA,H3W 1W5",
  "InstitutionName": "IUGM",
  "InstitutionalDepartmentName": "Department",
  "MRAcquisitionType": "2D",
  "MagneticFieldStrength": 3,
  "Manufacturer": "Siemens",
  "ManufacturersModelName": "Prisma_fit",
  "MatrixCoilMode": "SENSE",
  "Modality": "MR",
  "MultibandAccelerationFactor": 4,
  "PartialFourier": 1,
  "PatientPosition": "HFS",
  "PercentPhaseFOV": 100,
  "PercentSampling": 100,
  "PhaseEncodingDirection": "j",
  "PhaseEncodingSteps": 104,
  "PhaseResolution": 1,
  "PixelBandwidth": 2290,
  "ProcedureStepDescription": "games^mariostars",
  "ProtocolName": "func_task-mariostars_run-02",
  "PulseSequenceDetails": "%CustomerSeq%\\cmrr_mbep2d_bold",
  "ReceiveCoilActiveElements": "HC1-7;NC1,2",
  "ReceiveCoilName": "HeadNeck_64",
  "ReconMatrixPE": 104,
  "RepetitionTime": 1.49,
  "SAR": 0.0734961,
  "ScanOptions": "FS",
  "ScanningSequence": "EP",
  "SequenceName": "epfid2d1_104",
  "SequenceVariant": "SK\\SS",
  "SeriesDescription": "func_task-mariostars_run-02",
  "SeriesNumber": 14,
  "ShimSetting": [590, -7264, -8832, 382, 0, -328, 13, 50],
  "SliceThickness": 2,
  "SliceTiming": [0, 0.785, 0.1, 0.8825, 0.1975, 0.98, 0.295, 1.08, 0.3925, 1.1775, 0.49, 1.275, 0.59, 1.3725, 0.6875, 0, 0.785, 0.1, 0.8825, 0.1975, 0.98, 0.295, 1.08, 0.3925, 1.1775, 0.49, 1.275, 0.59, 1.3725, 0.6875, 0, 0.785, 0.1, 0.8825, 0.1975, 0.98, 0.295, 1.08, 0.3925, 1.1775, 0.49, 1.275, 0.59, 1.3725, 0.6875, 0, 0.785, 0.1, 0.8825, 0.1975, 0.98, 0.295, 1.08, 0.3925, 1.1775, 0.49, 1.275, 0.59, 1.3725, 0.6875],
  "SoftwareVersions": "syngo MR E11",
  "SpacingBetweenSlices": 2,
  "StationName": "MRC35049",
  "TaskName": "mariostars",
  "TotalReadoutTime": 0.0576811,
  "TxRefAmp": 289.344,
  "WipMemBlock": "b63ba6df-40c8-479a-bf1f-e424df502abf||Sequence: R017 ve11c/master r/75a17815+; Jun 28 2022 16:32:11 by eja",
  "dcmmeta_affine": [
    [-1.999524712562561, 0.04013841226696968, -0.017025642096996307, 102.65934753417969],
    [0.04357922822237015, 1.8640294075012207, -0.7235297560691833, -64.2630844116211],
    [-0.0013474804582074285, 0.7237287759780884, 1.864461064338684, -57.84170150756836],
    [0.0, 0.0, 0.0, 1.0]
],
  "dcmmeta_reorient_transform": [
    [0.0, -1.0, 0.0, 103.0],
    [1.0, 0.0, 0.0, 0.0],
    [0.0, 0.0, 1.0, 0.0],
    [0.0, 0.0, 0.0, 1.0]
],
  "dcmmeta_shape": [104, 104, 60, 436],
  "dcmmeta_slice_dim": 2,
  "dcmmeta_version": 0.6,
  "global": {
    "const": {
      "AcquisitionMatrix": [104, 0, 0, 104],
      "AngioFlag": "N",
      "BitsAllocated": 16,
      "BitsStored": 16,
      "BodyPartExamined": "BRAIN",
      "Columns": 832,
      "EchoNumbers": 1,
      "EchoTime": 37.0,
      "EchoTrainLength": 104,
      "FlipAngle": 52.0,
      "HighBit": 15,
      "ImageOrientationPatient": [0.99976235117207, -0.0217896134196, -0.0006737402422, 0.02006920663052, 0.93201469083538, -0.3618643986527],
      "ImagePositionPatient": [-849.23097447278, -790.37579544633, 280.630131295],
      "ImageType": [
        "ORIGINAL",
        "PRIMARY",
        "M",
        "MB",
        "ND",
        "MOSAIC"
],
      "ImagedNucleus": "1H",
      "ImagingFrequency": 123.260196,
      "InPlanePhaseEncodingDirection": "COL",
      "MRAcquisitionType": "2D",
      "MagneticFieldStrength": 3.0,
      "Manufacturer": "SIEMENS",
      "ManufacturerModelName": "Prisma_fit",
      "Modality": "MR",
      "NumberOfAverages": 1.0,
      "NumberOfPhaseEncodingSteps": 104,
      "PercentPhaseFieldOfView": 100.0,
      "PercentSampling": 100.0,
      "PerformedProcedureStepStartTime": "183309.918000",
      "PhotometricInterpretation": "MONOCHROME2",
      "PixelBandwidth": 2290.0,
      "PixelRepresentation": 0,
      "PixelSpacing": [2.0, 2.0],
      "ProtocolName": "func_task-mariostars_run-02",
      "RepetitionTime": 1490.0,
      "Rows": 832,
      "SAR": 0.07349605225176,
      "SamplesPerPixel": 1,
      "ScanOptions": "FS",
      "ScanningSequence": "EP",
      "SequenceName": "epfid2d1_104",
      "SequenceVariant": [
        "SK",
        "SS"
],
      "SeriesDescription": "func_task-mariostars_run-02",
      "SeriesNumber": 14,
      "SeriesTime": "185329.257000",
      "SliceLocation": -31.547589354047,
      "SliceThickness": 2.0,
      "SmallestImagePixelValue": 0,
      "SoftwareVersions": "syngo MR E11",
      "SpacingBetweenSlices": 2.0000000526323,
      "SpecificCharacterSet": "ISO_IR 100",
      "StudyID": "1",
      "StudyTime": "183309.840000",
      "TransmitCoilName": "Body",
      "VariableFlipAngleFlag": "N",
      "WindowCenterWidthExplanation": "Algo1",
      "dBdt": 0.0},
    "slices": {}
  },
  "time": {
    "samples": {
      "AcquisitionNumber": [1, 2, 3, 4, 5, 6, 7, 8, 9, 10, 11, 12, 13, 14, 15, 16, 17, 18, 19, 20, 21, 22, 23, 24, 25, 26, 27, 28, 29, 30, 31, 32, 33, 34, 35, 36, 37, 38, 39, 40, 41, 42, 43, 44, 45, 46, 47, 48, 49, 50, 51, 52, 53, 54, 55, 56, 57, 58, 59, 60, 61, 62, 63, 64, 65, 66, 67, 68, 69, 70, 71, 72, 73, 74, 75, 76, 77, 78, 79, 80, 81, 82, 83, 84, 85, 86, 87, 88, 89, 90, 91, 92, 93, 94, 95, 96, 97, 98, 99, 100, 101, 102, 103, 104, 105, 106, 107, 108, 109, 110, 111, 112, 113, 114, 115, 116, 117, 118, 119, 120, 121, 122, 123, 124, 125, 126, 127, 128, 129, 130, 131, 132, 133, 134, 135, 136, 137, 138, 139, 140, 141, 142, 143, 144, 145, 146, 147, 148, 149, 150, 151, 152, 153, 154, 155, 156, 157, 158, 159, 160, 161, 162, 163, 164, 165, 166, 167, 168, 169, 170, 171, 172, 173, 174, 175, 176, 177, 178, 179, 180, 181, 182, 183, 184, 185, 186, 187, 188, 189, 190, 191, 192, 193, 194, 195, 196, 197, 198, 199, 200, 201, 202, 203, 204, 205, 206, 207, 208, 209, 210, 211, 212, 213, 214, 215, 216, 217, 218, 219, 220, 221, 222, 223, 224, 225, 226, 227, 228, 229, 230, 231, 232, 233, 234, 235, 236, 237, 238, 239, 240, 241, 242, 243, 244, 245, 246, 247, 248, 249, 250, 251, 252, 253, 254, 255, 256, 257, 258, 259, 260, 261, 262, 263, 264, 265, 266, 267, 268, 269, 270, 271, 272, 273, 274, 275, 276, 277, 278, 279, 280, 281, 282, 283, 284, 285, 286, 287, 288, 289, 290, 291, 292, 293, 294, 295, 296, 297, 298, 299, 300, 301, 302, 303, 304, 305, 306, 307, 308, 309, 310, 311, 312, 313, 314, 315, 316, 317, 318, 319, 320, 321, 322, 323, 324, 325, 326, 327, 328, 329, 330, 331, 332, 333, 334, 335, 336, 337, 338, 339, 340, 341, 342, 343, 344, 345, 346, 347, 348, 349, 350, 351, 352, 353, 354, 355, 356, 357, 358, 359, 360, 361, 362, 363, 364, 365, 366, 367, 368, 369, 370, 371, 372, 373, 374, 375, 376, 377, 378, 379, 380, 381, 382, 383, 384, 385, 386, 387, 388, 389, 390, 391, 392, 393, 394, 395, 396, 397, 398, 399, 400, 401, 402, 403, 404, 405, 406, 407, 408, 409, 410, 411, 412, 413, 414, 415, 416, 417, 418, 419, 420, 421, 422, 423, 424, 425, 426, 427, 428, 429, 430, 431, 432, 433, 434, 435, 436],
      "AcquisitionTime": ["185206.907500", "185208.397500", "185209.887500", "185211.377500", "185212.867500", "185214.357500", "185215.847500", "185217.337500", "185218.827500", "185220.317500", "185221.807500", "185223.297500", "185224.787500", "185226.277500", "185227.767500", "185229.257500", "185230.747500", "185232.237500", "185233.727500", "185235.217500", "185236.707500", "185238.197500", "185239.687500", "185241.177500", "185242.667500", "185244.157500", "185245.647500", "185247.137500", "185248.627500", "185250.117500", "185251.607500", "185253.097500", "185254.587500", "185256.077500", "185257.567500", "185259.057500", "185300.547500", "185302.037500", "185303.527500", "185305.017500", "185306.507500", "185307.997500", "185309.487500", "185310.977500", "185312.467500", "185313.957500", "185315.447500", "185316.937500", "185318.427500", "185319.917500", "185321.407500", "185322.897500", "185324.387500", "185325.877500", "185327.367500", "185328.857500", "185330.347500", "185331.837500", "185333.327500", "185334.817500", "185336.307500", "185337.797500", "185339.287500", "185340.777500", "185342.267500", "185343.757500", "185345.247500", "185346.737500", "185348.227500", "185349.717500", "185351.207500", "185352.697500", "185354.187500", "185355.677500", "185357.167500", "185358.657500", "185400.147500", "185401.637500", "185403.127500", "185404.617500", "185406.107500", "185407.597500", "185409.087500", "185410.577500", "185412.067500", "185413.557500", "185415.047500", "185416.537500", "185418.027500", "185419.517500", "185421.007500", "185422.497500", "185423.987500", "185425.477500", "185426.967500", "185428.457500", "185429.947500", "185431.437500", "185432.927500", "185434.417500", "185435.907500", "185437.397500", "185438.887500", "185440.377500", "185441.867500", "185443.357500", "185444.847500", "185446.337500", "185447.827500", "185449.317500", "185450.807500", "185452.297500", "185453.787500", "185455.277500", "185456.767500", "185458.257500", "185459.747500", "185501.237500", "185502.727500", "185504.217500", "185505.707500", "185507.197500", "185508.687500", "185510.177500", "185511.667500", "185513.157500", "185514.647500", "185516.137500", "185517.627500", "185519.117500", "185520.607500", "185522.097500", "185523.587500", "185525.077500", "185526.567500", "185528.057500", "185529.547500", "185531.037500", "185532.527500", "185534.017500", "185535.507500", "185536.997500", "185538.487500", "185539.977500", "185541.467500", "185542.957500", "185544.447500", "185545.937500", "185547.427500", "185548.917500", "185550.407500", "185551.897500", "185553.387500", "185554.877500", "185556.367500", "185557.857500", "185559.347500", "185600.837500", "185602.327500", "185603.817500", "185605.307500", "185606.797500", "185608.287500", "185609.777500", "185611.267500", "185612.757500", "185614.247500", "185615.737500", "185617.227500", "185618.717500", "185620.207500", "185621.697500", "185623.187500", "185624.677500", "185626.167500", "185627.657500", "185629.147500", "185630.637500", "185632.127500", "185633.617500", "185635.107500", "185636.597500", "185638.087500", "185639.577500", "185641.067500", "185642.557500", "185644.047500", "185645.537500", "185647.027500", "185648.517500", "185650.007500", "185651.497500", "185652.987500", "185654.477500", "185655.967500", "185657.457500", "185658.947500", "185700.437500", "185701.927500", "185703.417500", "185704.907500", "185706.397500", "185707.887500", "185709.377500", "185710.867500", "185712.357500", "185713.847500", "185715.337500", "185716.827500", "185718.317500", "185719.807500", "185721.297500", "185722.787500", "185724.277500", "185725.767500", "185727.257500", "185728.747500", "185730.237500", "185731.727500", "185733.217500", "185734.707500", "185736.197500", "185737.687500", "185739.177500", "185740.667500", "185742.157500", "185743.647500", "185745.137500", "185746.627500", "185748.117500", "185749.607500", "185751.097500", "185752.587500", "185754.077500", "185755.567500", "185757.057500", "185758.547500", "185800.037500", "185801.527500", "185803.017500", "185804.507500", "185805.997500", "185807.487500", "185808.977500", "185810.467500", "185811.957500", "185813.447500", "185814.937500", "185816.427500", "185817.917500", "185819.407500", "185820.897500", "185822.387500", "185823.877500", "185825.367500", "185826.857500", "185828.347500", "185829.837500", "185831.327500", "185832.817500", "185834.307500", "185835.797500", "185837.287500", "185838.777500", "185840.267500", "185841.757500", "185843.247500", "185844.737500", "185846.227500", "185847.717500", "185849.207500", "185850.697500", "185852.187500", "185853.677500", "185855.167500", "185856.657500", "185858.147500", "185859.637500", "185901.127500", "185902.617500", "185904.107500", "185905.597500", "185907.087500", "185908.577500", "185910.067500", "185911.557500", "185913.047500", "185914.537500", "185916.027500", "185917.517500", "185919.007500", "185920.497500", "185921.987500", "185923.477500", "185924.967500", "185926.457500", "185927.947500", "185929.437500", "185930.927500", "185932.417500", "185933.907500", "185935.397500", "185936.887500", "185938.377500", "185939.867500", "185941.357500", "185942.847500", "185944.337500", "185945.827500", "185947.317500", "185948.807500", "185950.297500", "185951.787500", "185953.277500", "185954.767500", "185956.257500", "185957.747500", "185959.237500", "190000.727500", "190002.217500", "190003.707500", "190005.197500", "190006.687500", "190008.177500", "190009.667500", "190011.157500", "190012.647500", "190014.137500", "190015.627500", "190017.117500", "190018.607500", "190020.097500", "190021.587500", "190023.077500", "190024.567500", "190026.057500", "190027.547500", "190029.037500", "190030.527500", "190032.017500", "190033.507500", "190034.997500", "190036.487500", "190037.977500", "190039.467500", "190040.957500", "190042.447500", "190043.937500", "190045.427500", "190046.917500", "190048.407500", "190049.897500", "190051.387500", "190052.877500", "190054.367500", "190055.857500", "190057.347500", "190058.837500", "190100.327500", "190101.817500", "190103.307500", "190104.797500", "190106.287500", "190107.777500", "190109.267500", "190110.757500", "190112.247500", "190113.737500", "190115.227500", "190116.717500", "190118.207500", "190119.697500", "190121.187500", "190122.677500", "190124.167500", "190125.657500", "190127.147500", "190128.637500", "190130.127500", "190131.617500", "190133.107500", "190134.597500", "190136.087500", "190137.577500", "190139.067500", "190140.557500", "190142.047500", "190143.537500", "190145.027500", "190146.517500", "190148.007500", "190149.497500", "190150.987500", "190152.477500", "190153.967500", "190155.457500", "190156.947500", "190158.437500", "190159.927500", "190201.417500", "190202.907500", "190204.397500", "190205.887500", "190207.377500", "190208.867500", "190210.357500", "190211.847500", "190213.337500", "190214.827500", "190216.317500", "190217.807500", "190219.297500", "190220.787500", "190222.277500", "190223.767500", "190225.257500", "190226.747500", "190228.237500", "190229.727500", "190231.217500", "190232.707500", "190234.197500", "190235.687500", "190237.177500", "190238.667500", "190240.157500", "190241.647500", "190243.137500", "190244.627500", "190246.117500", "190247.607500", "190249.097500", "190250.587500", "190252.077500", "190253.567500", "190255.057500"],
      "ContentTime": ["185329.260000", "185329.264000", "185329.267000", "185329.271000", "185329.283000", "185329.286000", "185329.290000", "185329.293000", "185329.296000", "185329.300000", "185329.303000", "185329.307000", "185329.310000", "185329.313000", "185329.317000", "185329.320000", "185329.324000", "185329.327000", "185329.331000", "185329.334000", "185329.337000", "185329.341000", "185329.344000", "185329.347000", "185329.351000", "185329.354000", "185329.357000", "185329.361000", "185329.364000", "185329.367000", "185329.371000", "185329.379000", "185329.383000", "185329.386000", "185349.219000", "185349.223000", "185349.226000", "185349.229000", "185349.233000", "185349.236000", "185349.239000", "185349.243000", "185349.246000", "185349.249000", "185349.253000", "185349.256000", "185349.259000", "185349.263000", "185349.266000", "185349.269000", "185349.272000", "185349.276000", "185349.279000", "185349.283000", "185349.286000", "185409.220000", "185409.224000", "185409.237000", "185409.241000", "185409.244000", "185409.247000", "185409.250000", "185409.254000", "185409.257000", "185409.260000", "185409.264000", "185409.267000", "185409.270000", "185409.274000", "185409.277000", "185409.280000", "185409.284000", "185409.287000", "185409.291000", "185409.294000", "185429.220000", "185429.224000", "185429.227000", "185429.231000", "185429.234000", "185429.237000", "185429.240000", "185429.244000", "185429.247000", "185429.250000", "185429.254000", "185429.257000", "185429.260000", "185429.264000", "185429.267000", "185429.270000", "185429.274000", "185429.277000", "185429.280000", "185429.284000", "185509.219000", "185509.223000", "185509.226000", "185509.230000", "185509.233000", "185509.236000", "185509.240000", "185509.243000", "185509.246000", "185509.250000", "185509.253000", "185509.256000", "185509.260000", "185509.263000", "185509.266000", "185509.270000", "185509.273000", "185509.276000", "185509.280000", "185509.283000", "185509.286000", "185509.290000", "185509.293000", "185509.296000", "185509.300000", "185509.303000", "185509.306000", "185549.219000", "185549.223000", "185549.226000", "185549.230000", "185549.233000", "185549.236000", "185549.239000", "185549.243000", "185549.246000", "185549.249000", "185549.253000", "185549.256000", "185549.259000", "185549.263000", "185549.266000", "185549.269000", "185549.273000", "185549.276000", "185549.279000", "185549.283000", "185549.286000", "185549.289000", "185549.292000", "185549.296000", "185549.299000", "185549.302000", "185549.306000", "185629.220000", "185629.224000", "185629.227000", "185629.231000", "185629.234000", "185629.237000", "185629.241000", "185629.258000", "185629.262000", "185629.265000", "185629.269000", "185629.272000", "185629.275000", "185629.279000", "185629.282000", "185629.286000", "185629.289000", "185629.292000", "185629.296000", "185629.299000", "185629.302000", "185629.306000", "185629.310000", "185629.314000", "185629.317000", "185629.320000", "185709.220000", "185709.224000", "185709.227000", "185709.231000", "185709.234000", "185709.237000", "185709.241000", "185709.244000", "185709.247000", "185709.251000", "185709.254000", "185709.258000", "185709.261000", "185709.264000", "185709.267000", "185709.271000", "185709.274000", "185709.277000", "185709.281000", "185709.284000", "185709.287000", "185709.291000", "185709.294000", "185709.298000", "185709.301000", "185709.304000", "185709.308000", "185749.219000", "185749.223000", "185749.226000", "185749.230000", "185749.233000", "185749.237000", "185749.240000", "185749.243000", "185749.247000", "185749.250000", "185749.253000", "185749.257000", "185749.260000", "185749.263000", "185749.267000", "185749.270000", "185749.274000", "185749.277000", "185749.280000", "185749.284000", "185749.287000", "185749.290000", "185749.294000", "185749.297000", "185749.300000", "185749.304000", "185749.307000", "185809.219000", "185809.223000", "185809.226000", "185809.230000", "185809.233000", "185809.237000", "185809.240000", "185809.243000", "185809.247000", "185809.250000", "185809.254000", "185809.257000", "185809.260000", "185849.220000", "185849.224000", "185849.227000", "185849.231000", "185849.234000", "185849.237000", "185849.241000", "185849.244000", "185849.248000", "185849.251000", "185849.254000", "185849.258000", "185849.275000", "185849.278000", "185849.282000", "185849.285000", "185849.288000", "185849.292000", "185849.295000", "185849.298000", "185849.302000", "185849.305000", "185849.308000", "185849.312000", "185849.315000", "185849.318000", "185849.322000", "185929.220000", "185929.224000", "185929.227000", "185929.231000", "185929.234000", "185929.238000", "185929.241000", "185929.244000", "185929.248000", "185929.251000", "185929.254000", "185929.258000", "185929.261000", "185929.264000", "185929.268000", "185929.271000", "185929.274000", "185929.278000", "185929.281000", "185929.285000", "185929.288000", "185929.291000", "185929.295000", "185929.298000", "185929.301000", "185929.305000", "185929.308000", "190009.219000", "190009.223000", "190009.226000", "190009.230000", "190009.233000", "190009.236000", "190009.240000", "190009.243000", "190009.246000", "190009.250000", "190009.253000", "190009.256000", "190009.260000", "190009.263000", "190009.266000", "190009.270000", "190009.273000", "190009.276000", "190009.280000", "190009.283000", "190009.287000", "190009.290000", "190009.293000", "190009.297000", "190009.300000", "190009.313000", "190009.316000", "190049.219000", "190049.223000", "190049.226000", "190049.230000", "190049.233000", "190049.236000", "190049.240000", "190049.243000", "190049.246000", "190049.250000", "190049.253000", "190049.257000", "190049.260000", "190049.263000", "190049.267000", "190049.270000", "190049.274000", "190049.277000", "190049.280000", "190049.284000", "190049.287000", "190049.290000", "190049.294000", "190049.297000", "190049.319000", "190049.322000", "190049.325000", "190129.220000", "190129.224000", "190129.228000", "190129.231000", "190129.234000", "190129.238000", "190129.241000", "190129.244000", "190129.248000", "190129.251000", "190129.254000", "190129.258000", "190129.261000", "190129.264000", "190129.268000", "190129.271000", "190129.274000", "190129.278000", "190129.281000", "190129.286000", "190129.289000", "190129.293000", "190129.296000", "190129.299000", "190129.303000", "190129.306000", "190129.309000", "190209.219000", "190209.223000", "190209.226000", "190209.230000", "190209.233000", "190209.236000", "190209.240000", "190209.243000", "190209.246000", "190209.250000", "190209.253000", "190209.256000", "190209.260000", "190209.263000", "190209.267000", "190209.270000", "190209.273000", "190209.277000", "190209.280000", "190209.283000", "190209.287000", "190209.290000", "190209.293000", "190209.297000", "190209.300000", "190209.304000", "190209.307000", "190249.219000", "190249.223000", "190249.226000", "190249.230000", "190249.233000", "190249.236000", "190249.240000", "190249.244000", "190249.247000", "190249.251000", "190249.254000", "190249.257000", "190249.260000", "190249.264000", "190249.267000", "190249.271000", "190249.274000", "190249.277000", "190249.281000", "190249.284000", "190249.287000", "190249.291000", "190249.294000", "190249.298000", "190249.301000", "190249.304000", "190257.534000", "190257.537000", "190257.541000", "190257.544000", "190257.547000", "190257.551000"],
