{
  "AcquisitionMatrixPE": 104,
  "AcquisitionNumber": 1,
  "AcquisitionTime": "19:21:7.970000",
  "BandwidthPerPixelPhaseEncode": 17.17,
  "BaseResolution": 104,
  "BodyPartExamined": "BRAIN",
  "CoilCombinationMethod": "Sum of Squares",
  "ConsistencyInfo": "N4_VE11C_LATEST_20160120",
  "ConversionSoftware": "dcm2niix",
  "ConversionSoftwareVersion": "v1.0.20220505",
  "DerivedVendorReportedEchoSpacing": 0.000560011,
  "DeviceSerialNumber": "167006",
  "DwellTime": 2.1e-06,
  "EchoTime": 0.037,
  "EchoTime1": 0.037,
  "EchoTime2": 0.001,
  "EchoTrainLength": 104,
  "EffectiveEchoSpacing": 0.000560011,
  "FlipAngle": 52,
  "HeudiconvVersion": "0.5.3.post811+g6206e14",
  "ImageComments": "Unaliased MB4/PE3/LB",
  "ImageOrientationPatientDICOM": [0.999762, -0.0217896, -0.00067374, 0.0200692, 0.932015, -0.361864],
  "ImageOrientationText": "Tra>Cor(-21.2)>Sag(-0.5)",
  "ImageType": [
    "ORIGINAL",
    "PRIMARY",
    "P",
    "MB",
    "ND",
    "MOSAIC",
    "PHASE"
],
  "ImagingFrequency": 123.26,
  "InPlanePhaseEncodingDirectionDICOM": "COL",
  "InstitutionAddress": "Chemin Queen-Mary 4565,Montreal,District,CA,H3W 1W5",
  "InstitutionName": "IUGM",
  "InstitutionalDepartmentName": "Department",
  "MRAcquisitionType": "2D",
  "MagneticFieldStrength": 3,
  "Manufacturer": "Siemens",
  "ManufacturersModelName": "Prisma_fit",
  "MatrixCoilMode": "SENSE",
  "Modality": "MR",
  "MultibandAccelerationFactor": 4,
  "PartialFourier": 1,
  "PatientPosition": "HFS",
  "PercentPhaseFOV": 100,
  "PercentSampling": 100,
  "PhaseEncodingDirection": "j",
  "PhaseEncodingSteps": 104,
  "PhaseResolution": 1,
  "PixelBandwidth": 2290,
  "ProcedureStepDescription": "games^mariostars",
  "ProtocolName": "func_task-mariostars_run-04",
  "PulseSequenceDetails": "%CustomerSeq%\\cmrr_mbep2d_bold",
  "ReceiveCoilActiveElements": "HC1-7;NC1,2",
  "ReceiveCoilName": "HeadNeck_64",
  "ReconMatrixPE": 104,
  "RepetitionTime": 1.49,
  "SAR": 0.0734961,
  "ScanOptions": "FS",
  "ScanningSequence": "EP",
  "SequenceName": "epfid2d1_104",
  "SequenceVariant": "SK\\SS",
  "SeriesDescription": "func_task-mariostars_run-04",
  "SeriesNumber": 21,
  "ShimSetting": [590, -7264, -8832, 382, 0, -328, 13, 50],
  "SliceThickness": 2,
  "SliceTiming": [0, 0.785, 0.0975, 0.8825, 0.1975, 0.98, 0.295, 1.0775, 0.3925, 1.1775, 0.49, 1.275, 0.5875, 1.3725, 0.6875, 0, 0.785, 0.0975, 0.8825, 0.1975, 0.98, 0.295, 1.0775, 0.3925, 1.1775, 0.49, 1.275, 0.5875, 1.3725, 0.6875, 0, 0.785, 0.0975, 0.8825, 0.1975, 0.98, 0.295, 1.0775, 0.3925, 1.1775, 0.49, 1.275, 0.5875, 1.3725, 0.6875, 0, 0.785, 0.0975, 0.8825, 0.1975, 0.98, 0.295, 1.0775, 0.3925, 1.1775, 0.49, 1.275, 0.5875, 1.3725, 0.6875],
  "SoftwareVersions": "syngo MR E11",
  "SpacingBetweenSlices": 2,
  "StationName": "MRC35049",
  "TaskName": "mariostars",
  "TotalReadoutTime": 0.0576811,
  "TxRefAmp": 289.344,
  "WipMemBlock": "26a9ee15-ce1e-4cff-a342-ede458fcd0cd||Sequence: R017 ve11c/master r/75a17815+; Jun 28 2022 16:32:11 by eja",
  "dcmmeta_affine": [
    [-1.999524712562561, 0.04013841226696968, -0.017025642096996307, 102.65934753417969],
    [0.04357922822237015, 1.8640294075012207, -0.7235297560691833, -64.2630844116211],
    [-0.0013474804582074285, 0.7237287759780884, 1.864461064338684, -57.84170150756836],
    [0.0, 0.0, 0.0, 1.0]
],
  "dcmmeta_reorient_transform": [
    [0.0, -1.0, 0.0, 103.0],
    [1.0, 0.0, 0.0, 0.0],
    [0.0, 0.0, 1.0, 0.0],
    [0.0, 0.0, 0.0, 1.0]
],
  "dcmmeta_shape": [104, 104, 60, 444],
  "dcmmeta_slice_dim": 2,
  "dcmmeta_version": 0.6,
  "global": {
    "const": {
      "AcquisitionMatrix": [104, 0, 0, 104],
      "AngioFlag": "N",
      "BitsAllocated": 16,
      "BitsStored": 16,
      "BodyPartExamined": "BRAIN",
      "Columns": 832,
      "EchoNumbers": 1,
      "EchoTime": 37.0,
      "EchoTrainLength": 104,
      "FlipAngle": 52.0,
      "HighBit": 15,
      "ImageOrientationPatient": [0.99976235117207, -0.0217896134196, -0.0006737402422, 0.02006920663052, 0.93201469083538, -0.3618643986527],
      "ImagePositionPatient": [-849.23097447278, -790.37579544633, 280.630131295],
      "ImageType": [
        "ORIGINAL",
        "PRIMARY",
        "P",
        "MB",
        "ND",
        "MOSAIC"
],
      "ImagedNucleus": "1H",
      "ImagingFrequency": 123.260201,
      "InPlanePhaseEncodingDirection": "COL",
      "LargestImagePixelValue": 4095,
      "MRAcquisitionType": "2D",
      "MagneticFieldStrength": 3.0,
      "Manufacturer": "SIEMENS",
      "ManufacturerModelName": "Prisma_fit",
      "Modality": "MR",
      "NumberOfAverages": 1.0,
      "NumberOfPhaseEncodingSteps": 104,
      "PercentPhaseFieldOfView": 100.0,
      "PercentSampling": 100.0,
      "PerformedProcedureStepStartTime": "183309.918000",
      "PhotometricInterpretation": "MONOCHROME2",
      "PixelBandwidth": 2290.0,
      "PixelRepresentation": 0,
      "PixelSpacing": [2.0, 2.0],
      "ProtocolName": "func_task-mariostars_run-04",
      "RepetitionTime": 1490.0,
      "RescaleIntercept": -4096.0,
      "RescaleSlope": 2.0,
      "RescaleType": "US",
      "Rows": 832,
      "SAR": 0.07349605225176,
      "SamplesPerPixel": 1,
      "ScanOptions": "FS",
      "ScanningSequence": "EP",
      "SequenceName": "epfid2d1_104",
      "SequenceVariant": [
        "SK",
        "SS"
],
      "SeriesDescription": "func_task-mariostars_run-04",
      "SeriesNumber": 21,
      "SeriesTime": "192233.651000",
      "SliceLocation": -31.547589354047,
      "SliceThickness": 2.0,
      "SmallestImagePixelValue": 0,
      "SoftwareVersions": "syngo MR E11",
      "SpacingBetweenSlices": 2.0000000526323,
      "SpecificCharacterSet": "ISO_IR 100",
      "StudyID": "1",
      "StudyTime": "183309.840000",
      "TransmitCoilName": "Body",
      "VariableFlipAngleFlag": "N",
      "WindowCenterWidthExplanation": "Algo1",
      "dBdt": 0.0},
    "slices": {}
  },
  "time": {
    "samples": {
      "AcquisitionNumber": [1, 2, 3, 4, 5, 6, 7, 8, 9, 10, 11, 12, 13, 14, 15, 16, 17, 18, 19, 20, 21, 22, 23, 24, 25, 26, 27, 28, 29, 30, 31, 32, 33, 34, 35, 36, 37, 38, 39, 40, 41, 42, 43, 44, 45, 46, 47, 48, 49, 50, 51, 52, 53, 54, 55, 56, 57, 58, 59, 60, 61, 62, 63, 64, 65, 66, 67, 68, 69, 70, 71, 72, 73, 74, 75, 76, 77, 78, 79, 80, 81, 82, 83, 84, 85, 86, 87, 88, 89, 90, 91, 92, 93, 94, 95, 96, 97, 98, 99, 100, 101, 102, 103, 104, 105, 106, 107, 108, 109, 110, 111, 112, 113, 114, 115, 116, 117, 118, 119, 120, 121, 122, 123, 124, 125, 126, 127, 128, 129, 130, 131, 132, 133, 134, 135, 136, 137, 138, 139, 140, 141, 142, 143, 144, 145, 146, 147, 148, 149, 150, 151, 152, 153, 154, 155, 156, 157, 158, 159, 160, 161, 162, 163, 164, 165, 166, 167, 168, 169, 170, 171, 172, 173, 174, 175, 176, 177, 178, 179, 180, 181, 182, 183, 184, 185, 186, 187, 188, 189, 190, 191, 192, 193, 194, 195, 196, 197, 198, 199, 200, 201, 202, 203, 204, 205, 206, 207, 208, 209, 210, 211, 212, 213, 214, 215, 216, 217, 218, 219, 220, 221, 222, 223, 224, 225, 226, 227, 228, 229, 230, 231, 232, 233, 234, 235, 236, 237, 238, 239, 240, 241, 242, 243, 244, 245, 246, 247, 248, 249, 250, 251, 252, 253, 254, 255, 256, 257, 258, 259, 260, 261, 262, 263, 264, 265, 266, 267, 268, 269, 270, 271, 272, 273, 274, 275, 276, 277, 278, 279, 280, 281, 282, 283, 284, 285, 286, 287, 288, 289, 290, 291, 292, 293, 294, 295, 296, 297, 298, 299, 300, 301, 302, 303, 304, 305, 306, 307, 308, 309, 310, 311, 312, 313, 314, 315, 316, 317, 318, 319, 320, 321, 322, 323, 324, 325, 326, 327, 328, 329, 330, 331, 332, 333, 334, 335, 336, 337, 338, 339, 340, 341, 342, 343, 344, 345, 346, 347, 348, 349, 350, 351, 352, 353, 354, 355, 356, 357, 358, 359, 360, 361, 362, 363, 364, 365, 366, 367, 368, 369, 370, 371, 372, 373, 374, 375, 376, 377, 378, 379, 380, 381, 382, 383, 384, 385, 386, 387, 388, 389, 390, 391, 392, 393, 394, 395, 396, 397, 398, 399, 400, 401, 402, 403, 404, 405, 406, 407, 408, 409, 410, 411, 412, 413, 414, 415, 416, 417, 418, 419, 420, 421, 422, 423, 424, 425, 426, 427, 428, 429, 430, 431, 432, 433, 434, 435, 436, 437, 438, 439, 440, 441, 442, 443, 444],
      "AcquisitionTime": ["192107.970000", "192109.460000", "192110.950000", "192112.440000", "192113.930000", "192115.420000", "192116.910000", "192118.400000", "192119.890000", "192121.380000", "192122.870000", "192124.360000", "192125.850000", "192127.340000", "192128.830000", "192130.320000", "192131.810000", "192133.300000", "192134.790000", "192136.280000", "192137.770000", "192139.260000", "192140.750000", "192142.240000", "192143.730000", "192145.220000", "192146.710000", "192148.200000", "192149.690000", "192151.180000", "192152.670000", "192154.160000", "192155.650000", "192157.140000", "192158.630000", "192200.120000", "192201.610000", "192203.100000", "192204.590000", "192206.080000", "192207.570000", "192209.060000", "192210.550000", "192212.040000", "192213.530000", "192215.020000", "192216.510000", "192218.000000", "192219.490000", "192220.980000", "192222.470000", "192223.960000", "192225.450000", "192226.940000", "192228.430000", "192229.920000", "192231.410000", "192232.900000", "192234.390000", "192235.880000", "192237.370000", "192238.860000", "192240.350000", "192241.840000", "192243.330000", "192244.820000", "192246.310000", "192247.800000", "192249.290000", "192250.780000", "192252.270000", "192253.760000", "192255.250000", "192256.740000", "192258.230000", "192259.720000", "192301.210000", "192302.700000", "192304.190000", "192305.680000", "192307.170000", "192308.660000", "192310.150000", "192311.640000", "192313.130000", "192314.620000", "192316.110000", "192317.600000", "192319.090000", "192320.580000", "192322.070000", "192323.560000", "192325.050000", "192326.540000", "192328.030000", "192329.520000", "192331.010000", "192332.500000", "192333.990000", "192335.480000", "192336.970000", "192338.460000", "192339.950000", "192341.440000", "192342.930000", "192344.420000", "192345.910000", "192347.400000", "192348.890000", "192350.380000", "192351.870000", "192353.360000", "192354.850000", "192356.340000", "192357.830000", "192359.320000", "192400.810000", "192402.300000", "192403.790000", "192405.280000", "192406.770000", "192408.260000", "192409.750000", "192411.240000", "192412.730000", "192414.220000", "192415.710000", "192417.200000", "192418.690000", "192420.180000", "192421.670000", "192423.160000", "192424.650000", "192426.140000", "192427.630000", "192429.120000", "192430.610000", "192432.100000", "192433.590000", "192435.080000", "192436.570000", "192438.060000", "192439.550000", "192441.040000", "192442.530000", "192444.020000", "192445.510000", "192447.000000", "192448.490000", "192449.980000", "192451.470000", "192452.960000", "192454.450000", "192455.940000", "192457.430000", "192458.920000", "192500.410000", "192501.900000", "192503.390000", "192504.880000", "192506.370000", "192507.860000", "192509.350000", "192510.840000", "192512.330000", "192513.820000", "192515.310000", "192516.800000", "192518.290000", "192519.780000", "192521.270000", "192522.760000", "192524.250000", "192525.740000", "192527.230000", "192528.720000", "192530.210000", "192531.700000", "192533.190000", "192534.680000", "192536.170000", "192537.660000", "192539.150000", "192540.640000", "192542.130000", "192543.620000", "192545.110000", "192546.600000", "192548.090000", "192549.580000", "192551.070000", "192552.560000", "192554.050000", "192555.540000", "192557.030000", "192558.520000", "192600.010000", "192601.500000", "192602.990000", "192604.480000", "192605.970000", "192607.460000", "192608.950000", "192610.440000", "192611.930000", "192613.420000", "192614.910000", "192616.400000", "192617.890000", "192619.380000", "192620.870000", "192622.360000", "192623.850000", "192625.340000", "192626.830000", "192628.320000", "192629.810000", "192631.300000", "192632.790000", "192634.280000", "192635.770000", "192637.260000", "192638.750000", "192640.240000", "192641.730000", "192643.220000", "192644.710000", "192646.200000", "192647.690000", "192649.180000", "192650.670000", "192652.160000", "192653.650000", "192655.140000", "192656.630000", "192658.120000", "192659.610000", "192701.100000", "192702.590000", "192704.080000", "192705.570000", "192707.060000", "192708.550000", "192710.040000", "192711.530000", "192713.020000", "192714.510000", "192716.000000", "192717.490000", "192718.980000", "192720.470000", "192721.960000", "192723.450000", "192724.940000", "192726.430000", "192727.920000", "192729.410000", "192730.900000", "192732.390000", "192733.880000", "192735.370000", "192736.860000", "192738.350000", "192739.840000", "192741.330000", "192742.820000", "192744.310000", "192745.800000", "192747.290000", "192748.780000", "192750.270000", "192751.760000", "192753.250000", "192754.740000", "192756.230000", "192757.720000", "192759.210000", "192800.700000", "192802.190000", "192803.680000", "192805.170000", "192806.660000", "192808.150000", "192809.640000", "192811.130000", "192812.620000", "192814.110000", "192815.600000", "192817.090000", "192818.580000", "192820.070000", "192821.560000", "192823.050000", "192824.540000", "192826.030000", "192827.520000", "192829.010000", "192830.500000", "192831.990000", "192833.480000", "192834.970000", "192836.460000", "192837.950000", "192839.440000", "192840.930000", "192842.420000", "192843.910000", "192845.400000", "192846.890000", "192848.380000", "192849.870000", "192851.360000", "192852.850000", "192854.340000", "192855.830000", "192857.320000", "192858.810000", "192900.300000", "192901.790000", "192903.280000", "192904.770000", "192906.260000", "192907.750000", "192909.240000", "192910.730000", "192912.220000", "192913.710000", "192915.200000", "192916.690000", "192918.180000", "192919.670000", "192921.160000", "192922.650000", "192924.140000", "192925.630000", "192927.120000", "192928.610000", "192930.100000", "192931.590000", "192933.080000", "192934.570000", "192936.060000", "192937.550000", "192939.040000", "192940.530000", "192942.020000", "192943.510000", "192945.000000", "192946.490000", "192947.980000", "192949.470000", "192950.960000", "192952.450000", "192953.940000", "192955.430000", "192956.920000", "192958.410000", "192959.900000", "193001.390000", "193002.880000", "193004.370000", "193005.860000", "193007.350000", "193008.840000", "193010.330000", "193011.820000", "193013.310000", "193014.800000", "193016.290000", "193017.780000", "193019.270000", "193020.760000", "193022.250000", "193023.740000", "193025.230000", "193026.720000", "193028.210000", "193029.700000", "193031.190000", "193032.680000", "193034.170000", "193035.660000", "193037.150000", "193038.640000", "193040.130000", "193041.620000", "193043.110000", "193044.600000", "193046.090000", "193047.580000", "193049.070000", "193050.560000", "193052.050000", "193053.540000", "193055.030000", "193056.520000", "193058.010000", "193059.500000", "193100.990000", "193102.480000", "193103.970000", "193105.460000", "193106.950000", "193108.440000", "193109.930000", "193111.420000", "193112.910000", "193114.400000", "193115.890000", "193117.380000", "193118.870000", "193120.360000", "193121.850000", "193123.340000", "193124.830000", "193126.320000", "193127.810000", "193129.300000", "193130.790000", "193132.280000", "193133.770000", "193135.260000", "193136.750000", "193138.240000", "193139.730000", "193141.220000", "193142.710000", "193144.200000", "193145.690000", "193147.180000", "193148.670000", "193150.160000", "193151.650000", "193153.140000", "193154.630000", "193156.120000", "193157.610000", "193159.100000", "193200.590000", "193202.080000", "193203.570000", "193205.060000", "193206.550000", "193208.040000"],
      "ContentTime": ["192233.653000", "192233.656000", "192233.658000", "192233.661000", "192233.663000", "192233.666000", "192233.668000", "192233.671000", "192233.673000", "192233.676000", "192233.678000", "192233.681000", "192233.693000", "192233.695000", "192233.698000", "192233.700000", "192233.703000", "192233.705000", "192233.708000", "192233.710000", "192233.713000", "192233.715000", "192233.718000", "192233.720000", "192233.723000", "192233.725000", "192233.728000", "192233.730000", "192233.733000", "192233.735000", "192233.738000", "192233.740000", "192233.743000", "192233.745000", "192233.748000", "192233.750000", "192233.753000", "192253.570000", "192253.573000", "192253.575000", "192253.578000", "192253.580000", "192253.583000", "192253.585000", "192253.588000", "192253.591000", "192253.599000", "192253.602000", "192253.604000", "192253.607000", "192253.609000", "192253.612000", "192253.614000", "192253.617000", "192253.619000", "192253.622000", "192253.624000", "192253.627000", "192313.546000", "192313.549000", "192313.552000", "192313.554000", "192313.557000", "192313.559000", "192313.562000", "192313.564000", "192313.567000", "192313.569000", "192313.572000", "192313.574000", "192313.577000", "192313.579000", "192313.583000", "192313.585000", "192313.588000", "192313.590000", "192313.593000", "192313.595000", "192353.595000", "192353.598000", "192353.601000", "192353.603000", "192353.606000", "192353.608000", "192353.611000", "192353.613000", "192353.616000", "192353.618000", "192353.621000", "192353.630000", "192353.633000", "192353.635000", "192353.638000", "192353.640000", "192353.643000", "192353.645000", "192353.648000", "192353.650000", "192353.653000", "192353.655000", "192353.658000", "192353.660000", "192353.663000", "192353.665000", "192353.668000", "192353.670000", "192353.673000", "192353.675000", "192353.678000", "192353.680000", "192433.580000", "192433.582000", "192433.585000", "192433.588000", "192433.590000", "192433.593000", "192433.595000", "192433.598000", "192433.600000", "192433.603000", "192433.605000", "192433.608000", "192433.611000", "192433.613000", "192433.616000", "192433.619000", "192433.621000", "192433.624000", "192433.626000", "192433.629000", "192433.631000", "192433.634000", "192433.636000", "192433.639000", "192433.641000", "192433.644000", "192433.646000", "192513.565000", "192513.567000", "192513.570000", "192513.572000", "192513.575000", "192513.577000", "192513.580000", "192513.582000", "192513.585000", "192513.588000", "192513.590000", "192513.593000", "192513.595000", "192513.598000", "192513.600000", "192513.603000", "192513.605000", "192513.608000", "192513.610000", "192513.613000", "192513.615000", "192513.618000", "192513.620000", "192513.629000", "192513.632000", "192513.634000", "192513.637000", "192553.590000", "192553.593000", "192553.596000", "192553.598000", "192553.601000", "192553.603000", "192553.606000", "192553.608000", "192553.611000", "192553.613000", "192553.616000", "192553.618000", "192553.621000", "192553.623000", "192553.626000", "192553.628000", "192553.631000", "192553.633000", "192553.636000", "192553.638000", "192553.641000", "192553.643000", "192553.646000", "192553.648000", "192553.651000", "192553.653000", "192553.656000", "192633.581000", "192633.583000", "192633.586000", "192633.588000", "192633.591000", "192633.593000", "192633.596000", "192633.598000", "192633.601000", "192633.604000", "192633.606000", "192633.609000", "192633.611000", "192633.614000", "192633.616000", "192633.619000", "192633.621000", "192633.624000", "192633.626000", "192633.629000", "192633.631000", "192633.634000", "192633.636000", "192633.639000", "192633.641000", "192633.644000", "192633.647000", "192713.560000", "192713.562000", "192713.565000", "192713.567000", "192713.570000", "192713.572000", "192713.575000", "192713.578000", "192713.580000", "192713.583000", "192713.585000", "192713.588000", "192713.590000", "192713.593000", "192713.595000", "192713.598000", "192713.600000", "192713.603000", "192713.605000", "192713.608000", "192713.610000", "192713.613000", "192713.615000", "192713.618000", "192713.621000", "192713.624000", "192753.556000", "192753.559000", "192753.561000", "192753.564000", "192753.566000", "192753.569000", "192753.571000", "192753.574000", "192753.576000", "192753.579000", "192753.581000", "192753.584000", "192753.587000", "192753.589000", "192753.592000", "192753.594000", "192753.597000", "192753.599000", "192753.602000", "192753.604000", "192753.607000", "192753.609000", "192753.612000", "192753.614000", "192753.617000", "192753.619000", "192753.622000", "192813.519000", "192813.522000", "192813.524000", "192813.527000", "192813.529000", "192813.532000", "192813.534000", "192813.537000", "192813.539000", "192813.542000", "192813.544000", "192813.547000", "192813.549000", "192813.552000", "192853.585000", "192853.588000", "192853.591000", "192853.593000", "192853.596000", "192853.598000", "192853.601000", "192853.603000", "192853.606000", "192853.608000", "192853.611000", "192853.613000", "192853.616000", "192853.618000", "192853.621000", "192853.623000", "192853.626000", "192853.628000", "192853.631000", "192853.634000", "192853.636000", "192853.639000", "192853.641000", "192853.644000", "192853.646000", "192853.649000", "192933.570000", "192933.573000", "192933.576000", "192933.578000", "192933.581000", "192933.584000", "192933.586000", "192933.589000", "192933.591000", "192933.594000", "192933.596000", "192933.599000", "192933.601000", "192933.604000", "192933.606000", "192933.609000", "192933.611000", "192933.614000", "192933.616000", "192933.619000", "192933.621000", "192933.624000", "192933.626000", "192933.629000", "192933.631000", "192933.634000", "192933.637000", "193013.573000", "193013.576000", "193013.578000", "193013.581000", "193013.583000", "193013.586000", "193013.588000", "193013.591000", "193013.593000", "193013.596000", "193013.598000", "193013.601000", "193013.603000", "193013.606000", "193013.608000", "193013.611000", "193013.613000", "193013.616000", "193013.618000", "193013.621000", "193013.623000", "193013.626000", "193013.628000", "193013.631000", "193013.633000", "193013.636000", "193013.638000", "193053.565000", "193053.568000", "193053.571000", "193053.573000", "193053.576000", "193053.578000", "193053.581000", "193053.583000", "193053.586000", "193053.589000", "193053.591000", "193053.594000", "193053.596000", "193053.599000", "193053.601000", "193053.604000", "193053.606000", "193053.609000", "193053.611000", "193053.614000", "193053.616000", "193053.619000", "193053.621000", "193053.624000", "193053.627000", "193053.629000", "193053.632000", "193133.573000", "193133.576000", "193133.579000", "193133.581000", "193133.584000", "193133.586000", "193133.589000", "193133.591000", "193133.594000", "193133.596000", "193133.599000", "193133.601000", "193133.604000", "193133.606000", "193133.609000", "193133.611000", "193133.614000", "193133.616000", "193133.619000", "193133.621000", "193133.624000", "193133.626000", "193133.629000", "193133.631000", "193133.634000", "193133.637000", "193133.639000", "193210.672000", "193210.675000", "193210.678000", "193210.680000", "193210.683000", "193210.692000", "193210.695000", "193210.697000", "193210.700000", "193210.702000", "193210.705000", "193210.707000", "193210.710000", "193210.712000", "193210.715000", "193210.717000", "193210.720000", "193210.723000", "193210.725000", "193210.728000", "193210.730000", "193210.733000", "193210.735000", "193210.738000", "193210.740000"],
