{
  "AcquisitionMatrixPE": 104,
  "AcquisitionNumber": 1,
  "AcquisitionTime": "19:44:5.030000",
  "BandwidthPerPixelPhaseEncode": 17.17,
  "BaseResolution": 104,
  "BodyPartExamined": "BRAIN",
  "CoilCombinationMethod": "Sum of Squares",
  "ConsistencyInfo": "N4_VE11C_LATEST_20160120",
  "ConversionSoftware": "dcm2niix",
  "ConversionSoftwareVersion": "v1.0.20220505",
  "DerivedVendorReportedEchoSpacing": 0.000560011,
  "DeviceSerialNumber": "167006",
  "DwellTime": 2.1e-06,
  "EchoTime": 0.037,
  "EchoTrainLength": 104,
  "EffectiveEchoSpacing": 0.000560011,
  "FlipAngle": 52,
  "HeudiconvVersion": "0.5.3.post811+g6206e14",
  "ImageComments": "Unaliased MB4/PE3/LB",
  "ImageOrientationPatientDICOM": [0.99996, -0.00889186, 0.00118205, 0.00872654, 0.933828, -0.357615],
  "ImageOrientationText": "Tra>Cor(-21.0)>Sag(-0.1)",
  "ImageType": [
    "ORIGINAL",
    "PRIMARY",
    "M",
    "MB",
    "ND",
    "MOSAIC"
],
  "ImagingFrequency": 123.26,
  "InPlanePhaseEncodingDirectionDICOM": "COL",
  "InstitutionAddress": "Chemin Queen-Mary 4565,Montreal,District,CA,H3W 1W5",
  "InstitutionName": "IUGM",
  "InstitutionalDepartmentName": "Department",
  "MRAcquisitionType": "2D",
  "MagneticFieldStrength": 3,
  "Manufacturer": "Siemens",
  "ManufacturersModelName": "Prisma_fit",
  "MatrixCoilMode": "SENSE",
  "Modality": "MR",
  "MultibandAccelerationFactor": 4,
  "PartialFourier": 1,
  "PatientPosition": "HFS",
  "PercentPhaseFOV": 100,
  "PercentSampling": 100,
  "PhaseEncodingDirection": "j",
  "PhaseEncodingSteps": 104,
  "PhaseResolution": 1,
  "PixelBandwidth": 2290,
  "ProcedureStepDescription": "games^mariostars",
  "ProtocolName": "func_task-mariostars_run-05",
  "PulseSequenceDetails": "%CustomerSeq%\\cmrr_mbep2d_bold",
  "ReceiveCoilActiveElements": "HC1-7;NC1,2",
  "ReceiveCoilName": "HeadNeck_64",
  "ReconMatrixPE": 104,
  "RepetitionTime": 1.49,
  "SAR": 0.0816553,
  "ScanOptions": "FS",
  "ScanningSequence": "EP",
  "SequenceName": "epfid2d1_104",
  "SequenceVariant": "SK\\SS",
  "SeriesDescription": "func_task-mariostars_run-05",
  "SeriesNumber": 23,
  "ShimSetting": [591, -7263, -8827, 450, -14, -322, 14, 55],
  "SliceThickness": 2,
  "SliceTiming": [0, 0.785, 0.0975, 0.8825, 0.1975, 0.98, 0.295, 1.0775, 0.3925, 1.1775, 0.49, 1.275, 0.5875, 1.3725, 0.6875, 0, 0.785, 0.0975, 0.8825, 0.1975, 0.98, 0.295, 1.0775, 0.3925, 1.1775, 0.49, 1.275, 0.5875, 1.3725, 0.6875, 0, 0.785, 0.0975, 0.8825, 0.1975, 0.98, 0.295, 1.0775, 0.3925, 1.1775, 0.49, 1.275, 0.5875, 1.3725, 0.6875, 0, 0.785, 0.0975, 0.8825, 0.1975, 0.98, 0.295, 1.0775, 0.3925, 1.1775, 0.49, 1.275, 0.5875, 1.3725, 0.6875],
  "SoftwareVersions": "syngo MR E11",
  "SpacingBetweenSlices": 2,
  "StationName": "MRC35049",
  "TaskName": "mariostars",
  "TotalReadoutTime": 0.0576811,
  "TxRefAmp": 304.936,
  "WipMemBlock": "ad6f32f1-dbc8-4897-a108-148975e291da||Sequence: R017 ve11c/master r/75a17815+; Jun 28 2022 16:32:11 by eja",
  "dcmmeta_affine": [
    [-1.9999195337295532, 0.017453081905841827, -0.004152067471295595, 102.75474548339844],
    [0.017783720046281815, 1.8676563501358032, -0.7152225971221924, -69.07616424560547],
    [0.0023641011212021112, 0.7152307033538818, 1.8677364587783813, -64.69792175292969],
    [0.0, 0.0, 0.0, 1.0]
],
  "dcmmeta_reorient_transform": [
    [0.0, -1.0, 0.0, 103.0],
    [1.0, 0.0, 0.0, 0.0],
    [0.0, 0.0, 1.0, 0.0],
    [0.0, 0.0, 0.0, 1.0]
],
  "dcmmeta_shape": [104, 104, 60, 456],
  "dcmmeta_slice_dim": 2,
  "dcmmeta_version": 0.6,
  "global": {
    "const": {
      "AcquisitionMatrix": [104, 0, 0, 104],
      "AngioFlag": "N",
      "BitsAllocated": 16,
      "BitsStored": 16,
      "BodyPartExamined": "BRAIN",
      "Columns": 832,
      "EchoNumbers": 1,
      "EchoTime": 37.0,
      "EchoTrainLength": 104,
      "FlipAngle": 52.0,
      "HighBit": 15,
      "ImageOrientationPatient": [0.99995976797787, -0.0088918604369, 0.00118205060004, 0.00872654053164, 0.93382819600379, -0.3576153629791],
      "ImagePositionPatient": [-838.87604753118, -796.64609697232, 268.45429125946],
      "ImageType": [
        "ORIGINAL",
        "PRIMARY",
        "M",
        "MB",
        "ND",
        "MOSAIC"
],
      "ImagedNucleus": "1H",
      "ImagingFrequency": 123.260223,
      "InPlanePhaseEncodingDirection": "COL",
      "MRAcquisitionType": "2D",
      "MagneticFieldStrength": 3.0,
      "Manufacturer": "SIEMENS",
      "ManufacturerModelName": "Prisma_fit",
      "Modality": "MR",
      "NumberOfAverages": 1.0,
      "NumberOfPhaseEncodingSteps": 104,
      "PercentPhaseFieldOfView": 100.0,
      "PercentSampling": 100.0,
      "PerformedProcedureStepStartTime": "184718.473000",
      "PhotometricInterpretation": "MONOCHROME2",
      "PixelBandwidth": 2290.0,
      "PixelRepresentation": 0,
      "PixelSpacing": [2.0, 2.0],
      "ProtocolName": "func_task-mariostars_run-05",
      "RepetitionTime": 1490.0,
      "Rows": 832,
      "SAR": 0.08165525966676,
      "SamplesPerPixel": 1,
      "ScanOptions": "FS",
      "ScanningSequence": "EP",
      "SequenceName": "epfid2d1_104",
      "SequenceVariant": [
        "SK",
        "SS"
],
      "SeriesDescription": "func_task-mariostars_run-05",
      "SeriesNumber": 23,
      "SeriesTime": "194529.323000",
      "SliceLocation": -35.930242349361,
      "SliceThickness": 2.0,
      "SmallestImagePixelValue": 0,
      "SoftwareVersions": "syngo MR E11",
      "SpacingBetweenSlices": 2.0000000425882,
      "SpecificCharacterSet": "ISO_IR 100",
      "StudyID": "1",
      "StudyTime": "184718.409000",
      "TransmitCoilName": "Body",
      "VariableFlipAngleFlag": "N",
      "WindowCenterWidthExplanation": "Algo1",
      "dBdt": 0.0},
    "slices": {}
  },
  "time": {
    "samples": {
      "AcquisitionNumber": [1, 2, 3, 4, 5, 6, 7, 8, 9, 10, 11, 12, 13, 14, 15, 16, 17, 18, 19, 20, 21, 22, 23, 24, 25, 26, 27, 28, 29, 30, 31, 32, 33, 34, 35, 36, 37, 38, 39, 40, 41, 42, 43, 44, 45, 46, 47, 48, 49, 50, 51, 52, 53, 54, 55, 56, 57, 58, 59, 60, 61, 62, 63, 64, 65, 66, 67, 68, 69, 70, 71, 72, 73, 74, 75, 76, 77, 78, 79, 80, 81, 82, 83, 84, 85, 86, 87, 88, 89, 90, 91, 92, 93, 94, 95, 96, 97, 98, 99, 100, 101, 102, 103, 104, 105, 106, 107, 108, 109, 110, 111, 112, 113, 114, 115, 116, 117, 118, 119, 120, 121, 122, 123, 124, 125, 126, 127, 128, 129, 130, 131, 132, 133, 134, 135, 136, 137, 138, 139, 140, 141, 142, 143, 144, 145, 146, 147, 148, 149, 150, 151, 152, 153, 154, 155, 156, 157, 158, 159, 160, 161, 162, 163, 164, 165, 166, 167, 168, 169, 170, 171, 172, 173, 174, 175, 176, 177, 178, 179, 180, 181, 182, 183, 184, 185, 186, 187, 188, 189, 190, 191, 192, 193, 194, 195, 196, 197, 198, 199, 200, 201, 202, 203, 204, 205, 206, 207, 208, 209, 210, 211, 212, 213, 214, 215, 216, 217, 218, 219, 220, 221, 222, 223, 224, 225, 226, 227, 228, 229, 230, 231, 232, 233, 234, 235, 236, 237, 238, 239, 240, 241, 242, 243, 244, 245, 246, 247, 248, 249, 250, 251, 252, 253, 254, 255, 256, 257, 258, 259, 260, 261, 262, 263, 264, 265, 266, 267, 268, 269, 270, 271, 272, 273, 274, 275, 276, 277, 278, 279, 280, 281, 282, 283, 284, 285, 286, 287, 288, 289, 290, 291, 292, 293, 294, 295, 296, 297, 298, 299, 300, 301, 302, 303, 304, 305, 306, 307, 308, 309, 310, 311, 312, 313, 314, 315, 316, 317, 318, 319, 320, 321, 322, 323, 324, 325, 326, 327, 328, 329, 330, 331, 332, 333, 334, 335, 336, 337, 338, 339, 340, 341, 342, 343, 344, 345, 346, 347, 348, 349, 350, 351, 352, 353, 354, 355, 356, 357, 358, 359, 360, 361, 362, 363, 364, 365, 366, 367, 368, 369, 370, 371, 372, 373, 374, 375, 376, 377, 378, 379, 380, 381, 382, 383, 384, 385, 386, 387, 388, 389, 390, 391, 392, 393, 394, 395, 396, 397, 398, 399, 400, 401, 402, 403, 404, 405, 406, 407, 408, 409, 410, 411, 412, 413, 414, 415, 416, 417, 418, 419, 420, 421, 422, 423, 424, 425, 426, 427, 428, 429, 430, 431, 432, 433, 434, 435, 436, 437, 438, 439, 440, 441, 442, 443, 444, 445, 446, 447, 448, 449, 450, 451, 452, 453, 454, 455, 456],
      "AcquisitionTime": ["194405.030000", "194406.520000", "194408.010000", "194409.500000", "194410.990000", "194412.480000", "194413.970000", "194415.460000", "194416.950000", "194418.440000", "194419.930000", "194421.420000", "194422.910000", "194424.400000", "194425.890000", "194427.380000", "194428.870000", "194430.360000", "194431.850000", "194433.340000", "194434.830000", "194436.320000", "194437.810000", "194439.300000", "194440.790000", "194442.280000", "194443.770000", "194445.260000", "194446.750000", "194448.240000", "194449.730000", "194451.220000", "194452.710000", "194454.200000", "194455.690000", "194457.180000", "194458.670000", "194500.160000", "194501.650000", "194503.140000", "194504.630000", "194506.120000", "194507.610000", "194509.100000", "194510.590000", "194512.080000", "194513.570000", "194515.060000", "194516.550000", "194518.040000", "194519.530000", "194521.020000", "194522.510000", "194524.000000", "194525.490000", "194526.980000", "194528.470000", "194529.960000", "194531.450000", "194532.940000", "194534.430000", "194535.920000", "194537.410000", "194538.900000", "194540.390000", "194541.880000", "194543.370000", "194544.860000", "194546.350000", "194547.840000", "194549.330000", "194550.820000", "194552.310000", "194553.800000", "194555.290000", "194556.780000", "194558.270000", "194559.760000", "194601.250000", "194602.740000", "194604.230000", "194605.720000", "194607.210000", "194608.700000", "194610.190000", "194611.680000", "194613.170000", "194614.660000", "194616.150000", "194617.640000", "194619.130000", "194620.620000", "194622.110000", "194623.600000", "194625.090000", "194626.580000", "194628.070000", "194629.560000", "194631.050000", "194632.540000", "194634.030000", "194635.520000", "194637.010000", "194638.500000", "194639.990000", "194641.480000", "194642.970000", "194644.460000", "194645.950000", "194647.440000", "194648.930000", "194650.420000", "194651.910000", "194653.400000", "194654.890000", "194656.380000", "194657.870000", "194659.360000", "194700.850000", "194702.340000", "194703.830000", "194705.320000", "194706.810000", "194708.300000", "194709.790000", "194711.280000", "194712.770000", "194714.260000", "194715.750000", "194717.240000", "194718.730000", "194720.220000", "194721.710000", "194723.200000", "194724.690000", "194726.180000", "194727.670000", "194729.160000", "194730.650000", "194732.140000", "194733.630000", "194735.120000", "194736.610000", "194738.100000", "194739.590000", "194741.080000", "194742.570000", "194744.060000", "194745.550000", "194747.040000", "194748.530000", "194750.020000", "194751.510000", "194753.000000", "194754.490000", "194755.980000", "194757.470000", "194758.960000", "194800.450000", "194801.940000", "194803.430000", "194804.920000", "194806.410000", "194807.900000", "194809.390000", "194810.880000", "194812.370000", "194813.860000", "194815.350000", "194816.840000", "194818.330000", "194819.820000", "194821.310000", "194822.800000", "194824.290000", "194825.780000", "194827.270000", "194828.760000", "194830.250000", "194831.740000", "194833.230000", "194834.720000", "194836.210000", "194837.700000", "194839.190000", "194840.680000", "194842.170000", "194843.660000", "194845.150000", "194846.640000", "194848.130000", "194849.620000", "194851.110000", "194852.600000", "194854.090000", "194855.580000", "194857.070000", "194858.560000", "194900.050000", "194901.540000", "194903.030000", "194904.520000", "194906.010000", "194907.500000", "194908.990000", "194910.480000", "194911.970000", "194913.460000", "194914.950000", "194916.440000", "194917.930000", "194919.420000", "194920.910000", "194922.400000", "194923.890000", "194925.380000", "194926.870000", "194928.360000", "194929.850000", "194931.340000", "194932.830000", "194934.320000", "194935.810000", "194937.300000", "194938.790000", "194940.280000", "194941.770000", "194943.260000", "194944.750000", "194946.240000", "194947.730000", "194949.220000", "194950.710000", "194952.200000", "194953.690000", "194955.180000", "194956.670000", "194958.160000", "194959.650000", "195001.140000", "195002.630000", "195004.120000", "195005.610000", "195007.100000", "195008.590000", "195010.080000", "195011.570000", "195013.060000", "195014.550000", "195016.040000", "195017.530000", "195019.020000", "195020.510000", "195022.000000", "195023.490000", "195024.980000", "195026.470000", "195027.960000", "195029.450000", "195030.940000", "195032.430000", "195033.920000", "195035.410000", "195036.900000", "195038.390000", "195039.880000", "195041.370000", "195042.860000", "195044.350000", "195045.840000", "195047.330000", "195048.820000", "195050.310000", "195051.800000", "195053.290000", "195054.780000", "195056.270000", "195057.760000", "195059.250000", "195100.740000", "195102.230000", "195103.720000", "195105.210000", "195106.700000", "195108.190000", "195109.680000", "195111.170000", "195112.660000", "195114.150000", "195115.640000", "195117.130000", "195118.620000", "195120.110000", "195121.600000", "195123.090000", "195124.580000", "195126.070000", "195127.560000", "195129.050000", "195130.540000", "195132.030000", "195133.520000", "195135.010000", "195136.500000", "195137.990000", "195139.480000", "195140.970000", "195142.460000", "195143.950000", "195145.440000", "195146.930000", "195148.420000", "195149.910000", "195151.400000", "195152.890000", "195154.380000", "195155.870000", "195157.360000", "195158.850000", "195200.340000", "195201.830000", "195203.320000", "195204.810000", "195206.300000", "195207.790000", "195209.280000", "195210.770000", "195212.260000", "195213.750000", "195215.240000", "195216.730000", "195218.220000", "195219.710000", "195221.200000", "195222.690000", "195224.180000", "195225.670000", "195227.160000", "195228.650000", "195230.140000", "195231.630000", "195233.120000", "195234.610000", "195236.100000", "195237.590000", "195239.080000", "195240.570000", "195242.060000", "195243.550000", "195245.040000", "195246.530000", "195248.020000", "195249.510000", "195251.000000", "195252.490000", "195253.980000", "195255.470000", "195256.960000", "195258.450000", "195259.940000", "195301.430000", "195302.920000", "195304.410000", "195305.900000", "195307.390000", "195308.880000", "195310.370000", "195311.860000", "195313.350000", "195314.840000", "195316.330000", "195317.820000", "195319.310000", "195320.800000", "195322.290000", "195323.780000", "195325.270000", "195326.760000", "195328.250000", "195329.740000", "195331.230000", "195332.720000", "195334.210000", "195335.700000", "195337.190000", "195338.680000", "195340.170000", "195341.660000", "195343.150000", "195344.640000", "195346.130000", "195347.620000", "195349.110000", "195350.600000", "195352.090000", "195353.580000", "195355.070000", "195356.560000", "195358.050000", "195359.540000", "195401.030000", "195402.520000", "195404.010000", "195405.500000", "195406.990000", "195408.480000", "195409.970000", "195411.460000", "195412.950000", "195414.440000", "195415.930000", "195417.420000", "195418.910000", "195420.400000", "195421.890000", "195423.380000", "195424.870000", "195426.360000", "195427.850000", "195429.340000", "195430.830000", "195432.320000", "195433.810000", "195435.300000", "195436.790000", "195438.280000", "195439.770000", "195441.260000", "195442.750000", "195444.240000", "195445.730000", "195447.220000", "195448.710000", "195450.200000", "195451.690000", "195453.180000", "195454.670000", "195456.160000", "195457.650000", "195459.140000", "195500.630000", "195502.120000", "195503.610000", "195505.100000", "195506.590000", "195508.080000", "195509.570000", "195511.060000", "195512.550000", "195514.040000", "195515.530000", "195517.020000", "195518.510000", "195520.000000", "195521.490000", "195522.980000"],
      "ContentTime": ["194529.326000", "194529.330000", "194529.333000", "194529.336000", "194529.340000", "194529.343000", "194529.346000", "194529.349000", "194529.353000", "194529.356000", "194529.359000", "194529.363000", "194529.366000", "194529.369000", "194529.372000", "194529.376000", "194529.379000", "194529.382000", "194529.395000", "194529.399000", "194529.402000", "194529.412000", "194529.415000", "194529.418000", "194529.421000", "194529.425000", "194529.428000", "194529.431000", "194529.435000", "194529.438000", "194529.441000", "194529.444000", "194529.448000", "194529.451000", "194529.454000", "194549.285000", "194549.289000", "194549.292000", "194549.296000", "194549.299000", "194549.302000", "194549.305000", "194549.309000", "194549.312000", "194549.315000", "194549.318000", "194549.322000", "194549.325000", "194549.328000", "194549.331000", "194549.335000", "194549.338000", "194549.341000", "194549.345000", "194549.348000", "194609.284000", "194609.288000", "194609.291000", "194609.294000", "194609.298000", "194609.301000", "194609.304000", "194609.307000", "194609.311000", "194609.314000", "194609.317000", "194609.321000", "194609.324000", "194609.328000", "194609.331000", "194609.334000", "194609.337000", "194609.341000", "194609.344000", "194609.347000", "194629.284000", "194629.288000", "194629.291000", "194629.294000", "194629.297000", "194629.301000", "194629.304000", "194629.307000", "194629.311000", "194629.314000", "194629.317000", "194629.321000", "194629.324000", "194629.327000", "194629.330000", "194629.334000", "194629.337000", "194629.340000", "194629.344000", "194629.347000", "194709.284000", "194709.288000", "194709.291000", "194709.294000", "194709.298000", "194709.301000", "194709.304000", "194709.308000", "194709.311000", "194709.314000", "194709.317000", "194709.321000", "194709.324000", "194709.327000", "194709.330000", "194709.334000", "194709.337000", "194709.340000", "194709.344000", "194709.347000", "194709.350000", "194709.354000", "194709.357000", "194709.360000", "194709.378000", "194709.382000", "194709.385000", "194709.388000", "194749.284000", "194749.288000", "194749.291000", "194749.294000", "194749.298000", "194749.301000", "194749.304000", "194749.307000", "194749.311000", "194749.314000", "194749.317000", "194749.321000", "194749.324000", "194749.327000", "194749.330000", "194749.334000", "194749.337000", "194749.340000", "194749.344000", "194749.347000", "194749.350000", "194749.354000", "194749.357000", "194749.360000", "194749.364000", "194749.367000", "194749.370000", "194809.285000", "194809.289000", "194809.292000", "194809.296000", "194809.299000", "194809.302000", "194809.306000", "194809.309000", "194809.312000", "194809.316000", "194809.319000", "194809.322000", "194809.326000", "194849.284000", "194849.288000", "194849.291000", "194849.294000", "194849.298000", "194849.301000", "194849.304000", "194849.308000", "194849.311000", "194849.314000", "194849.318000", "194849.321000", "194849.324000", "194849.328000", "194849.331000", "194849.334000", "194849.337000", "194849.341000", "194849.344000", "194849.347000", "194849.351000", "194849.354000", "194849.357000", "194849.361000", "194849.364000", "194849.367000", "194849.370000", "194929.284000", "194929.288000", "194929.291000", "194929.294000", "194929.298000", "194929.301000", "194929.304000", "194929.308000", "194929.311000", "194929.314000", "194929.318000", "194929.321000", "194929.324000", "194929.327000", "194929.331000", "194929.334000", "194929.337000", "194929.341000", "194929.344000", "194929.347000", "194929.351000", "194929.354000", "194929.357000", "194929.360000", "194929.364000", "194929.367000", "194929.370000", "195009.284000", "195009.288000", "195009.292000", "195009.295000", "195009.298000", "195009.302000", "195009.305000", "195009.309000", "195009.312000", "195009.315000", "195009.319000", "195009.322000", "195009.325000", "195009.329000", "195009.332000", "195009.336000", "195009.339000", "195009.342000", "195009.346000", "195009.349000", "195009.353000", "195009.356000", "195009.359000", "195009.362000", "195009.366000", "195009.369000", "195009.373000", "195049.284000", "195049.288000", "195049.291000", "195049.295000", "195049.298000", "195049.301000", "195049.305000", "195049.308000", "195049.311000", "195049.315000", "195049.318000", "195049.321000", "195049.324000", "195049.328000", "195049.331000", "195049.334000", "195049.338000", "195049.341000", "195049.344000", "195049.348000", "195049.351000", "195049.354000", "195049.358000", "195049.361000", "195049.364000", "195049.367000", "195049.371000", "195129.284000", "195129.288000", "195129.291000", "195129.294000", "195129.298000", "195129.301000", "195129.304000", "195129.308000", "195129.311000", "195129.314000", "195129.318000", "195129.321000", "195129.324000", "195129.328000", "195129.331000", "195129.334000", "195129.338000", "195129.341000", "195129.344000", "195129.347000", "195129.351000", "195129.354000", "195129.357000", "195129.361000", "195129.364000", "195129.368000", "195209.284000", "195209.288000", "195209.291000", "195209.295000", "195209.298000", "195209.301000", "195209.305000", "195209.308000", "195209.311000", "195209.332000", "195209.335000", "195209.338000", "195209.342000", "195209.345000", "195209.348000", "195209.352000", "195209.355000", "195209.358000", "195209.362000", "195209.365000", "195209.368000", "195209.372000", "195209.375000", "195209.378000", "195209.382000", "195209.385000", "195209.388000", "195249.285000", "195249.289000", "195249.292000", "195249.295000", "195249.299000", "195249.302000", "195249.305000", "195249.309000", "195249.312000", "195249.316000", "195249.319000", "195249.322000", "195249.325000", "195249.329000", "195249.332000", "195249.335000", "195249.339000", "195249.342000", "195249.345000", "195249.348000", "195249.352000", "195249.355000", "195249.358000", "195249.362000", "195249.365000", "195249.368000", "195249.372000", "195329.284000", "195329.288000", "195329.291000", "195329.294000", "195329.298000", "195329.301000", "195329.304000", "195329.308000", "195329.311000", "195329.314000", "195329.318000", "195329.321000", "195329.324000", "195329.327000", "195329.331000", "195329.334000", "195329.337000", "195329.341000", "195329.344000", "195329.347000", "195329.351000", "195329.354000", "195329.357000", "195329.360000", "195329.364000", "195329.367000", "195329.370000", "195409.284000", "195409.288000", "195409.291000", "195409.295000", "195409.298000", "195409.301000", "195409.304000", "195409.308000", "195409.311000", "195409.314000", "195409.318000", "195409.321000", "195409.324000", "195409.328000", "195409.331000", "195409.334000", "195409.338000", "195409.341000", "195409.345000", "195409.348000", "195409.365000", "195409.368000", "195409.371000", "195409.374000", "195409.378000", "195409.381000", "195409.384000", "195449.284000", "195449.288000", "195449.291000", "195449.295000", "195449.298000", "195449.301000", "195449.305000", "195449.308000", "195449.311000", "195449.315000", "195449.318000", "195449.321000", "195449.324000", "195449.328000", "195449.331000", "195449.334000", "195449.338000", "195449.341000", "195449.344000", "195449.348000", "195449.351000", "195449.354000", "195449.357000", "195449.361000", "195449.364000", "195449.367000", "195449.370000", "195526.323000", "195526.327000", "195526.330000", "195526.333000", "195526.337000", "195526.340000", "195526.343000", "195526.346000", "195526.350000", "195526.353000", "195526.356000", "195526.360000", "195526.363000", "195526.366000", "195526.370000", "195526.373000", "195526.376000", "195526.379000", "195526.383000", "195526.386000", "195526.389000", "195526.393000", "195526.396000", "195526.399000"],
