{
  "AcquisitionMatrixPE": 104,
  "AcquisitionNumber": 1,
  "AcquisitionTime": "19:30:37.207500",
  "BandwidthPerPixelPhaseEncode": 17.17,
  "BaseResolution": 104,
  "BodyPartExamined": "BRAIN",
  "CoilCombinationMethod": "Sum of Squares",
  "ConsistencyInfo": "N4_VE11C_LATEST_20160120",
  "ConversionSoftware": "dcm2niix",
  "ConversionSoftwareVersion": "v1.0.20220505",
  "DerivedVendorReportedEchoSpacing": 0.000560011,
  "DeviceSerialNumber": "167006",
  "DwellTime": 2.1e-06,
  "EchoTime": 0.037,
  "EchoTime1": 0.037,
  "EchoTime2": 0.001,
  "EchoTrainLength": 104,
  "EffectiveEchoSpacing": 0.000560011,
  "FlipAngle": 52,
  "HeudiconvVersion": "0.5.3.post811+g6206e14",
  "ImageComments": "Unaliased MB4/PE3/LB",
  "ImageOrientationPatientDICOM": [0.99996, -0.00889186, 0.00118205, 0.00872654, 0.933828, -0.357615],
  "ImageOrientationText": "Tra>Cor(-21.0)>Sag(-0.1)",
  "ImageType": [
    "ORIGINAL",
    "PRIMARY",
    "P",
    "MB",
    "ND",
    "MOSAIC",
    "PHASE"
],
  "ImagingFrequency": 123.26,
  "InPlanePhaseEncodingDirectionDICOM": "COL",
  "InstitutionAddress": "Chemin Queen-Mary 4565,Montreal,District,CA,H3W 1W5",
  "InstitutionName": "IUGM",
  "InstitutionalDepartmentName": "Department",
  "MRAcquisitionType": "2D",
  "MagneticFieldStrength": 3,
  "Manufacturer": "Siemens",
  "ManufacturersModelName": "Prisma_fit",
  "MatrixCoilMode": "SENSE",
  "Modality": "MR",
  "MultibandAccelerationFactor": 4,
  "PartialFourier": 1,
  "PatientPosition": "HFS",
  "PercentPhaseFOV": 100,
  "PercentSampling": 100,
  "PhaseEncodingDirection": "j",
  "PhaseEncodingSteps": 104,
  "PhaseResolution": 1,
  "PixelBandwidth": 2290,
  "ProcedureStepDescription": "games^mariostars",
  "ProtocolName": "func_task-mariostars_run-04",
  "PulseSequenceDetails": "%CustomerSeq%\\cmrr_mbep2d_bold",
  "ReceiveCoilActiveElements": "HC1-7;NC1,2",
  "ReceiveCoilName": "HeadNeck_64",
  "ReconMatrixPE": 104,
  "RepetitionTime": 1.49,
  "SAR": 0.0816553,
  "ScanOptions": "FS",
  "ScanningSequence": "EP",
  "SequenceName": "epfid2d1_104",
  "SequenceVariant": "SK\\SS",
  "SeriesDescription": "func_task-mariostars_run-04",
  "SeriesNumber": 21,
  "ShimSetting": [591, -7263, -8827, 450, -14, -322, 14, 55],
  "SliceThickness": 2,
  "SliceTiming": [0, 0.7825, 0.0975, 0.88, 0.195, 0.98, 0.2925, 1.0775, 0.3925, 1.175, 0.49, 1.2725, 0.5875, 1.37, 0.685, 0, 0.7825, 0.0975, 0.88, 0.195, 0.98, 0.2925, 1.0775, 0.3925, 1.175, 0.49, 1.2725, 0.5875, 1.37, 0.685, 0, 0.7825, 0.0975, 0.88, 0.195, 0.98, 0.2925, 1.0775, 0.3925, 1.175, 0.49, 1.2725, 0.5875, 1.37, 0.685, 0, 0.7825, 0.0975, 0.88, 0.195, 0.98, 0.2925, 1.0775, 0.3925, 1.175, 0.49, 1.2725, 0.5875, 1.37, 0.685],
  "SoftwareVersions": "syngo MR E11",
  "SpacingBetweenSlices": 2,
  "StationName": "MRC35049",
  "TaskName": "mariostars",
  "TotalReadoutTime": 0.0576811,
  "TxRefAmp": 304.936,
  "WipMemBlock": "de9533bc-c3c3-4d2f-8e13-8921d961a08e||Sequence: R017 ve11c/master r/75a17815+; Jun 28 2022 16:32:11 by eja",
  "dcmmeta_affine": [
    [-1.9999195337295532, 0.017453081905841827, -0.004152067471295595, 102.75474548339844],
    [0.017783720046281815, 1.8676563501358032, -0.7152225971221924, -69.07616424560547],
    [0.0023641011212021112, 0.7152307033538818, 1.8677364587783813, -64.69792175292969],
    [0.0, 0.0, 0.0, 1.0]
],
  "dcmmeta_reorient_transform": [
    [0.0, -1.0, 0.0, 103.0],
    [1.0, 0.0, 0.0, 0.0],
    [0.0, 0.0, 1.0, 0.0],
    [0.0, 0.0, 0.0, 1.0]
],
  "dcmmeta_shape": [104, 104, 60, 488],
  "dcmmeta_slice_dim": 2,
  "dcmmeta_version": 0.6,
  "global": {
    "const": {
      "AcquisitionMatrix": [104, 0, 0, 104],
      "AngioFlag": "N",
      "BitsAllocated": 16,
      "BitsStored": 16,
      "BodyPartExamined": "BRAIN",
      "Columns": 832,
      "EchoNumbers": 1,
      "EchoTime": 37.0,
      "EchoTrainLength": 104,
      "FlipAngle": 52.0,
      "HighBit": 15,
      "ImageOrientationPatient": [0.99995976797787, -0.0088918604369, 0.00118205060004, 0.00872654053164, 0.93382819600379, -0.3576153629791],
      "ImagePositionPatient": [-838.87604753118, -796.64609697232, 268.45429125946],
      "ImageType": [
        "ORIGINAL",
        "PRIMARY",
        "P",
        "MB",
        "ND",
        "MOSAIC"
],
      "ImagedNucleus": "1H",
      "ImagingFrequency": 123.260223,
      "InPlanePhaseEncodingDirection": "COL",
      "LargestImagePixelValue": 4095,
      "MRAcquisitionType": "2D",
      "MagneticFieldStrength": 3.0,
      "Manufacturer": "SIEMENS",
      "ManufacturerModelName": "Prisma_fit",
      "Modality": "MR",
      "NumberOfAverages": 1.0,
      "NumberOfPhaseEncodingSteps": 104,
      "PercentPhaseFieldOfView": 100.0,
      "PercentSampling": 100.0,
      "PerformedProcedureStepStartTime": "184718.473000",
      "PhotometricInterpretation": "MONOCHROME2",
      "PixelBandwidth": 2290.0,
      "PixelRepresentation": 0,
      "PixelSpacing": [2.0, 2.0],
      "ProtocolName": "func_task-mariostars_run-04",
      "RepetitionTime": 1490.0,
      "RescaleIntercept": -4096.0,
      "RescaleSlope": 2.0,
      "RescaleType": "US",
      "Rows": 832,
      "SAR": 0.08165525966676,
      "SamplesPerPixel": 1,
      "ScanOptions": "FS",
      "ScanningSequence": "EP",
      "SequenceName": "epfid2d1_104",
      "SequenceVariant": [
        "SK",
        "SS"
],
      "SeriesDescription": "func_task-mariostars_run-04",
      "SeriesNumber": 21,
      "SeriesTime": "193207.233000",
      "SliceLocation": -35.930242349361,
      "SliceThickness": 2.0,
      "SmallestImagePixelValue": 0,
      "SoftwareVersions": "syngo MR E11",
      "SpacingBetweenSlices": 2.0000000425882,
      "SpecificCharacterSet": "ISO_IR 100",
      "StudyID": "1",
      "StudyTime": "184718.409000",
      "TransmitCoilName": "Body",
      "VariableFlipAngleFlag": "N",
      "WindowCenterWidthExplanation": "Algo1",
      "dBdt": 0.0},
    "slices": {}
  },
  "time": {
    "samples": {
      "AcquisitionNumber": [1, 2, 3, 4, 5, 6, 7, 8, 9, 10, 11, 12, 13, 14, 15, 16, 17, 18, 19, 20, 21, 22, 23, 24, 25, 26, 27, 28, 29, 30, 31, 32, 33, 34, 35, 36, 37, 38, 39, 40, 41, 42, 43, 44, 45, 46, 47, 48, 49, 50, 51, 52, 53, 54, 55, 56, 57, 58, 59, 60, 61, 62, 63, 64, 65, 66, 67, 68, 69, 70, 71, 72, 73, 74, 75, 76, 77, 78, 79, 80, 81, 82, 83, 84, 85, 86, 87, 88, 89, 90, 91, 92, 93, 94, 95, 96, 97, 98, 99, 100, 101, 102, 103, 104, 105, 106, 107, 108, 109, 110, 111, 112, 113, 114, 115, 116, 117, 118, 119, 120, 121, 122, 123, 124, 125, 126, 127, 128, 129, 130, 131, 132, 133, 134, 135, 136, 137, 138, 139, 140, 141, 142, 143, 144, 145, 146, 147, 148, 149, 150, 151, 152, 153, 154, 155, 156, 157, 158, 159, 160, 161, 162, 163, 164, 165, 166, 167, 168, 169, 170, 171, 172, 173, 174, 175, 176, 177, 178, 179, 180, 181, 182, 183, 184, 185, 186, 187, 188, 189, 190, 191, 192, 193, 194, 195, 196, 197, 198, 199, 200, 201, 202, 203, 204, 205, 206, 207, 208, 209, 210, 211, 212, 213, 214, 215, 216, 217, 218, 219, 220, 221, 222, 223, 224, 225, 226, 227, 228, 229, 230, 231, 232, 233, 234, 235, 236, 237, 238, 239, 240, 241, 242, 243, 244, 245, 246, 247, 248, 249, 250, 251, 252, 253, 254, 255, 256, 257, 258, 259, 260, 261, 262, 263, 264, 265, 266, 267, 268, 269, 270, 271, 272, 273, 274, 275, 276, 277, 278, 279, 280, 281, 282, 283, 284, 285, 286, 287, 288, 289, 290, 291, 292, 293, 294, 295, 296, 297, 298, 299, 300, 301, 302, 303, 304, 305, 306, 307, 308, 309, 310, 311, 312, 313, 314, 315, 316, 317, 318, 319, 320, 321, 322, 323, 324, 325, 326, 327, 328, 329, 330, 331, 332, 333, 334, 335, 336, 337, 338, 339, 340, 341, 342, 343, 344, 345, 346, 347, 348, 349, 350, 351, 352, 353, 354, 355, 356, 357, 358, 359, 360, 361, 362, 363, 364, 365, 366, 367, 368, 369, 370, 371, 372, 373, 374, 375, 376, 377, 378, 379, 380, 381, 382, 383, 384, 385, 386, 387, 388, 389, 390, 391, 392, 393, 394, 395, 396, 397, 398, 399, 400, 401, 402, 403, 404, 405, 406, 407, 408, 409, 410, 411, 412, 413, 414, 415, 416, 417, 418, 419, 420, 421, 422, 423, 424, 425, 426, 427, 428, 429, 430, 431, 432, 433, 434, 435, 436, 437, 438, 439, 440, 441, 442, 443, 444, 445, 446, 447, 448, 449, 450, 451, 452, 453, 454, 455, 456, 457, 458, 459, 460, 461, 462, 463, 464, 465, 466, 467, 468, 469, 470, 471, 472, 473, 474, 475, 476, 477, 478, 479, 480, 481, 482, 483, 484, 485, 486, 487, 488],
      "AcquisitionTime": ["193037.207500", "193038.697500", "193040.187500", "193041.677500", "193043.167500", "193044.657500", "193046.147500", "193047.637500", "193049.127500", "193050.617500", "193052.107500", "193053.597500", "193055.087500", "193056.577500", "193058.067500", "193059.557500", "193101.047500", "193102.537500", "193104.027500", "193105.517500", "193107.007500", "193108.497500", "193109.987500", "193111.477500", "193112.967500", "193114.457500", "193115.947500", "193117.437500", "193118.927500", "193120.417500", "193121.907500", "193123.397500", "193124.887500", "193126.377500", "193127.867500", "193129.357500", "193130.847500", "193132.337500", "193133.827500", "193135.317500", "193136.807500", "193138.297500", "193139.787500", "193141.277500", "193142.767500", "193144.257500", "193145.747500", "193147.237500", "193148.727500", "193150.217500", "193151.707500", "193153.197500", "193154.687500", "193156.177500", "193157.667500", "193159.157500", "193200.647500", "193202.137500", "193203.627500", "193205.117500", "193206.607500", "193208.097500", "193209.587500", "193211.077500", "193212.567500", "193214.057500", "193215.547500", "193217.037500", "193218.527500", "193220.017500", "193221.507500", "193222.997500", "193224.487500", "193225.977500", "193227.467500", "193228.957500", "193230.447500", "193231.937500", "193233.427500", "193234.917500", "193236.407500", "193237.897500", "193239.387500", "193240.877500", "193242.367500", "193243.857500", "193245.347500", "193246.837500", "193248.327500", "193249.817500", "193251.307500", "193252.797500", "193254.287500", "193255.777500", "193257.267500", "193258.757500", "193300.247500", "193301.737500", "193303.227500", "193304.717500", "193306.207500", "193307.697500", "193309.187500", "193310.677500", "193312.167500", "193313.657500", "193315.147500", "193316.637500", "193318.127500", "193319.617500", "193321.107500", "193322.597500", "193324.087500", "193325.577500", "193327.067500", "193328.557500", "193330.047500", "193331.537500", "193333.027500", "193334.517500", "193336.007500", "193337.497500", "193338.987500", "193340.477500", "193341.967500", "193343.457500", "193344.947500", "193346.437500", "193347.927500", "193349.417500", "193350.907500", "193352.397500", "193353.887500", "193355.377500", "193356.867500", "193358.357500", "193359.847500", "193401.337500", "193402.827500", "193404.317500", "193405.807500", "193407.297500", "193408.787500", "193410.277500", "193411.767500", "193413.257500", "193414.747500", "193416.237500", "193417.727500", "193419.217500", "193420.707500", "193422.197500", "193423.687500", "193425.177500", "193426.667500", "193428.157500", "193429.647500", "193431.137500", "193432.627500", "193434.117500", "193435.607500", "193437.097500", "193438.587500", "193440.077500", "193441.567500", "193443.057500", "193444.547500", "193446.037500", "193447.527500", "193449.017500", "193450.507500", "193451.997500", "193453.487500", "193454.977500", "193456.467500", "193457.957500", "193459.447500", "193500.937500", "193502.427500", "193503.917500", "193505.407500", "193506.897500", "193508.387500", "193509.877500", "193511.367500", "193512.857500", "193514.347500", "193515.837500", "193517.327500", "193518.817500", "193520.307500", "193521.797500", "193523.287500", "193524.777500", "193526.267500", "193527.757500", "193529.247500", "193530.737500", "193532.227500", "193533.717500", "193535.207500", "193536.697500", "193538.187500", "193539.677500", "193541.167500", "193542.657500", "193544.147500", "193545.637500", "193547.127500", "193548.617500", "193550.107500", "193551.597500", "193553.087500", "193554.577500", "193556.067500", "193557.557500", "193559.047500", "193600.537500", "193602.027500", "193603.517500", "193605.007500", "193606.497500", "193607.987500", "193609.477500", "193610.967500", "193612.457500", "193613.947500", "193615.437500", "193616.927500", "193618.417500", "193619.907500", "193621.397500", "193622.887500", "193624.377500", "193625.867500", "193627.357500", "193628.847500", "193630.337500", "193631.827500", "193633.317500", "193634.807500", "193636.297500", "193637.787500", "193639.277500", "193640.767500", "193642.257500", "193643.747500", "193645.237500", "193646.727500", "193648.217500", "193649.707500", "193651.197500", "193652.687500", "193654.177500", "193655.667500", "193657.157500", "193658.647500", "193700.137500", "193701.627500", "193703.117500", "193704.607500", "193706.097500", "193707.587500", "193709.077500", "193710.567500", "193712.057500", "193713.547500", "193715.037500", "193716.527500", "193718.017500", "193719.507500", "193720.997500", "193722.487500", "193723.977500", "193725.467500", "193726.957500", "193728.447500", "193729.937500", "193731.427500", "193732.917500", "193734.407500", "193735.897500", "193737.387500", "193738.877500", "193740.367500", "193741.857500", "193743.347500", "193744.837500", "193746.327500", "193747.817500", "193749.307500", "193750.797500", "193752.287500", "193753.777500", "193755.267500", "193756.757500", "193758.247500", "193759.737500", "193801.227500", "193802.717500", "193804.207500", "193805.697500", "193807.187500", "193808.677500", "193810.167500", "193811.657500", "193813.147500", "193814.637500", "193816.127500", "193817.617500", "193819.107500", "193820.597500", "193822.087500", "193823.577500", "193825.067500", "193826.557500", "193828.047500", "193829.537500", "193831.027500", "193832.517500", "193834.007500", "193835.497500", "193836.987500", "193838.477500", "193839.967500", "193841.457500", "193842.947500", "193844.437500", "193845.927500", "193847.417500", "193848.907500", "193850.397500", "193851.887500", "193853.377500", "193854.867500", "193856.357500", "193857.847500", "193859.337500", "193900.827500", "193902.317500", "193903.807500", "193905.297500", "193906.787500", "193908.277500", "193909.767500", "193911.257500", "193912.747500", "193914.237500", "193915.727500", "193917.217500", "193918.707500", "193920.197500", "193921.687500", "193923.177500", "193924.667500", "193926.157500", "193927.647500", "193929.137500", "193930.627500", "193932.117500", "193933.607500", "193935.097500", "193936.587500", "193938.077500", "193939.567500", "193941.057500", "193942.547500", "193944.037500", "193945.527500", "193947.017500", "193948.507500", "193949.997500", "193951.487500", "193952.977500", "193954.467500", "193955.957500", "193957.447500", "193958.937500", "194000.427500", "194001.917500", "194003.407500", "194004.897500", "194006.387500", "194007.877500", "194009.367500", "194010.857500", "194012.347500", "194013.837500", "194015.327500", "194016.817500", "194018.307500", "194019.797500", "194021.287500", "194022.777500", "194024.267500", "194025.757500", "194027.247500", "194028.737500", "194030.227500", "194031.717500", "194033.207500", "194034.697500", "194036.187500", "194037.677500", "194039.167500", "194040.657500", "194042.147500", "194043.637500", "194045.127500", "194046.617500", "194048.107500", "194049.597500", "194051.087500", "194052.577500", "194054.067500", "194055.557500", "194057.047500", "194058.537500", "194100.027500", "194101.517500", "194103.007500", "194104.497500", "194105.987500", "194107.477500", "194108.967500", "194110.457500", "194111.947500", "194113.437500", "194114.927500", "194116.417500", "194117.907500", "194119.397500", "194120.887500", "194122.377500", "194123.867500", "194125.357500", "194126.847500", "194128.337500", "194129.827500", "194131.317500", "194132.807500", "194134.297500", "194135.787500", "194137.277500", "194138.767500", "194140.257500", "194141.747500", "194143.237500", "194144.727500", "194146.217500", "194147.707500", "194149.197500", "194150.687500", "194152.177500", "194153.667500", "194155.157500", "194156.647500", "194158.137500", "194159.627500", "194201.117500", "194202.607500", "194204.097500", "194205.587500", "194207.077500", "194208.567500", "194210.057500", "194211.547500", "194213.037500", "194214.527500", "194216.017500", "194217.507500", "194218.997500", "194220.487500", "194221.977500", "194223.467500", "194224.957500", "194226.447500", "194227.937500", "194229.427500", "194230.917500", "194232.407500", "194233.897500", "194235.387500", "194236.877500", "194238.367500", "194239.857500", "194241.347500", "194242.837500"],
      "ContentTime": ["193207.235000", "193207.237000", "193207.240000", "193207.248000", "193207.251000", "193207.253000", "193207.256000", "193207.258000", "193207.261000", "193207.263000", "193207.266000", "193207.268000", "193207.271000", "193207.273000", "193207.276000", "193207.278000", "193207.280000", "193207.283000", "193207.285000", "193207.288000", "193207.290000", "193207.293000", "193207.295000", "193207.298000", "193207.300000", "193207.303000", "193207.305000", "193207.307000", "193207.310000", "193207.312000", "193207.315000", "193207.317000", "193207.320000", "193207.322000", "193207.325000", "193207.327000", "193207.330000", "193207.332000", "193207.335000", "193227.112000", "193227.115000", "193227.117000", "193227.120000", "193227.122000", "193227.125000", "193227.127000", "193227.143000", "193227.145000", "193227.148000", "193227.150000", "193227.155000", "193227.157000", "193227.160000", "193227.162000", "193227.165000", "193227.167000", "193227.170000", "193227.172000", "193227.175000", "193247.122000", "193247.125000", "193247.127000", "193247.130000", "193247.132000", "193247.135000", "193247.137000", "193247.140000", "193247.142000", "193247.145000", "193247.147000", "193247.150000", "193247.152000", "193247.155000", "193247.157000", "193247.159000", "193247.162000", "193247.164000", "193247.167000", "193247.169000", "193307.115000", "193307.118000", "193307.120000", "193307.123000", "193307.125000", "193307.128000", "193307.130000", "193307.133000", "193307.135000", "193307.138000", "193307.140000", "193307.143000", "193307.145000", "193307.148000", "193307.150000", "193307.153000", "193307.155000", "193307.158000", "193307.160000", "193307.163000", "193347.157000", "193347.160000", "193347.162000", "193347.165000", "193347.167000", "193347.170000", "193347.172000", "193347.175000", "193347.177000", "193347.180000", "193347.182000", "193347.185000", "193347.187000", "193347.190000", "193347.192000", "193347.195000", "193347.197000", "193347.200000", "193347.202000", "193347.205000", "193347.207000", "193347.210000", "193347.212000", "193347.215000", "193347.217000", "193347.220000", "193347.222000", "193347.225000", "193427.154000", "193427.157000", "193427.160000", "193427.162000", "193427.165000", "193427.167000", "193427.170000", "193427.172000", "193427.175000", "193427.177000", "193427.180000", "193427.182000", "193427.185000", "193427.187000", "193427.190000", "193427.192000", "193427.195000", "193427.197000", "193427.200000", "193427.202000", "193427.205000", "193427.207000", "193427.210000", "193427.212000", "193427.215000", "193427.217000", "193507.601000", "193507.604000", "193507.606000", "193507.609000", "193507.611000", "193507.614000", "193507.616000", "193507.619000", "193507.622000", "193507.625000", "193507.627000", "193507.630000", "193507.632000", "193507.635000", "193507.637000", "193507.640000", "193507.642000", "193507.645000", "193507.647000", "193507.650000", "193507.652000", "193507.655000", "193507.657000", "193507.660000", "193507.662000", "193507.665000", "193507.667000", "193547.152000", "193547.155000", "193547.157000", "193547.160000", "193547.162000", "193547.165000", "193547.167000", "193547.170000", "193547.172000", "193547.175000", "193547.177000", "193547.180000", "193547.182000", "193547.185000", "193547.187000", "193547.190000", "193547.192000", "193547.195000", "193547.197000", "193547.200000", "193547.202000", "193547.205000", "193547.207000", "193547.210000", "193547.212000", "193547.215000", "193547.217000", "193627.154000", "193627.157000", "193627.159000", "193627.162000", "193627.164000", "193627.167000", "193627.169000", "193627.172000", "193627.174000", "193627.177000", "193627.179000", "193627.182000", "193627.184000", "193627.187000", "193627.189000", "193627.192000", "193627.194000", "193627.197000", "193627.199000", "193627.202000", "193627.204000", "193627.207000", "193627.209000", "193627.212000", "193627.214000", "193627.217000", "193627.219000", "193707.163000", "193707.166000", "193707.168000", "193707.171000", "193707.173000", "193707.176000", "193707.178000", "193707.181000", "193707.183000", "193707.186000", "193707.188000", "193707.191000", "193707.193000", "193707.196000", "193707.198000", "193707.201000", "193707.203000", "193707.205000", "193707.208000", "193707.210000", "193707.213000", "193707.216000", "193707.218000", "193707.221000", "193707.223000", "193707.225000", "193707.228000", "193747.165000", "193747.168000", "193747.170000", "193747.173000", "193747.175000", "193747.178000", "193747.181000", "193747.183000", "193747.186000", "193747.188000", "193747.191000", "193747.193000", "193747.196000", "193747.198000", "193747.201000", "193747.203000", "193747.205000", "193747.208000", "193747.211000", "193747.213000", "193747.216000", "193747.218000", "193747.221000", "193747.223000", "193747.226000", "193747.228000", "193747.231000", "193807.100000", "193807.103000", "193807.105000", "193807.108000", "193807.110000", "193807.113000", "193807.115000", "193807.118000", "193807.120000", "193807.123000", "193807.125000", "193807.128000", "193807.130000", "193847.154000", "193847.157000", "193847.159000", "193847.162000", "193847.164000", "193847.167000", "193847.169000", "193847.172000", "193847.174000", "193847.177000", "193847.179000", "193847.182000", "193847.184000", "193847.187000", "193847.189000", "193847.192000", "193847.194000", "193847.197000", "193847.202000", "193847.205000", "193847.208000", "193847.210000", "193847.213000", "193847.215000", "193847.218000", "193847.220000", "193847.223000", "193927.169000", "193927.172000", "193927.174000", "193927.177000", "193927.179000", "193927.182000", "193927.184000", "193927.187000", "193927.189000", "193927.192000", "193927.194000", "193927.197000", "193927.199000", "193927.202000", "193927.204000", "193927.207000", "193927.209000", "193927.212000", "193927.214000", "193927.217000", "193927.219000", "193927.222000", "193927.224000", "193927.227000", "193927.229000", "193927.232000", "193927.234000", "194007.160000", "194007.163000", "194007.165000", "194007.168000", "194007.170000", "194007.173000", "194007.175000", "194007.178000", "194007.180000", "194007.183000", "194007.185000", "194007.188000", "194007.190000", "194007.193000", "194007.195000", "194007.198000", "194007.200000", "194007.203000", "194007.205000", "194007.208000", "194007.210000", "194007.213000", "194007.215000", "194007.218000", "194007.220000", "194007.223000", "194007.225000", "194047.151000", "194047.154000", "194047.156000", "194047.159000", "194047.161000", "194047.164000", "194047.167000", "194047.170000", "194047.174000", "194047.176000", "194047.179000", "194047.181000", "194047.184000", "194047.186000", "194047.189000", "194047.191000", "194047.194000", "194047.196000", "194047.199000", "194047.201000", "194047.204000", "194047.207000", "194047.209000", "194047.212000", "194047.214000", "194047.217000", "194127.160000", "194127.163000", "194127.165000", "194127.168000", "194127.170000", "194127.173000", "194127.175000", "194127.178000", "194127.180000", "194127.183000", "194127.185000", "194127.188000", "194127.190000", "194127.193000", "194127.195000", "194127.198000", "194127.200000", "194127.203000", "194127.205000", "194127.208000", "194127.210000", "194127.213000", "194127.215000", "194127.218000", "194127.220000", "194127.223000", "194127.225000", "194207.150000", "194207.153000", "194207.156000", "194207.158000", "194207.161000", "194207.163000", "194207.166000", "194207.168000", "194207.171000", "194207.173000", "194207.176000", "194207.178000", "194207.181000", "194207.183000", "194207.186000", "194207.188000", "194207.191000", "194207.193000", "194207.196000", "194207.198000", "194207.201000", "194207.203000", "194207.206000", "194207.208000", "194207.211000", "194207.213000", "194207.216000", "194246.320000", "194246.323000", "194246.325000", "194246.328000", "194246.330000", "194246.333000", "194246.335000", "194246.338000", "194246.340000", "194246.343000", "194246.345000", "194246.348000", "194246.350000", "194246.353000", "194246.355000", "194246.358000", "194246.360000", "194246.363000", "194246.365000", "194246.368000", "194246.371000", "194246.373000", "194246.376000", "194246.378000", "194246.381000", "194246.383000"],
