{
  "AcquisitionMatrixPE": 104,
  "AcquisitionNumber": 1,
  "AcquisitionTime": "18:51:30.675000",
  "BandwidthPerPixelPhaseEncode": 17.17,
  "BaseResolution": 104,
  "BodyPartExamined": "BRAIN",
  "CoilCombinationMethod": "Sum of Squares",
  "ConsistencyInfo": "N4_VE11C_LATEST_20160120",
  "ConversionSoftware": "dcm2niix",
  "ConversionSoftwareVersion": "v1.0.20220505",
  "DerivedVendorReportedEchoSpacing": 0.000560011,
  "DeviceSerialNumber": "167006",
  "DwellTime": 2.1e-06,
  "EchoTime": 0.037,
  "EchoTime1": 0.037,
  "EchoTime2": 0.001,
  "EchoTrainLength": 104,
  "EffectiveEchoSpacing": 0.000560011,
  "FlipAngle": 52,
  "HeudiconvVersion": "0.5.3.post811+g6206e14",
  "ImageComments": "Unaliased MB4/PE3/LB",
  "ImageOrientationPatientDICOM": [0.99996, -0.00889186, 0.00118205, 0.00872654, 0.933828, -0.357615],
  "ImageOrientationText": "Tra>Cor(-21.0)>Sag(-0.1)",
  "ImageType": [
    "ORIGINAL",
    "PRIMARY",
    "P",
    "MB",
    "ND",
    "MOSAIC",
    "PHASE"
],
  "ImagingFrequency": 123.26,
  "InPlanePhaseEncodingDirectionDICOM": "COL",
  "InstitutionAddress": "Chemin Queen-Mary 4565,Montreal,District,CA,H3W 1W5",
  "InstitutionName": "IUGM",
  "InstitutionalDepartmentName": "Department",
  "MRAcquisitionType": "2D",
  "MagneticFieldStrength": 3,
  "Manufacturer": "Siemens",
  "ManufacturersModelName": "Prisma_fit",
  "MatrixCoilMode": "SENSE",
  "Modality": "MR",
  "MultibandAccelerationFactor": 4,
  "PartialFourier": 1,
  "PatientPosition": "HFS",
  "PercentPhaseFOV": 100,
  "PercentSampling": 100,
  "PhaseEncodingDirection": "j",
  "PhaseEncodingSteps": 104,
  "PhaseResolution": 1,
  "PixelBandwidth": 2290,
  "ProcedureStepDescription": "games^mariostars",
  "ProtocolName": "func_task-mariostars_run-01",
  "PulseSequenceDetails": "%CustomerSeq%\\cmrr_mbep2d_bold",
  "ReceiveCoilActiveElements": "HC1-7;NC1,2",
  "ReceiveCoilName": "HeadNeck_64",
  "ReconMatrixPE": 104,
  "RepetitionTime": 1.49,
  "SAR": 0.0816553,
  "ScanOptions": "FS",
  "ScanningSequence": "EP",
  "SequenceName": "epfid2d1_104",
  "SequenceVariant": "SK\\SS",
  "SeriesDescription": "func_task-mariostars_run-01",
  "SeriesNumber": 12,
  "ShimSetting": [591, -7263, -8827, 450, -14, -322, 14, 55],
  "SliceThickness": 2,
  "SliceTiming": [0, 0.7825, 0.0975, 0.8825, 0.195, 0.98, 0.2925, 1.0775, 0.3925, 1.175, 0.49, 1.2725, 0.5875, 1.3725, 0.685, 0, 0.7825, 0.0975, 0.8825, 0.195, 0.98, 0.2925, 1.0775, 0.3925, 1.175, 0.49, 1.2725, 0.5875, 1.3725, 0.685, 0, 0.7825, 0.0975, 0.8825, 0.195, 0.98, 0.2925, 1.0775, 0.3925, 1.175, 0.49, 1.2725, 0.5875, 1.3725, 0.685, 0, 0.7825, 0.0975, 0.8825, 0.195, 0.98, 0.2925, 1.0775, 0.3925, 1.175, 0.49, 1.2725, 0.5875, 1.3725, 0.685],
  "SoftwareVersions": "syngo MR E11",
  "SpacingBetweenSlices": 2,
  "StationName": "MRC35049",
  "TaskName": "mariostars",
  "TotalReadoutTime": 0.0576811,
  "TxRefAmp": 304.936,
  "WipMemBlock": "d6ce382b-16c9-477b-b073-2771420e6740||Sequence: R017 ve11c/master r/75a17815+; Jun 28 2022 16:32:11 by eja",
  "dcmmeta_affine": [
    [-1.9999195337295532, 0.017453081905841827, -0.004152067471295595, 102.75474548339844],
    [0.017783720046281815, 1.8676563501358032, -0.7152225971221924, -69.07616424560547],
    [0.0023641011212021112, 0.7152307033538818, 1.8677364587783813, -64.69792175292969],
    [0.0, 0.0, 0.0, 1.0]
],
  "dcmmeta_reorient_transform": [
    [0.0, -1.0, 0.0, 103.0],
    [1.0, 0.0, 0.0, 0.0],
    [0.0, 0.0, 1.0, 0.0],
    [0.0, 0.0, 0.0, 1.0]
],
  "dcmmeta_shape": [104, 104, 60, 508],
  "dcmmeta_slice_dim": 2,
  "dcmmeta_version": 0.6,
  "global": {
    "const": {
      "AcquisitionMatrix": [104, 0, 0, 104],
      "AngioFlag": "N",
      "BitsAllocated": 16,
      "BitsStored": 16,
      "BodyPartExamined": "BRAIN",
      "Columns": 832,
      "EchoNumbers": 1,
      "EchoTime": 37.0,
      "EchoTrainLength": 104,
      "FlipAngle": 52.0,
      "HighBit": 15,
      "ImageOrientationPatient": [0.99995976797787, -0.0088918604369, 0.00118205060004, 0.00872654053164, 0.93382819600379, -0.3576153629791],
      "ImagePositionPatient": [-838.87604753118, -796.64609697232, 268.45429125946],
      "ImageType": [
        "ORIGINAL",
        "PRIMARY",
        "P",
        "MB",
        "ND",
        "MOSAIC"
],
      "ImagedNucleus": "1H",
      "ImagingFrequency": 123.260217,
      "InPlanePhaseEncodingDirection": "COL",
      "LargestImagePixelValue": 4095,
      "MRAcquisitionType": "2D",
      "MagneticFieldStrength": 3.0,
      "Manufacturer": "SIEMENS",
      "ManufacturerModelName": "Prisma_fit",
      "Modality": "MR",
      "NumberOfAverages": 1.0,
      "NumberOfPhaseEncodingSteps": 104,
      "PercentPhaseFieldOfView": 100.0,
      "PercentSampling": 100.0,
      "PerformedProcedureStepStartTime": "184718.473000",
      "PhotometricInterpretation": "MONOCHROME2",
      "PixelBandwidth": 2290.0,
      "PixelRepresentation": 0,
      "PixelSpacing": [2.0, 2.0],
      "ProtocolName": "func_task-mariostars_run-01",
      "RepetitionTime": 1490.0,
      "RescaleIntercept": -4096.0,
      "RescaleSlope": 2.0,
      "RescaleType": "US",
      "Rows": 832,
      "SAR": 0.08165525966676,
      "SamplesPerPixel": 1,
      "ScanOptions": "FS",
      "ScanningSequence": "EP",
      "SequenceName": "epfid2d1_104",
      "SequenceVariant": [
        "SK",
        "SS"
],
      "SeriesDescription": "func_task-mariostars_run-01",
      "SeriesNumber": 12,
      "SeriesTime": "185247.185000",
      "SliceLocation": -35.930242349361,
      "SliceThickness": 2.0,
      "SmallestImagePixelValue": 0,
      "SoftwareVersions": "syngo MR E11",
      "SpacingBetweenSlices": 2.0000000425882,
      "SpecificCharacterSet": "ISO_IR 100",
      "StudyID": "1",
      "StudyTime": "184718.409000",
      "TransmitCoilName": "Body",
      "VariableFlipAngleFlag": "N",
      "WindowCenterWidthExplanation": "Algo1",
      "dBdt": 0.0},
    "slices": {}
  },
  "time": {
    "samples": {
      "AcquisitionNumber": [1, 2, 3, 4, 5, 6, 7, 8, 9, 10, 11, 12, 13, 14, 15, 16, 17, 18, 19, 20, 21, 22, 23, 24, 25, 26, 27, 28, 29, 30, 31, 32, 33, 34, 35, 36, 37, 38, 39, 40, 41, 42, 43, 44, 45, 46, 47, 48, 49, 50, 51, 52, 53, 54, 55, 56, 57, 58, 59, 60, 61, 62, 63, 64, 65, 66, 67, 68, 69, 70, 71, 72, 73, 74, 75, 76, 77, 78, 79, 80, 81, 82, 83, 84, 85, 86, 87, 88, 89, 90, 91, 92, 93, 94, 95, 96, 97, 98, 99, 100, 101, 102, 103, 104, 105, 106, 107, 108, 109, 110, 111, 112, 113, 114, 115, 116, 117, 118, 119, 120, 121, 122, 123, 124, 125, 126, 127, 128, 129, 130, 131, 132, 133, 134, 135, 136, 137, 138, 139, 140, 141, 142, 143, 144, 145, 146, 147, 148, 149, 150, 151, 152, 153, 154, 155, 156, 157, 158, 159, 160, 161, 162, 163, 164, 165, 166, 167, 168, 169, 170, 171, 172, 173, 174, 175, 176, 177, 178, 179, 180, 181, 182, 183, 184, 185, 186, 187, 188, 189, 190, 191, 192, 193, 194, 195, 196, 197, 198, 199, 200, 201, 202, 203, 204, 205, 206, 207, 208, 209, 210, 211, 212, 213, 214, 215, 216, 217, 218, 219, 220, 221, 222, 223, 224, 225, 226, 227, 228, 229, 230, 231, 232, 233, 234, 235, 236, 237, 238, 239, 240, 241, 242, 243, 244, 245, 246, 247, 248, 249, 250, 251, 252, 253, 254, 255, 256, 257, 258, 259, 260, 261, 262, 263, 264, 265, 266, 267, 268, 269, 270, 271, 272, 273, 274, 275, 276, 277, 278, 279, 280, 281, 282, 283, 284, 285, 286, 287, 288, 289, 290, 291, 292, 293, 294, 295, 296, 297, 298, 299, 300, 301, 302, 303, 304, 305, 306, 307, 308, 309, 310, 311, 312, 313, 314, 315, 316, 317, 318, 319, 320, 321, 322, 323, 324, 325, 326, 327, 328, 329, 330, 331, 332, 333, 334, 335, 336, 337, 338, 339, 340, 341, 342, 343, 344, 345, 346, 347, 348, 349, 350, 351, 352, 353, 354, 355, 356, 357, 358, 359, 360, 361, 362, 363, 364, 365, 366, 367, 368, 369, 370, 371, 372, 373, 374, 375, 376, 377, 378, 379, 380, 381, 382, 383, 384, 385, 386, 387, 388, 389, 390, 391, 392, 393, 394, 395, 396, 397, 398, 399, 400, 401, 402, 403, 404, 405, 406, 407, 408, 409, 410, 411, 412, 413, 414, 415, 416, 417, 418, 419, 420, 421, 422, 423, 424, 425, 426, 427, 428, 429, 430, 431, 432, 433, 434, 435, 436, 437, 438, 439, 440, 441, 442, 443, 444, 445, 446, 447, 448, 449, 450, 451, 452, 453, 454, 455, 456, 457, 458, 459, 460, 461, 462, 463, 464, 465, 466, 467, 468, 469, 470, 471, 472, 473, 474, 475, 476, 477, 478, 479, 480, 481, 482, 483, 484, 485, 486, 487, 488, 489, 490, 491, 492, 493, 494, 495, 496, 497, 498, 499, 500, 501, 502, 503, 504, 505, 506, 507, 508],
      "AcquisitionTime": ["185130.675000", "185132.165000", "185133.655000", "185135.145000", "185136.635000", "185138.125000", "185139.615000", "185141.105000", "185142.595000", "185144.085000", "185145.575000", "185147.065000", "185148.555000", "185150.045000", "185151.535000", "185153.025000", "185154.515000", "185156.005000", "185157.495000", "185158.985000", "185200.475000", "185201.965000", "185203.455000", "185204.945000", "185206.435000", "185207.925000", "185209.415000", "185210.905000", "185212.395000", "185213.885000", "185215.375000", "185216.865000", "185218.355000", "185219.845000", "185221.335000", "185222.825000", "185224.315000", "185225.805000", "185227.295000", "185228.785000", "185230.275000", "185231.765000", "185233.255000", "185234.745000", "185236.235000", "185237.725000", "185239.215000", "185240.705000", "185242.195000", "185243.685000", "185245.175000", "185246.665000", "185248.155000", "185249.645000", "185251.135000", "185252.625000", "185254.115000", "185255.605000", "185257.095000", "185258.585000", "185300.075000", "185301.565000", "185303.055000", "185304.545000", "185306.035000", "185307.525000", "185309.015000", "185310.505000", "185311.995000", "185313.485000", "185314.975000", "185316.465000", "185317.955000", "185319.445000", "185320.935000", "185322.425000", "185323.915000", "185325.405000", "185326.895000", "185328.385000", "185329.875000", "185331.365000", "185332.855000", "185334.345000", "185335.835000", "185337.325000", "185338.815000", "185340.305000", "185341.795000", "185343.285000", "185344.775000", "185346.265000", "185347.755000", "185349.245000", "185350.735000", "185352.225000", "185353.715000", "185355.205000", "185356.695000", "185358.185000", "185359.675000", "185401.165000", "185402.655000", "185404.145000", "185405.635000", "185407.125000", "185408.615000", "185410.105000", "185411.595000", "185413.085000", "185414.575000", "185416.065000", "185417.555000", "185419.045000", "185420.535000", "185422.025000", "185423.515000", "185425.005000", "185426.495000", "185427.985000", "185429.475000", "185430.965000", "185432.455000", "185433.945000", "185435.435000", "185436.925000", "185438.415000", "185439.905000", "185441.395000", "185442.885000", "185444.375000", "185445.865000", "185447.355000", "185448.845000", "185450.335000", "185451.825000", "185453.315000", "185454.805000", "185456.295000", "185457.785000", "185459.275000", "185500.765000", "185502.255000", "185503.745000", "185505.235000", "185506.725000", "185508.215000", "185509.705000", "185511.195000", "185512.685000", "185514.175000", "185515.665000", "185517.155000", "185518.645000", "185520.135000", "185521.625000", "185523.115000", "185524.605000", "185526.095000", "185527.585000", "185529.075000", "185530.565000", "185532.055000", "185533.545000", "185535.035000", "185536.525000", "185538.015000", "185539.505000", "185540.995000", "185542.485000", "185543.975000", "185545.465000", "185546.955000", "185548.445000", "185549.935000", "185551.425000", "185552.915000", "185554.405000", "185555.895000", "185557.385000", "185558.875000", "185600.365000", "185601.855000", "185603.345000", "185604.835000", "185606.325000", "185607.815000", "185609.305000", "185610.795000", "185612.285000", "185613.775000", "185615.265000", "185616.755000", "185618.245000", "185619.735000", "185621.225000", "185622.715000", "185624.205000", "185625.695000", "185627.185000", "185628.675000", "185630.165000", "185631.655000", "185633.145000", "185634.635000", "185636.125000", "185637.615000", "185639.105000", "185640.595000", "185642.085000", "185643.575000", "185645.065000", "185646.555000", "185648.045000", "185649.535000", "185651.025000", "185652.515000", "185654.005000", "185655.495000", "185656.985000", "185658.475000", "185659.965000", "185701.455000", "185702.945000", "185704.435000", "185705.925000", "185707.415000", "185708.905000", "185710.395000", "185711.885000", "185713.375000", "185714.865000", "185716.355000", "185717.845000", "185719.335000", "185720.825000", "185722.315000", "185723.805000", "185725.295000", "185726.785000", "185728.275000", "185729.765000", "185731.255000", "185732.745000", "185734.235000", "185735.725000", "185737.215000", "185738.705000", "185740.195000", "185741.685000", "185743.175000", "185744.665000", "185746.155000", "185747.645000", "185749.135000", "185750.625000", "185752.115000", "185753.605000", "185755.095000", "185756.585000", "185758.075000", "185759.565000", "185801.055000", "185802.545000", "185804.035000", "185805.525000", "185807.015000", "185808.505000", "185809.995000", "185811.485000", "185812.975000", "185814.465000", "185815.955000", "185817.445000", "185818.935000", "185820.425000", "185821.915000", "185823.405000", "185824.895000", "185826.385000", "185827.875000", "185829.365000", "185830.855000", "185832.345000", "185833.835000", "185835.325000", "185836.815000", "185838.305000", "185839.795000", "185841.285000", "185842.775000", "185844.265000", "185845.755000", "185847.245000", "185848.735000", "185850.225000", "185851.715000", "185853.205000", "185854.695000", "185856.185000", "185857.675000", "185859.165000", "185900.655000", "185902.145000", "185903.635000", "185905.125000", "185906.615000", "185908.105000", "185909.595000", "185911.085000", "185912.575000", "185914.065000", "185915.555000", "185917.045000", "185918.535000", "185920.025000", "185921.515000", "185923.005000", "185924.495000", "185925.985000", "185927.475000", "185928.965000", "185930.455000", "185931.945000", "185933.435000", "185934.925000", "185936.415000", "185937.905000", "185939.395000", "185940.885000", "185942.375000", "185943.865000", "185945.355000", "185946.845000", "185948.335000", "185949.825000", "185951.315000", "185952.805000", "185954.295000", "185955.785000", "185957.275000", "185958.765000", "190000.255000", "190001.745000", "190003.235000", "190004.725000", "190006.215000", "190007.705000", "190009.195000", "190010.685000", "190012.175000", "190013.665000", "190015.155000", "190016.645000", "190018.135000", "190019.625000", "190021.115000", "190022.605000", "190024.095000", "190025.585000", "190027.075000", "190028.565000", "190030.055000", "190031.545000", "190033.035000", "190034.525000", "190036.015000", "190037.505000", "190038.995000", "190040.485000", "190041.975000", "190043.465000", "190044.955000", "190046.445000", "190047.935000", "190049.425000", "190050.915000", "190052.405000", "190053.895000", "190055.385000", "190056.875000", "190058.365000", "190059.855000", "190101.345000", "190102.835000", "190104.325000", "190105.815000", "190107.305000", "190108.795000", "190110.285000", "190111.775000", "190113.265000", "190114.755000", "190116.245000", "190117.735000", "190119.225000", "190120.715000", "190122.205000", "190123.695000", "190125.185000", "190126.675000", "190128.165000", "190129.655000", "190131.145000", "190132.635000", "190134.125000", "190135.615000", "190137.105000", "190138.595000", "190140.085000", "190141.575000", "190143.065000", "190144.555000", "190146.045000", "190147.535000", "190149.025000", "190150.515000", "190152.005000", "190153.495000", "190154.985000", "190156.475000", "190157.965000", "190159.455000", "190200.945000", "190202.435000", "190203.925000", "190205.415000", "190206.905000", "190208.395000", "190209.885000", "190211.375000", "190212.865000", "190214.355000", "190215.845000", "190217.335000", "190218.825000", "190220.315000", "190221.805000", "190223.295000", "190224.785000", "190226.275000", "190227.765000", "190229.255000", "190230.745000", "190232.235000", "190233.725000", "190235.215000", "190236.705000", "190238.195000", "190239.685000", "190241.175000", "190242.665000", "190244.155000", "190245.645000", "190247.135000", "190248.625000", "190250.115000", "190251.605000", "190253.095000", "190254.585000", "190256.075000", "190257.565000", "190259.055000", "190300.545000", "190302.035000", "190303.525000", "190305.015000", "190306.505000", "190307.995000", "190309.485000", "190310.975000", "190312.465000", "190313.955000", "190315.445000", "190316.935000", "190318.425000", "190319.915000", "190321.405000", "190322.895000", "190324.385000", "190325.875000", "190327.365000", "190328.855000", "190330.345000", "190331.835000", "190333.325000", "190334.815000", "190336.305000", "190337.795000", "190339.285000", "190340.775000", "190342.265000", "190343.755000", "190345.245000", "190346.735000", "190348.225000", "190349.715000", "190351.205000", "190352.695000", "190354.185000", "190355.675000", "190357.165000", "190358.655000", "190400.145000", "190401.635000", "190403.125000", "190404.615000", "190406.105000"],
      "ContentTime": ["185247.187000", "185247.190000", "185247.192000", "185247.195000", "185247.197000", "185247.200000", "185247.202000", "185247.205000", "185247.207000", "185247.209000", "185247.212000", "185247.214000", "185247.217000", "185247.219000", "185247.222000", "185247.224000", "185247.227000", "185247.229000", "185247.232000", "185247.235000", "185247.237000", "185247.240000", "185247.242000", "185247.245000", "185247.247000", "185247.250000", "185247.252000", "185247.255000", "185247.257000", "185307.139000", "185307.142000", "185307.144000", "185307.147000", "185307.149000", "185307.152000", "185307.154000", "185307.157000", "185307.159000", "185307.162000", "185307.164000", "185307.167000", "185307.169000", "185307.171000", "185307.174000", "185307.176000", "185307.179000", "185307.181000", "185307.184000", "185307.186000", "185327.132000", "185327.135000", "185327.138000", "185327.140000", "185327.143000", "185327.146000", "185327.148000", "185327.158000", "185327.161000", "185327.163000", "185327.166000", "185327.168000", "185327.171000", "185327.173000", "185327.176000", "185327.178000", "185327.181000", "185327.183000", "185327.186000", "185327.188000", "185327.191000", "185347.132000", "185347.134000", "185347.137000", "185347.139000", "185347.142000", "185347.144000", "185347.147000", "185347.149000", "185347.152000", "185347.154000", "185347.157000", "185347.159000", "185347.162000", "185347.164000", "185347.167000", "185347.169000", "185347.172000", "185347.174000", "185347.176000", "185347.179000", "185427.157000", "185427.160000", "185427.162000", "185427.165000", "185427.167000", "185427.170000", "185427.172000", "185427.175000", "185427.177000", "185427.179000", "185427.182000", "185427.184000", "185427.187000", "185427.189000", "185427.192000", "185427.194000", "185427.197000", "185427.199000", "185427.202000", "185427.204000", "185427.207000", "185427.209000", "185427.212000", "185427.215000", "185427.217000", "185427.220000", "185427.222000", "185427.225000", "185507.160000", "185507.162000", "185507.165000", "185507.167000", "185507.170000", "185507.172000", "185507.175000", "185507.177000", "185507.180000", "185507.183000", "185507.185000", "185507.188000", "185507.190000", "185507.193000", "185507.195000", "185507.198000", "185507.200000", "185507.203000", "185507.205000", "185507.208000", "185507.211000", "185507.213000", "185507.216000", "185507.218000", "185507.221000", "185507.223000", "185507.226000", "185547.161000", "185547.164000", "185547.166000", "185547.169000", "185547.171000", "185547.174000", "185547.176000", "185547.179000", "185547.181000", "185547.184000", "185547.186000", "185547.189000", "185547.191000", "185547.194000", "185547.196000", "185547.199000", "185547.201000", "185547.204000", "185547.206000", "185547.209000", "185547.211000", "185547.213000", "185547.216000", "185547.218000", "185547.221000", "185547.223000", "185627.163000", "185627.166000", "185627.168000", "185627.171000", "185627.173000", "185627.176000", "185627.178000", "185627.181000", "185627.183000", "185627.186000", "185627.188000", "185627.191000", "185627.193000", "185627.196000", "185627.198000", "185627.201000", "185627.203000", "185627.206000", "185627.209000", "185627.211000", "185627.214000", "185627.216000", "185627.219000", "185627.222000", "185627.226000", "185627.228000", "185627.231000", "185707.153000", "185707.156000", "185707.159000", "185707.161000", "185707.164000", "185707.166000", "185707.169000", "185707.171000", "185707.173000", "185707.176000", "185707.178000", "185707.181000", "185707.184000", "185707.186000", "185707.189000", "185707.192000", "185707.194000", "185707.197000", "185707.200000", "185707.202000", "185707.205000", "185707.207000", "185707.210000", "185707.212000", "185707.215000", "185707.217000", "185707.220000", "185747.151000", "185747.154000", "185747.156000", "185747.159000", "185747.161000", "185747.164000", "185747.166000", "185747.169000", "185747.171000", "185747.174000", "185747.176000", "185747.178000", "185747.181000", "185747.183000", "185747.186000", "185747.188000", "185747.191000", "185747.193000", "185747.196000", "185747.198000", "185747.201000", "185747.203000", "185747.206000", "185747.208000", "185747.211000", "185747.213000", "185747.216000", "185807.109000", "185807.112000", "185807.115000", "185807.117000", "185807.120000", "185807.122000", "185807.125000", "185807.127000", "185807.130000", "185807.132000", "185807.135000", "185807.137000", "185807.140000", "185847.146000", "185847.149000", "185847.152000", "185847.154000", "185847.157000", "185847.159000", "185847.162000", "185847.164000", "185847.167000", "185847.169000", "185847.172000", "185847.174000", "185847.177000", "185847.179000", "185847.182000", "185847.184000", "185847.187000", "185847.189000", "185847.191000", "185847.194000", "185847.196000", "185847.199000", "185847.201000", "185847.204000", "185847.207000", "185847.209000", "185847.212000", "185927.149000", "185927.151000", "185927.154000", "185927.157000", "185927.159000", "185927.161000", "185927.164000", "185927.166000", "185927.169000", "185927.171000", "185927.174000", "185927.176000", "185927.179000", "185927.181000", "185927.184000", "185927.186000", "185927.189000", "185927.191000", "185927.203000", "185927.205000", "185927.208000", "185927.210000", "185927.213000", "185927.215000", "185927.217000", "185927.220000", "185927.222000", "190007.141000", "190007.143000", "190007.146000", "190007.148000", "190007.151000", "190007.153000", "190007.156000", "190007.158000", "190007.161000", "190007.163000", "190007.166000", "190007.168000", "190007.171000", "190007.173000", "190007.176000", "190007.178000", "190007.180000", "190007.183000", "190007.185000", "190007.188000", "190007.190000", "190007.193000", "190007.195000", "190007.198000", "190007.200000", "190007.203000", "190007.205000", "190047.601000", "190047.604000", "190047.606000", "190047.609000", "190047.611000", "190047.614000", "190047.616000", "190047.619000", "190047.621000", "190047.624000", "190047.626000", "190047.629000", "190047.631000", "190047.634000", "190047.636000", "190047.639000", "190047.641000", "190047.644000", "190047.646000", "190047.649000", "190047.651000", "190047.654000", "190047.656000", "190047.659000", "190047.661000", "190047.664000", "190047.666000", "190127.181000", "190127.184000", "190127.187000", "190127.189000", "190127.192000", "190127.194000", "190127.196000", "190127.199000", "190127.201000", "190127.204000", "190127.206000", "190127.209000", "190127.211000", "190127.214000", "190127.216000", "190127.219000", "190127.221000", "190127.224000", "190127.226000", "190127.229000", "190127.231000", "190127.234000", "190127.236000", "190127.239000", "190127.241000", "190127.244000", "190127.246000", "190207.185000", "190207.187000", "190207.190000", "190207.192000", "190207.195000", "190207.197000", "190207.200000", "190207.202000", "190207.205000", "190207.207000", "190207.210000", "190207.212000", "190207.215000", "190207.217000", "190207.220000", "190207.222000", "190207.225000", "190207.227000", "190207.230000", "190207.232000", "190207.235000", "190207.237000", "190207.240000", "190207.242000", "190207.245000", "190207.247000", "190247.148000", "190247.150000", "190247.153000", "190247.155000", "190247.158000", "190247.160000", "190247.163000", "190247.165000", "190247.169000", "190247.171000", "190247.174000", "190247.176000", "190247.179000", "190247.181000", "190247.184000", "190247.186000", "190247.189000", "190247.191000", "190247.194000", "190247.196000", "190247.199000", "190247.201000", "190247.204000", "190247.206000", "190247.209000", "190247.211000", "190247.220000", "190327.151000", "190327.154000", "190327.156000", "190327.159000", "190327.161000", "190327.164000", "190327.166000", "190327.169000", "190327.171000", "190327.174000", "190327.176000", "190327.179000", "190327.181000", "190327.184000", "190327.186000", "190327.189000", "190327.191000", "190327.194000", "190327.196000", "190327.199000", "190327.201000", "190327.204000", "190327.206000", "190327.209000", "190327.211000", "190327.214000", "190327.216000", "190407.149000", "190407.151000", "190407.154000", "190407.156000", "190407.159000", "190407.161000", "190407.164000", "190407.166000", "190407.169000", "190407.171000", "190407.174000", "190407.176000", "190407.179000", "190407.181000", "190407.184000", "190407.186000", "190407.189000", "190407.191000", "190407.194000", "190407.196000", "190407.199000", "190407.202000", "190407.204000", "190407.207000", "190407.209000", "190407.212000", "190407.214000", "190409.100000"],
