{
  "AcquisitionMatrixPE": 104,
  "AcquisitionNumber": 1,
  "AcquisitionTime": "19:18:41.835000",
  "BandwidthPerPixelPhaseEncode": 17.17,
  "BaseResolution": 104,
  "BodyPartExamined": "BRAIN",
  "CoilCombinationMethod": "Sum of Squares",
  "ConsistencyInfo": "N4_VE11C_LATEST_20160120",
  "ConversionSoftware": "dcm2niix",
  "ConversionSoftwareVersion": "v1.0.20220505",
  "DerivedVendorReportedEchoSpacing": 0.000560011,
  "DeviceSerialNumber": "167006",
  "DwellTime": 2.1e-06,
  "EchoTime": 0.037,
  "EchoTime1": 0.037,
  "EchoTime2": 0.001,
  "EchoTrainLength": 104,
  "EffectiveEchoSpacing": 0.000560011,
  "FlipAngle": 52,
  "HeudiconvVersion": "0.5.3.post811+g6206e14",
  "ImageComments": "Unaliased MB4/PE3/LB",
  "ImageOrientationPatientDICOM": [0.99996, -0.00889186, 0.00118205, 0.00872654, 0.933828, -0.357615],
  "ImageOrientationText": "Tra>Cor(-21.0)>Sag(-0.1)",
  "ImageType": [
    "ORIGINAL",
    "PRIMARY",
    "P",
    "MB",
    "ND",
    "MOSAIC",
    "PHASE"
],
  "ImagingFrequency": 123.26,
  "InPlanePhaseEncodingDirectionDICOM": "COL",
  "InstitutionAddress": "Chemin Queen-Mary 4565,Montreal,District,CA,H3W 1W5",
  "InstitutionName": "IUGM",
  "InstitutionalDepartmentName": "Department",
  "MRAcquisitionType": "2D",
  "MagneticFieldStrength": 3,
  "Manufacturer": "Siemens",
  "ManufacturersModelName": "Prisma_fit",
  "MatrixCoilMode": "SENSE",
  "Modality": "MR",
  "MultibandAccelerationFactor": 4,
  "PartialFourier": 1,
  "PatientPosition": "HFS",
  "PercentPhaseFOV": 100,
  "PercentSampling": 100,
  "PhaseEncodingDirection": "j",
  "PhaseEncodingSteps": 104,
  "PhaseResolution": 1,
  "PixelBandwidth": 2290,
  "ProcedureStepDescription": "games^mariostars",
  "ProtocolName": "func_task-mariostars_run-03",
  "PulseSequenceDetails": "%CustomerSeq%\\cmrr_mbep2d_bold",
  "ReceiveCoilActiveElements": "HC1-7;NC1,2",
  "ReceiveCoilName": "HeadNeck_64",
  "ReconMatrixPE": 104,
  "RepetitionTime": 1.49,
  "SAR": 0.0816553,
  "ScanOptions": "FS",
  "ScanningSequence": "EP",
  "SequenceName": "epfid2d1_104",
  "SequenceVariant": "SK\\SS",
  "SeriesDescription": "func_task-mariostars_run-03",
  "SeriesNumber": 18,
  "ShimSetting": [591, -7263, -8827, 450, -14, -322, 14, 55],
  "SliceThickness": 2,
  "SliceTiming": [0, 0.7825, 0.0975, 0.88, 0.195, 0.98, 0.2925, 1.0775, 0.39, 1.175, 0.49, 1.2725, 0.5875, 1.37, 0.685, 0, 0.7825, 0.0975, 0.88, 0.195, 0.98, 0.2925, 1.0775, 0.39, 1.175, 0.49, 1.2725, 0.5875, 1.37, 0.685, 0, 0.7825, 0.0975, 0.88, 0.195, 0.98, 0.2925, 1.0775, 0.39, 1.175, 0.49, 1.2725, 0.5875, 1.37, 0.685, 0, 0.7825, 0.0975, 0.88, 0.195, 0.98, 0.2925, 1.0775, 0.39, 1.175, 0.49, 1.2725, 0.5875, 1.37, 0.685],
  "SoftwareVersions": "syngo MR E11",
  "SpacingBetweenSlices": 2,
  "StationName": "MRC35049",
  "TaskName": "mariostars",
  "TotalReadoutTime": 0.0576811,
  "TxRefAmp": 304.936,
  "WipMemBlock": "74ecdc18-b79c-451e-aa6f-1fce235a6c92||Sequence: R017 ve11c/master r/75a17815+; Jun 28 2022 16:32:11 by eja",
  "dcmmeta_affine": [
    [-1.9999195337295532, 0.017453081905841827, -0.004152067471295595, 102.75474548339844],
    [0.017783720046281815, 1.8676563501358032, -0.7152225971221924, -69.07616424560547],
    [0.0023641011212021112, 0.7152307033538818, 1.8677364587783813, -64.69792175292969],
    [0.0, 0.0, 0.0, 1.0]
],
  "dcmmeta_reorient_transform": [
    [0.0, -1.0, 0.0, 103.0],
    [1.0, 0.0, 0.0, 0.0],
    [0.0, 0.0, 1.0, 0.0],
    [0.0, 0.0, 0.0, 1.0]
],
  "dcmmeta_shape": [104, 104, 60, 429],
  "dcmmeta_slice_dim": 2,
  "dcmmeta_version": 0.6,
  "global": {
    "const": {
      "AcquisitionMatrix": [104, 0, 0, 104],
      "AngioFlag": "N",
      "BitsAllocated": 16,
      "BitsStored": 16,
      "BodyPartExamined": "BRAIN",
      "Columns": 832,
      "EchoNumbers": 1,
      "EchoTime": 37.0,
      "EchoTrainLength": 104,
      "FlipAngle": 52.0,
      "HighBit": 15,
      "ImageOrientationPatient": [0.99995976797787, -0.0088918604369, 0.00118205060004, 0.00872654053164, 0.93382819600379, -0.3576153629791],
      "ImagePositionPatient": [-838.87604753118, -796.64609697232, 268.45429125946],
      "ImageType": [
        "ORIGINAL",
        "PRIMARY",
        "P",
        "MB",
        "ND",
        "MOSAIC"
],
      "ImagedNucleus": "1H",
      "ImagingFrequency": 123.260223,
      "InPlanePhaseEncodingDirection": "COL",
      "LargestImagePixelValue": 4095,
      "MRAcquisitionType": "2D",
      "MagneticFieldStrength": 3.0,
      "Manufacturer": "SIEMENS",
      "ManufacturerModelName": "Prisma_fit",
      "Modality": "MR",
      "NumberOfAverages": 1.0,
      "NumberOfPhaseEncodingSteps": 104,
      "PercentPhaseFieldOfView": 100.0,
      "PercentSampling": 100.0,
      "PerformedProcedureStepStartTime": "184718.473000",
      "PhotometricInterpretation": "MONOCHROME2",
      "PixelBandwidth": 2290.0,
      "PixelRepresentation": 0,
      "PixelSpacing": [2.0, 2.0],
      "ProtocolName": "func_task-mariostars_run-03",
      "RepetitionTime": 1490.0,
      "RescaleIntercept": -4096.0,
      "RescaleSlope": 2.0,
      "RescaleType": "US",
      "Rows": 832,
      "SAR": 0.08165525966676,
      "SamplesPerPixel": 1,
      "ScanOptions": "FS",
      "ScanningSequence": "EP",
      "SequenceName": "epfid2d1_104",
      "SequenceVariant": [
        "SK",
        "SS"
],
      "SeriesDescription": "func_task-mariostars_run-03",
      "SeriesNumber": 18,
      "SeriesTime": "191938.524000",
      "SliceLocation": -35.930242349361,
      "SliceThickness": 2.0,
      "SmallestImagePixelValue": 0,
      "SoftwareVersions": "syngo MR E11",
      "SpacingBetweenSlices": 2.0000000425882,
      "SpecificCharacterSet": "ISO_IR 100",
      "StudyID": "1",
      "StudyTime": "184718.409000",
      "TransmitCoilName": "Body",
      "VariableFlipAngleFlag": "N",
      "WindowCenterWidthExplanation": "Algo1",
      "dBdt": 0.0},
    "slices": {}
  },
  "time": {
    "samples": {
      "AcquisitionNumber": [1, 2, 3, 4, 5, 6, 7, 8, 9, 10, 11, 12, 13, 14, 15, 16, 17, 18, 19, 20, 21, 22, 23, 24, 25, 26, 27, 28, 29, 30, 31, 32, 33, 34, 35, 36, 37, 38, 39, 40, 41, 42, 43, 44, 45, 46, 47, 48, 49, 50, 51, 52, 53, 54, 55, 56, 57, 58, 59, 60, 61, 62, 63, 64, 65, 66, 67, 68, 69, 70, 71, 72, 73, 74, 75, 76, 77, 78, 79, 80, 81, 82, 83, 84, 85, 86, 87, 88, 89, 90, 91, 92, 93, 94, 95, 96, 97, 98, 99, 100, 101, 102, 103, 104, 105, 106, 107, 108, 109, 110, 111, 112, 113, 114, 115, 116, 117, 118, 119, 120, 121, 122, 123, 124, 125, 126, 127, 128, 129, 130, 131, 132, 133, 134, 135, 136, 137, 138, 139, 140, 141, 142, 143, 144, 145, 146, 147, 148, 149, 150, 151, 152, 153, 154, 155, 156, 157, 158, 159, 160, 161, 162, 163, 164, 165, 166, 167, 168, 169, 170, 171, 172, 173, 174, 175, 176, 177, 178, 179, 180, 181, 182, 183, 184, 185, 186, 187, 188, 189, 190, 191, 192, 193, 194, 195, 196, 197, 198, 199, 200, 201, 202, 203, 204, 205, 206, 207, 208, 209, 210, 211, 212, 213, 214, 215, 216, 217, 218, 219, 220, 221, 222, 223, 224, 225, 226, 227, 228, 229, 230, 231, 232, 233, 234, 235, 236, 237, 238, 239, 240, 241, 242, 243, 244, 245, 246, 247, 248, 249, 250, 251, 252, 253, 254, 255, 256, 257, 258, 259, 260, 261, 262, 263, 264, 265, 266, 267, 268, 269, 270, 271, 272, 273, 274, 275, 276, 277, 278, 279, 280, 281, 282, 283, 284, 285, 286, 287, 288, 289, 290, 291, 292, 293, 294, 295, 296, 297, 298, 299, 300, 301, 302, 303, 304, 305, 306, 307, 308, 309, 310, 311, 312, 313, 314, 315, 316, 317, 318, 319, 320, 321, 322, 323, 324, 325, 326, 327, 328, 329, 330, 331, 332, 333, 334, 335, 336, 337, 338, 339, 340, 341, 342, 343, 344, 345, 346, 347, 348, 349, 350, 351, 352, 353, 354, 355, 356, 357, 358, 359, 360, 361, 362, 363, 364, 365, 366, 367, 368, 369, 370, 371, 372, 373, 374, 375, 376, 377, 378, 379, 380, 381, 382, 383, 384, 385, 386, 387, 388, 389, 390, 391, 392, 393, 394, 395, 396, 397, 398, 399, 400, 401, 402, 403, 404, 405, 406, 407, 408, 409, 410, 411, 412, 413, 414, 415, 416, 417, 418, 419, 420, 421, 422, 423, 424, 425, 426, 427, 428, 429],
      "AcquisitionTime": ["191841.835000", "191843.325000", "191844.815000", "191846.305000", "191847.795000", "191849.285000", "191850.775000", "191852.265000", "191853.755000", "191855.245000", "191856.735000", "191858.225000", "191859.715000", "191901.205000", "191902.695000", "191904.185000", "191905.675000", "191907.165000", "191908.655000", "191910.145000", "191911.635000", "191913.125000", "191914.615000", "191916.105000", "191917.595000", "191919.085000", "191920.575000", "191922.065000", "191923.555000", "191925.045000", "191926.535000", "191928.025000", "191929.515000", "191931.005000", "191932.495000", "191933.985000", "191935.475000", "191936.965000", "191938.455000", "191939.945000", "191941.435000", "191942.925000", "191944.415000", "191945.905000", "191947.395000", "191948.885000", "191950.375000", "191951.865000", "191953.355000", "191954.845000", "191956.335000", "191957.825000", "191959.315000", "192000.805000", "192002.295000", "192003.785000", "192005.275000", "192006.765000", "192008.255000", "192009.745000", "192011.235000", "192012.725000", "192014.215000", "192015.705000", "192017.195000", "192018.685000", "192020.175000", "192021.665000", "192023.155000", "192024.645000", "192026.135000", "192027.625000", "192029.115000", "192030.605000", "192032.095000", "192033.585000", "192035.075000", "192036.565000", "192038.055000", "192039.545000", "192041.035000", "192042.525000", "192044.015000", "192045.505000", "192046.995000", "192048.485000", "192049.975000", "192051.465000", "192052.955000", "192054.445000", "192055.935000", "192057.425000", "192058.915000", "192100.405000", "192101.895000", "192103.385000", "192104.875000", "192106.365000", "192107.855000", "192109.345000", "192110.835000", "192112.325000", "192113.815000", "192115.305000", "192116.795000", "192118.285000", "192119.775000", "192121.265000", "192122.755000", "192124.245000", "192125.735000", "192127.225000", "192128.715000", "192130.205000", "192131.695000", "192133.185000", "192134.675000", "192136.165000", "192137.655000", "192139.145000", "192140.635000", "192142.125000", "192143.615000", "192145.105000", "192146.595000", "192148.085000", "192149.575000", "192151.065000", "192152.555000", "192154.045000", "192155.535000", "192157.025000", "192158.515000", "192200.005000", "192201.495000", "192202.985000", "192204.475000", "192205.965000", "192207.455000", "192208.945000", "192210.435000", "192211.925000", "192213.415000", "192214.905000", "192216.395000", "192217.885000", "192219.375000", "192220.865000", "192222.355000", "192223.845000", "192225.335000", "192226.825000", "192228.315000", "192229.805000", "192231.295000", "192232.785000", "192234.275000", "192235.765000", "192237.255000", "192238.745000", "192240.235000", "192241.725000", "192243.215000", "192244.705000", "192246.195000", "192247.685000", "192249.175000", "192250.665000", "192252.155000", "192253.645000", "192255.135000", "192256.625000", "192258.115000", "192259.605000", "192301.095000", "192302.585000", "192304.075000", "192305.565000", "192307.055000", "192308.545000", "192310.035000", "192311.525000", "192313.015000", "192314.505000", "192315.995000", "192317.485000", "192318.975000", "192320.465000", "192321.955000", "192323.445000", "192324.935000", "192326.425000", "192327.915000", "192329.405000", "192330.895000", "192332.385000", "192333.875000", "192335.365000", "192336.855000", "192338.345000", "192339.835000", "192341.325000", "192342.815000", "192344.305000", "192345.795000", "192347.285000", "192348.775000", "192350.265000", "192351.755000", "192353.245000", "192354.735000", "192356.225000", "192357.715000", "192359.205000", "192400.695000", "192402.185000", "192403.675000", "192405.165000", "192406.655000", "192408.145000", "192409.635000", "192411.125000", "192412.615000", "192414.105000", "192415.595000", "192417.085000", "192418.575000", "192420.065000", "192421.555000", "192423.045000", "192424.535000", "192426.025000", "192427.515000", "192429.005000", "192430.495000", "192431.985000", "192433.475000", "192434.965000", "192436.455000", "192437.945000", "192439.435000", "192440.925000", "192442.415000", "192443.905000", "192445.395000", "192446.885000", "192448.375000", "192449.865000", "192451.355000", "192452.845000", "192454.335000", "192455.825000", "192457.315000", "192458.805000", "192500.295000", "192501.785000", "192503.275000", "192504.765000", "192506.255000", "192507.745000", "192509.235000", "192510.725000", "192512.215000", "192513.705000", "192515.195000", "192516.685000", "192518.175000", "192519.665000", "192521.155000", "192522.645000", "192524.135000", "192525.625000", "192527.115000", "192528.605000", "192530.095000", "192531.585000", "192533.075000", "192534.565000", "192536.055000", "192537.545000", "192539.035000", "192540.525000", "192542.015000", "192543.505000", "192544.995000", "192546.485000", "192547.975000", "192549.465000", "192550.955000", "192552.445000", "192553.935000", "192555.425000", "192556.915000", "192558.405000", "192559.895000", "192601.385000", "192602.875000", "192604.365000", "192605.855000", "192607.345000", "192608.835000", "192610.325000", "192611.815000", "192613.305000", "192614.795000", "192616.285000", "192617.775000", "192619.265000", "192620.755000", "192622.245000", "192623.735000", "192625.225000", "192626.715000", "192628.205000", "192629.695000", "192631.185000", "192632.675000", "192634.165000", "192635.655000", "192637.145000", "192638.635000", "192640.125000", "192641.615000", "192643.105000", "192644.595000", "192646.085000", "192647.575000", "192649.065000", "192650.555000", "192652.045000", "192653.535000", "192655.025000", "192656.515000", "192658.005000", "192659.495000", "192700.985000", "192702.475000", "192703.965000", "192705.455000", "192706.945000", "192708.435000", "192709.925000", "192711.415000", "192712.905000", "192714.395000", "192715.885000", "192717.375000", "192718.865000", "192720.355000", "192721.845000", "192723.335000", "192724.825000", "192726.315000", "192727.805000", "192729.295000", "192730.785000", "192732.275000", "192733.765000", "192735.255000", "192736.745000", "192738.235000", "192739.725000", "192741.215000", "192742.705000", "192744.195000", "192745.685000", "192747.175000", "192748.665000", "192750.155000", "192751.645000", "192753.135000", "192754.625000", "192756.115000", "192757.605000", "192759.095000", "192800.585000", "192802.075000", "192803.565000", "192805.055000", "192806.545000", "192808.035000", "192809.525000", "192811.015000", "192812.505000", "192813.995000", "192815.485000", "192816.975000", "192818.465000", "192819.955000", "192821.445000", "192822.935000", "192824.425000", "192825.915000", "192827.405000", "192828.895000", "192830.385000", "192831.875000", "192833.365000", "192834.855000", "192836.345000", "192837.835000", "192839.325000", "192840.815000", "192842.305000", "192843.795000", "192845.285000", "192846.775000", "192848.265000", "192849.755000", "192851.245000", "192852.735000", "192854.225000", "192855.715000", "192857.205000", "192858.695000", "192900.185000", "192901.675000", "192903.165000", "192904.655000", "192906.145000", "192907.635000", "192909.125000", "192910.615000", "192912.105000", "192913.595000", "192915.085000", "192916.575000", "192918.065000", "192919.555000"],
      "ContentTime": ["191938.526000", "191938.528000", "191938.531000", "191938.534000", "191938.536000", "191938.539000", "191938.541000", "191958.535000", "191958.538000", "191958.540000", "191958.543000", "191958.545000", "191958.548000", "191958.550000", "191958.553000", "191958.555000", "191958.558000", "191958.560000", "191958.563000", "191958.565000", "191958.568000", "191958.570000", "191958.573000", "191958.575000", "191958.582000", "191958.584000", "191958.587000", "192018.551000", "192018.554000", "192018.556000", "192018.559000", "192018.561000", "192018.564000", "192018.566000", "192018.569000", "192018.572000", "192018.574000", "192018.576000", "192018.579000", "192018.581000", "192018.584000", "192018.586000", "192018.589000", "192018.591000", "192018.594000", "192018.596000", "192018.599000", "192018.601000", "192038.539000", "192038.542000", "192038.544000", "192038.547000", "192038.549000", "192038.552000", "192038.554000", "192038.557000", "192038.559000", "192038.562000", "192038.564000", "192038.566000", "192038.570000", "192038.573000", "192038.576000", "192038.578000", "192038.581000", "192038.583000", "192038.586000", "192038.588000", "192058.543000", "192058.546000", "192058.549000", "192058.551000", "192058.554000", "192058.556000", "192058.559000", "192058.561000", "192058.563000", "192058.566000", "192058.569000", "192058.571000", "192058.574000", "192058.576000", "192058.578000", "192058.581000", "192058.583000", "192058.586000", "192058.588000", "192058.591000", "192138.587000", "192138.590000", "192138.592000", "192138.595000", "192138.597000", "192138.600000", "192138.602000", "192138.605000", "192138.607000", "192138.610000", "192138.612000", "192138.615000", "192138.617000", "192138.620000", "192138.622000", "192138.625000", "192138.627000", "192138.630000", "192138.632000", "192138.635000", "192138.637000", "192138.640000", "192138.642000", "192138.645000", "192138.647000", "192138.649000", "192138.652000", "192138.655000", "192138.657000", "192138.659000", "192218.566000", "192218.569000", "192218.571000", "192218.574000", "192218.576000", "192218.579000", "192218.581000", "192218.584000", "192218.586000", "192218.589000", "192218.591000", "192218.594000", "192218.596000", "192218.599000", "192218.601000", "192218.604000", "192218.606000", "192218.608000", "192218.611000", "192218.613000", "192218.616000", "192218.618000", "192218.621000", "192218.623000", "192218.626000", "192218.628000", "192258.562000", "192258.565000", "192258.567000", "192258.570000", "192258.572000", "192258.575000", "192258.577000", "192258.580000", "192258.582000", "192258.585000", "192258.587000", "192258.590000", "192258.592000", "192258.595000", "192258.597000", "192258.599000", "192258.602000", "192258.604000", "192258.607000", "192258.609000", "192258.612000", "192258.614000", "192258.617000", "192258.619000", "192258.622000", "192258.624000", "192258.628000", "192339.083000", "192339.086000", "192339.089000", "192339.091000", "192339.094000", "192339.096000", "192339.099000", "192339.101000", "192339.104000", "192339.106000", "192339.109000", "192339.111000", "192339.114000", "192339.116000", "192339.119000", "192339.121000", "192339.124000", "192339.126000", "192339.129000", "192339.131000", "192339.133000", "192339.136000", "192339.138000", "192339.141000", "192339.144000", "192339.147000", "192339.149000", "192418.566000", "192418.569000", "192418.572000", "192418.574000", "192418.577000", "192418.579000", "192418.582000", "192418.584000", "192418.587000", "192418.589000", "192418.591000", "192418.594000", "192418.596000", "192418.599000", "192418.601000", "192418.604000", "192418.606000", "192418.609000", "192418.611000", "192418.614000", "192418.616000", "192418.619000", "192418.621000", "192418.624000", "192418.626000", "192418.629000", "192418.631000", "192458.563000", "192458.566000", "192458.568000", "192458.571000", "192458.573000", "192458.576000", "192458.578000", "192458.581000", "192458.583000", "192458.586000", "192458.588000", "192458.591000", "192458.593000", "192458.596000", "192458.598000", "192458.601000", "192458.603000", "192458.606000", "192458.608000", "192458.611000", "192458.613000", "192458.616000", "192458.618000", "192458.621000", "192458.623000", "192458.626000", "192458.628000", "192538.571000", "192538.574000", "192538.576000", "192538.579000", "192538.581000", "192538.584000", "192538.586000", "192538.589000", "192538.591000", "192538.593000", "192538.596000", "192538.598000", "192538.601000", "192538.603000", "192538.606000", "192538.608000", "192538.611000", "192538.613000", "192538.616000", "192538.618000", "192538.621000", "192538.623000", "192538.626000", "192538.628000", "192538.631000", "192538.633000", "192538.636000", "192618.574000", "192618.577000", "192618.579000", "192618.582000", "192618.584000", "192618.587000", "192618.589000", "192618.591000", "192618.594000", "192618.596000", "192618.599000", "192618.601000", "192618.604000", "192618.606000", "192618.609000", "192618.611000", "192618.614000", "192618.616000", "192618.619000", "192618.621000", "192618.624000", "192618.626000", "192618.629000", "192618.631000", "192618.634000", "192618.636000", "192658.571000", "192658.573000", "192658.576000", "192658.578000", "192658.581000", "192658.583000", "192658.586000", "192658.588000", "192658.591000", "192658.593000", "192658.596000", "192658.598000", "192658.601000", "192658.603000", "192658.606000", "192658.608000", "192658.611000", "192658.613000", "192658.616000", "192658.618000", "192658.621000", "192658.626000", "192658.629000", "192658.632000", "192658.634000", "192658.637000", "192658.639000", "192738.567000", "192738.570000", "192738.572000", "192738.575000", "192738.577000", "192738.580000", "192738.582000", "192738.585000", "192738.587000", "192738.590000", "192738.592000", "192738.595000", "192738.597000", "192738.600000", "192738.602000", "192738.605000", "192738.607000", "192738.610000", "192738.612000", "192738.615000", "192738.617000", "192738.620000", "192738.622000", "192738.625000", "192738.628000", "192738.630000", "192738.633000", "192758.514000", "192758.517000", "192758.520000", "192758.522000", "192758.525000", "192758.527000", "192758.530000", "192758.532000", "192758.535000", "192758.537000", "192758.540000", "192758.542000", "192758.545000", "192758.547000", "192838.581000", "192838.583000", "192838.586000", "192838.589000", "192838.591000", "192838.594000", "192838.596000", "192838.599000", "192838.601000", "192838.604000", "192838.606000", "192838.608000", "192838.611000", "192838.613000", "192838.616000", "192838.618000", "192838.621000", "192838.623000", "192838.626000", "192838.628000", "192838.631000", "192838.633000", "192838.636000", "192838.638000", "192838.641000", "192838.643000", "192918.573000", "192918.576000", "192918.578000", "192918.581000", "192918.583000", "192918.586000", "192918.588000", "192918.591000", "192918.593000", "192918.596000", "192918.598000", "192918.601000", "192918.603000", "192918.606000", "192918.608000", "192918.611000", "192918.613000", "192918.616000", "192918.618000", "192918.620000", "192918.623000", "192918.626000", "192918.628000", "192918.631000", "192918.633000", "192918.636000", "192918.638000", "192922.740000", "192922.743000", "192922.745000"],
      "InstanceCreationTime": ["191938.526000", "191938.528000", "191938.531000", "191938.534000", "191938.536000", "191938.539000", "191938.541000", "191958.535000", "191958.538000", "191958.540000", "191958.543000", "191958.545000", "191958.548000", "191958.550000", "191958.553000", "191958.555000", "191958.558000", "191958.560000", "191958.563000", "191958.565000", "191958.568000", "191958.570000", "191958.573000", "191958.575000", "191958.582000", "191958.584000", "191958.587000", "192018.551000", "192018.554000", "192018.556000", "192018.559000", "192018.561000", "192018.564000", "192018.566000", "192018.569000", "192018.572000", "192018.574000", "192018.576000", "192018.579000", "192018.581000", "192018.584000", "192018.586000", "192018.589000", "192018.591000", "192018.594000", "192018.596000", "192018.599000", "192018.601000", "192038.539000", "192038.542000", "192038.544000", "192038.547000", "192038.549000", "192038.552000", "192038.554000", "192038.557000", "192038.559000", "192038.562000", "192038.564000", "192038.566000", "192038.570000", "192038.573000", "192038.576000", "192038.578000", "192038.581000", "192038.583000", "192038.586000", "192038.588000", "192058.543000", "192058.546000", "192058.549000", "192058.551000", "192058.554000", "192058.556000", "192058.559000", "192058.561000", "192058.563000", "192058.566000", "192058.569000", "192058.571000", "192058.574000", "192058.576000", "192058.578000", "192058.581000", "192058.583000", "192058.586000", "192058.588000", "192058.591000", "192138.587000", "192138.590000", "192138.592000", "192138.595000", "192138.597000", "192138.600000", "192138.602000", "192138.605000", "192138.607000", "192138.610000", "192138.612000", "192138.615000", "192138.617000", "192138.620000", "192138.622000", "192138.625000", "192138.627000", "192138.630000", "192138.632000", "192138.635000", "192138.637000", "192138.640000", "192138.642000", "192138.645000", "192138.647000", "192138.649000", "192138.652000", "192138.655000", "192138.657000", "192138.659000", "192218.566000", "192218.569000", "192218.571000", "192218.574000", "192218.576000", "192218.579000", "192218.581000", "192218.584000", "192218.586000", "192218.589000", "192218.591000", "192218.594000", "192218.596000", "192218.599000", "192218.601000", "192218.604000", "192218.606000", "192218.608000", "192218.611000", "192218.613000", "192218.616000", "192218.618000", "192218.621000", "192218.623000", "192218.626000", "192218.628000", "192258.562000", "192258.565000", "192258.567000", "192258.570000", "192258.572000", "192258.575000", "192258.577000", "192258.580000", "192258.582000", "192258.585000", "192258.587000", "192258.590000", "192258.592000", "192258.595000", "192258.597000", "192258.599000", "192258.602000", "192258.604000", "192258.607000", "192258.609000", "192258.612000", "192258.614000", "192258.617000", "192258.619000", "192258.622000", "192258.624000", "192258.628000", "192339.083000", "192339.086000", "192339.089000", "192339.091000", "192339.094000", "192339.096000", "192339.099000", "192339.101000", "192339.104000", "192339.106000", "192339.109000", "192339.111000", "192339.114000", "192339.116000", "192339.119000", "192339.121000", "192339.124000", "192339.126000", "192339.129000", "192339.131000", "192339.133000", "192339.136000", "192339.138000", "192339.141000", "192339.144000", "192339.147000", "192339.149000", "192418.566000", "192418.569000", "192418.572000", "192418.574000", "192418.577000", "192418.579000", "192418.582000", "192418.584000", "192418.587000", "192418.589000", "192418.591000", "192418.594000", "192418.596000", "192418.599000", "192418.601000", "192418.604000", "192418.606000", "192418.609000", "192418.611000", "192418.614000", "192418.616000", "192418.619000", "192418.621000", "192418.624000", "192418.626000", "192418.629000", "192418.631000", "192458.563000", "192458.566000", "192458.568000", "192458.571000", "192458.573000", "192458.576000", "192458.578000", "192458.581000", "192458.583000", "192458.586000", "192458.588000", "192458.591000", "192458.593000", "192458.596000", "192458.598000", "192458.601000", "192458.603000", "192458.606000", "192458.608000", "192458.611000", "192458.613000", "192458.616000", "192458.618000", "192458.621000", "192458.623000", "192458.626000", "192458.628000", "192538.571000", "192538.574000", "192538.576000", "192538.579000", "192538.581000", "192538.584000", "192538.586000", "192538.589000", "192538.591000", "192538.593000", "192538.596000", "192538.598000", "192538.601000", "192538.603000", "192538.606000", "192538.608000", "192538.611000", "192538.613000", "192538.616000", "192538.618000", "192538.621000", "192538.623000", "192538.626000", "192538.628000", "192538.631000", "192538.633000", "192538.636000", "192618.574000", "192618.577000", "192618.579000", "192618.582000", "192618.584000", "192618.587000", "192618.589000", "192618.591000", "192618.594000", "192618.596000", "192618.599000", "192618.601000", "192618.604000", "192618.606000", "192618.609000", "192618.611000", "192618.614000", "192618.616000", "192618.619000", "192618.621000", "192618.624000", "192618.626000", "192618.629000", "192618.631000", "192618.634000", "192618.636000", "192658.571000", "192658.573000", "192658.576000", "192658.578000", "192658.581000", "192658.583000", "192658.586000", "192658.588000", "192658.591000", "192658.593000", "192658.596000", "192658.598000", "192658.601000", "192658.603000", "192658.606000", "192658.608000", "192658.611000", "192658.613000", "192658.616000", "192658.618000", "192658.621000", "192658.626000", "192658.629000", "192658.632000", "192658.634000", "192658.637000", "192658.639000", "192738.567000", "192738.570000", "192738.572000", "192738.575000", "192738.577000", "192738.580000", "192738.582000", "192738.585000", "192738.587000", "192738.590000", "192738.592000", "192738.595000", "192738.597000", "192738.600000", "192738.602000", "192738.605000", "192738.607000", "192738.610000", "192738.612000", "192738.615000", "192738.617000", "192738.620000", "192738.622000", "192738.625000", "192738.628000", "192738.630000", "192738.633000", "192758.514000", "192758.517000", "192758.520000", "192758.522000", "192758.525000", "192758.527000", "192758.530000", "192758.532000", "192758.535000", "192758.537000", "192758.540000", "192758.542000", "192758.545000", "192758.547000", "192838.581000", "192838.583000", "192838.586000", "192838.589000", "192838.591000", "192838.594000", "192838.596000", "192838.599000", "192838.601000", "192838.604000", "192838.606000", "192838.608000", "192838.611000", "192838.613000", "192838.616000", "192838.618000", "192838.621000", "192838.623000", "192838.626000", "192838.628000", "192838.631000", "192838.633000", "192838.636000", "192838.638000", "192838.641000", "192838.643000", "192918.573000", "192918.576000", "192918.578000", "192918.581000", "192918.583000", "192918.586000", "192918.588000", "192918.591000", "192918.593000", "192918.596000", "192918.598000", "192918.601000", "192918.603000", "192918.606000", "192918.608000", "192918.611000", "192918.613000", "192918.616000", "192918.618000", "192918.620000", "192918.623000", "192918.626000", "192918.628000", "192918.631000", "192918.633000", "192918.636000", "192918.638000", "192922.740000", "192922.743000", "192922.745000"],
