{
  "AcquisitionMatrixPE": 104,
  "AcquisitionNumber": 1,
  "AcquisitionTime": "19:05:34.835000",
  "BandwidthPerPixelPhaseEncode": 17.17,
  "BaseResolution": 104,
  "BodyPartExamined": "BRAIN",
  "CoilCombinationMethod": "Sum of Squares",
  "ConsistencyInfo": "N4_VE11C_LATEST_20160120",
  "ConversionSoftware": "dcm2niix",
  "ConversionSoftwareVersion": "v1.0.20220505",
  "DerivedVendorReportedEchoSpacing": 0.000560011,
  "DeviceSerialNumber": "167006",
  "DwellTime": 2.1e-06,
  "EchoTime": 0.037,
  "EchoTime1": 0.037,
  "EchoTime2": 0.001,
  "EchoTrainLength": 104,
  "EffectiveEchoSpacing": 0.000560011,
  "FlipAngle": 52,
  "HeudiconvVersion": "0.5.3.post811+g6206e14",
  "ImageComments": "Unaliased MB4/PE3/LB",
  "ImageOrientationPatientDICOM": [0.99996, -0.00889186, 0.00118205, 0.00872654, 0.933828, -0.357615],
  "ImageOrientationText": "Tra>Cor(-21.0)>Sag(-0.1)",
  "ImageType": [
    "ORIGINAL",
    "PRIMARY",
    "P",
    "MB",
    "ND",
    "MOSAIC",
    "PHASE"
],
  "ImagingFrequency": 123.26,
  "InPlanePhaseEncodingDirectionDICOM": "COL",
  "InstitutionAddress": "Chemin Queen-Mary 4565,Montreal,District,CA,H3W 1W5",
  "InstitutionName": "IUGM",
  "InstitutionalDepartmentName": "Department",
  "MRAcquisitionType": "2D",
  "MagneticFieldStrength": 3,
  "Manufacturer": "Siemens",
  "ManufacturersModelName": "Prisma_fit",
  "MatrixCoilMode": "SENSE",
  "Modality": "MR",
  "MultibandAccelerationFactor": 4,
  "PartialFourier": 1,
  "PatientPosition": "HFS",
  "PercentPhaseFOV": 100,
  "PercentSampling": 100,
  "PhaseEncodingDirection": "j",
  "PhaseEncodingSteps": 104,
  "PhaseResolution": 1,
  "PixelBandwidth": 2290,
  "ProcedureStepDescription": "games^mariostars",
  "ProtocolName": "func_task-mariostars_run-02",
  "PulseSequenceDetails": "%CustomerSeq%\\cmrr_mbep2d_bold",
  "ReceiveCoilActiveElements": "HC1-7;NC1,2",
  "ReceiveCoilName": "HeadNeck_64",
  "ReconMatrixPE": 104,
  "RepetitionTime": 1.49,
  "SAR": 0.0816553,
  "ScanOptions": "FS",
  "ScanningSequence": "EP",
  "SequenceName": "epfid2d1_104",
  "SequenceVariant": "SK\\SS",
  "SeriesDescription": "func_task-mariostars_run-02",
  "SeriesNumber": 15,
  "ShimSetting": [591, -7263, -8827, 450, -14, -322, 14, 55],
  "SliceThickness": 2,
  "SliceTiming": [0, 0.785, 0.0975, 0.8825, 0.1975, 0.98, 0.295, 1.0775, 0.3925, 1.1775, 0.49, 1.275, 0.5875, 1.3725, 0.6875, 0, 0.785, 0.0975, 0.8825, 0.1975, 0.98, 0.295, 1.0775, 0.3925, 1.1775, 0.49, 1.275, 0.5875, 1.3725, 0.6875, 0, 0.785, 0.0975, 0.8825, 0.1975, 0.98, 0.295, 1.0775, 0.3925, 1.1775, 0.49, 1.275, 0.5875, 1.3725, 0.6875, 0, 0.785, 0.0975, 0.8825, 0.1975, 0.98, 0.295, 1.0775, 0.3925, 1.1775, 0.49, 1.275, 0.5875, 1.3725, 0.6875],
  "SoftwareVersions": "syngo MR E11",
  "SpacingBetweenSlices": 2,
  "StationName": "MRC35049",
  "TaskName": "mariostars",
  "TotalReadoutTime": 0.0576811,
  "TxRefAmp": 304.936,
  "WipMemBlock": "6023481e-f695-483a-ac99-642747f183ad||Sequence: R017 ve11c/master r/75a17815+; Jun 28 2022 16:32:11 by eja",
  "dcmmeta_affine": [
    [-1.9999195337295532, 0.017453081905841827, -0.004152067471295595, 102.75474548339844],
    [0.017783720046281815, 1.8676563501358032, -0.7152225971221924, -69.07616424560547],
    [0.0023641011212021112, 0.7152307033538818, 1.8677364587783813, -64.69792175292969],
    [0.0, 0.0, 0.0, 1.0]
],
  "dcmmeta_reorient_transform": [
    [0.0, -1.0, 0.0, 103.0],
    [1.0, 0.0, 0.0, 0.0],
    [0.0, 0.0, 1.0, 0.0],
    [0.0, 0.0, 0.0, 1.0]
],
  "dcmmeta_shape": [104, 104, 60, 449],
  "dcmmeta_slice_dim": 2,
  "dcmmeta_version": 0.6,
  "global": {
    "const": {
      "AcquisitionMatrix": [104, 0, 0, 104],
      "AngioFlag": "N",
      "BitsAllocated": 16,
      "BitsStored": 16,
      "BodyPartExamined": "BRAIN",
      "Columns": 832,
      "EchoNumbers": 1,
      "EchoTime": 37.0,
      "EchoTrainLength": 104,
      "FlipAngle": 52.0,
      "HighBit": 15,
      "ImageOrientationPatient": [0.99995976797787, -0.0088918604369, 0.00118205060004, 0.00872654053164, 0.93382819600379, -0.3576153629791],
      "ImagePositionPatient": [-838.87604753118, -796.64609697232, 268.45429125946],
      "ImageType": [
        "ORIGINAL",
        "PRIMARY",
        "P",
        "MB",
        "ND",
        "MOSAIC"
],
      "ImagedNucleus": "1H",
      "ImagingFrequency": 123.260222,
      "InPlanePhaseEncodingDirection": "COL",
      "LargestImagePixelValue": 4095,
      "MRAcquisitionType": "2D",
      "MagneticFieldStrength": 3.0,
      "Manufacturer": "SIEMENS",
      "ManufacturerModelName": "Prisma_fit",
      "Modality": "MR",
      "NumberOfAverages": 1.0,
      "NumberOfPhaseEncodingSteps": 104,
      "PercentPhaseFieldOfView": 100.0,
      "PercentSampling": 100.0,
      "PerformedProcedureStepStartTime": "184718.473000",
      "PhotometricInterpretation": "MONOCHROME2",
      "PixelBandwidth": 2290.0,
      "PixelRepresentation": 0,
      "PixelSpacing": [2.0, 2.0],
      "ProtocolName": "func_task-mariostars_run-02",
      "RepetitionTime": 1490.0,
      "RescaleIntercept": -4096.0,
      "RescaleSlope": 2.0,
      "RescaleType": "US",
      "Rows": 832,
      "SAR": 0.08165525966676,
      "SamplesPerPixel": 1,
      "ScanOptions": "FS",
      "ScanningSequence": "EP",
      "SequenceName": "epfid2d1_104",
      "SequenceVariant": [
        "SK",
        "SS"
],
      "SeriesDescription": "func_task-mariostars_run-02",
      "SeriesNumber": 15,
      "SeriesTime": "190649.450000",
      "SliceLocation": -35.930242349361,
      "SliceThickness": 2.0,
      "SmallestImagePixelValue": 0,
      "SoftwareVersions": "syngo MR E11",
      "SpacingBetweenSlices": 2.0000000425882,
      "SpecificCharacterSet": "ISO_IR 100",
      "StudyID": "1",
      "StudyTime": "184718.409000",
      "TransmitCoilName": "Body",
      "VariableFlipAngleFlag": "N",
      "WindowCenterWidthExplanation": "Algo1",
      "dBdt": 0.0},
    "slices": {}
  },
  "time": {
    "samples": {
      "AcquisitionNumber": [1, 2, 3, 4, 5, 6, 7, 8, 9, 10, 11, 12, 13, 14, 15, 16, 17, 18, 19, 20, 21, 22, 23, 24, 25, 26, 27, 28, 29, 30, 31, 32, 33, 34, 35, 36, 37, 38, 39, 40, 41, 42, 43, 44, 45, 46, 47, 48, 49, 50, 51, 52, 53, 54, 55, 56, 57, 58, 59, 60, 61, 62, 63, 64, 65, 66, 67, 68, 69, 70, 71, 72, 73, 74, 75, 76, 77, 78, 79, 80, 81, 82, 83, 84, 85, 86, 87, 88, 89, 90, 91, 92, 93, 94, 95, 96, 97, 98, 99, 100, 101, 102, 103, 104, 105, 106, 107, 108, 109, 110, 111, 112, 113, 114, 115, 116, 117, 118, 119, 120, 121, 122, 123, 124, 125, 126, 127, 128, 129, 130, 131, 132, 133, 134, 135, 136, 137, 138, 139, 140, 141, 142, 143, 144, 145, 146, 147, 148, 149, 150, 151, 152, 153, 154, 155, 156, 157, 158, 159, 160, 161, 162, 163, 164, 165, 166, 167, 168, 169, 170, 171, 172, 173, 174, 175, 176, 177, 178, 179, 180, 181, 182, 183, 184, 185, 186, 187, 188, 189, 190, 191, 192, 193, 194, 195, 196, 197, 198, 199, 200, 201, 202, 203, 204, 205, 206, 207, 208, 209, 210, 211, 212, 213, 214, 215, 216, 217, 218, 219, 220, 221, 222, 223, 224, 225, 226, 227, 228, 229, 230, 231, 232, 233, 234, 235, 236, 237, 238, 239, 240, 241, 242, 243, 244, 245, 246, 247, 248, 249, 250, 251, 252, 253, 254, 255, 256, 257, 258, 259, 260, 261, 262, 263, 264, 265, 266, 267, 268, 269, 270, 271, 272, 273, 274, 275, 276, 277, 278, 279, 280, 281, 282, 283, 284, 285, 286, 287, 288, 289, 290, 291, 292, 293, 294, 295, 296, 297, 298, 299, 300, 301, 302, 303, 304, 305, 306, 307, 308, 309, 310, 311, 312, 313, 314, 315, 316, 317, 318, 319, 320, 321, 322, 323, 324, 325, 326, 327, 328, 329, 330, 331, 332, 333, 334, 335, 336, 337, 338, 339, 340, 341, 342, 343, 344, 345, 346, 347, 348, 349, 350, 351, 352, 353, 354, 355, 356, 357, 358, 359, 360, 361, 362, 363, 364, 365, 366, 367, 368, 369, 370, 371, 372, 373, 374, 375, 376, 377, 378, 379, 380, 381, 382, 383, 384, 385, 386, 387, 388, 389, 390, 391, 392, 393, 394, 395, 396, 397, 398, 399, 400, 401, 402, 403, 404, 405, 406, 407, 408, 409, 410, 411, 412, 413, 414, 415, 416, 417, 418, 419, 420, 421, 422, 423, 424, 425, 426, 427, 428, 429, 430, 431, 432, 433, 434, 435, 436, 437, 438, 439, 440, 441, 442, 443, 444, 445, 446, 447, 448, 449],
      "AcquisitionTime": ["190534.835000", "190536.325000", "190537.815000", "190539.305000", "190540.795000", "190542.285000", "190543.775000", "190545.265000", "190546.755000", "190548.245000", "190549.735000", "190551.225000", "190552.715000", "190554.205000", "190555.695000", "190557.185000", "190558.675000", "190600.165000", "190601.655000", "190603.145000", "190604.635000", "190606.125000", "190607.615000", "190609.105000", "190610.595000", "190612.085000", "190613.575000", "190615.065000", "190616.555000", "190618.045000", "190619.535000", "190621.025000", "190622.515000", "190624.005000", "190625.495000", "190626.985000", "190628.475000", "190629.965000", "190631.455000", "190632.945000", "190634.435000", "190635.925000", "190637.415000", "190638.905000", "190640.395000", "190641.885000", "190643.375000", "190644.865000", "190646.355000", "190647.845000", "190649.335000", "190650.825000", "190652.315000", "190653.805000", "190655.295000", "190656.785000", "190658.275000", "190659.765000", "190701.255000", "190702.745000", "190704.235000", "190705.725000", "190707.215000", "190708.705000", "190710.195000", "190711.685000", "190713.175000", "190714.665000", "190716.155000", "190717.645000", "190719.135000", "190720.625000", "190722.115000", "190723.605000", "190725.095000", "190726.585000", "190728.075000", "190729.565000", "190731.055000", "190732.545000", "190734.035000", "190735.525000", "190737.015000", "190738.505000", "190739.995000", "190741.485000", "190742.975000", "190744.465000", "190745.955000", "190747.445000", "190748.935000", "190750.425000", "190751.915000", "190753.405000", "190754.895000", "190756.385000", "190757.875000", "190759.365000", "190800.855000", "190802.345000", "190803.835000", "190805.325000", "190806.815000", "190808.305000", "190809.795000", "190811.285000", "190812.775000", "190814.265000", "190815.755000", "190817.245000", "190818.735000", "190820.225000", "190821.715000", "190823.205000", "190824.695000", "190826.185000", "190827.675000", "190829.165000", "190830.655000", "190832.145000", "190833.635000", "190835.125000", "190836.615000", "190838.105000", "190839.595000", "190841.085000", "190842.575000", "190844.065000", "190845.555000", "190847.045000", "190848.535000", "190850.025000", "190851.515000", "190853.005000", "190854.495000", "190855.985000", "190857.475000", "190858.965000", "190900.455000", "190901.945000", "190903.435000", "190904.925000", "190906.415000", "190907.905000", "190909.395000", "190910.885000", "190912.375000", "190913.865000", "190915.355000", "190916.845000", "190918.335000", "190919.825000", "190921.315000", "190922.805000", "190924.295000", "190925.785000", "190927.275000", "190928.765000", "190930.255000", "190931.745000", "190933.235000", "190934.725000", "190936.215000", "190937.705000", "190939.195000", "190940.685000", "190942.175000", "190943.665000", "190945.155000", "190946.645000", "190948.135000", "190949.625000", "190951.115000", "190952.605000", "190954.095000", "190955.585000", "190957.075000", "190958.565000", "191000.055000", "191001.545000", "191003.035000", "191004.525000", "191006.015000", "191007.505000", "191008.995000", "191010.485000", "191011.975000", "191013.465000", "191014.955000", "191016.445000", "191017.935000", "191019.425000", "191020.915000", "191022.405000", "191023.895000", "191025.385000", "191026.875000", "191028.365000", "191029.855000", "191031.345000", "191032.835000", "191034.325000", "191035.815000", "191037.305000", "191038.795000", "191040.285000", "191041.775000", "191043.265000", "191044.755000", "191046.245000", "191047.735000", "191049.225000", "191050.715000", "191052.205000", "191053.695000", "191055.185000", "191056.675000", "191058.165000", "191059.655000", "191101.145000", "191102.635000", "191104.125000", "191105.615000", "191107.105000", "191108.595000", "191110.085000", "191111.575000", "191113.065000", "191114.555000", "191116.045000", "191117.535000", "191119.025000", "191120.515000", "191122.005000", "191123.495000", "191124.985000", "191126.475000", "191127.965000", "191129.455000", "191130.945000", "191132.435000", "191133.925000", "191135.415000", "191136.905000", "191138.395000", "191139.885000", "191141.375000", "191142.865000", "191144.355000", "191145.845000", "191147.335000", "191148.825000", "191150.315000", "191151.805000", "191153.295000", "191154.785000", "191156.275000", "191157.765000", "191159.255000", "191200.745000", "191202.235000", "191203.725000", "191205.215000", "191206.705000", "191208.195000", "191209.685000", "191211.175000", "191212.665000", "191214.155000", "191215.645000", "191217.135000", "191218.625000", "191220.115000", "191221.605000", "191223.095000", "191224.585000", "191226.075000", "191227.565000", "191229.055000", "191230.545000", "191232.035000", "191233.525000", "191235.015000", "191236.505000", "191237.995000", "191239.485000", "191240.975000", "191242.465000", "191243.955000", "191245.445000", "191246.935000", "191248.425000", "191249.915000", "191251.405000", "191252.895000", "191254.385000", "191255.875000", "191257.365000", "191258.855000", "191300.345000", "191301.835000", "191303.325000", "191304.815000", "191306.305000", "191307.795000", "191309.285000", "191310.775000", "191312.265000", "191313.755000", "191315.245000", "191316.735000", "191318.225000", "191319.715000", "191321.205000", "191322.695000", "191324.185000", "191325.675000", "191327.165000", "191328.655000", "191330.145000", "191331.635000", "191333.125000", "191334.615000", "191336.105000", "191337.595000", "191339.085000", "191340.575000", "191342.065000", "191343.555000", "191345.045000", "191346.535000", "191348.025000", "191349.515000", "191351.005000", "191352.495000", "191353.985000", "191355.475000", "191356.965000", "191358.455000", "191359.945000", "191401.435000", "191402.925000", "191404.415000", "191405.905000", "191407.395000", "191408.885000", "191410.375000", "191411.865000", "191413.355000", "191414.845000", "191416.335000", "191417.825000", "191419.315000", "191420.805000", "191422.295000", "191423.785000", "191425.275000", "191426.765000", "191428.255000", "191429.745000", "191431.235000", "191432.725000", "191434.215000", "191435.705000", "191437.195000", "191438.685000", "191440.175000", "191441.665000", "191443.155000", "191444.645000", "191446.135000", "191447.625000", "191449.115000", "191450.605000", "191452.095000", "191453.585000", "191455.075000", "191456.565000", "191458.055000", "191459.545000", "191501.035000", "191502.525000", "191504.015000", "191505.505000", "191506.995000", "191508.485000", "191509.975000", "191511.465000", "191512.955000", "191514.445000", "191515.935000", "191517.425000", "191518.915000", "191520.405000", "191521.895000", "191523.385000", "191524.875000", "191526.365000", "191527.855000", "191529.345000", "191530.835000", "191532.325000", "191533.815000", "191535.305000", "191536.795000", "191538.285000", "191539.775000", "191541.265000", "191542.755000", "191544.245000", "191545.735000", "191547.225000", "191548.715000", "191550.205000", "191551.695000", "191553.185000", "191554.675000", "191556.165000", "191557.655000", "191559.145000", "191600.635000", "191602.125000", "191603.615000", "191605.105000", "191606.595000", "191608.085000", "191609.575000", "191611.065000", "191612.555000", "191614.045000", "191615.535000", "191617.025000", "191618.515000", "191620.005000", "191621.495000", "191622.985000", "191624.475000", "191625.965000", "191627.455000", "191628.945000", "191630.435000", "191631.925000", "191633.415000", "191634.905000", "191636.395000", "191637.885000", "191639.375000", "191640.865000", "191642.355000"],
      "ContentTime": ["190649.452000", "190649.455000", "190649.458000", "190649.460000", "190649.463000", "190649.465000", "190649.468000", "190649.470000", "190649.473000", "190649.475000", "190649.477000", "190649.486000", "190649.489000", "190649.491000", "190649.494000", "190649.496000", "190649.499000", "190649.502000", "190649.504000", "190649.507000", "190649.509000", "190649.512000", "190649.514000", "190649.517000", "190649.519000", "190709.391000", "190709.394000", "190709.396000", "190709.399000", "190709.401000", "190709.404000", "190709.406000", "190709.409000", "190709.411000", "190709.414000", "190709.416000", "190709.425000", "190709.427000", "190709.430000", "190709.432000", "190709.447000", "190709.449000", "190709.452000", "190709.454000", "190709.457000", "190729.385000", "190729.387000", "190729.390000", "190729.392000", "190729.395000", "190729.397000", "190729.400000", "190729.402000", "190729.405000", "190729.407000", "190729.410000", "190729.419000", "190729.422000", "190729.424000", "190729.426000", "190729.429000", "190729.431000", "190729.434000", "190729.436000", "190729.439000", "190749.396000", "190749.399000", "190749.401000", "190749.404000", "190749.406000", "190749.409000", "190749.411000", "190749.414000", "190749.416000", "190749.419000", "190749.421000", "190749.423000", "190749.426000", "190749.428000", "190749.431000", "190749.433000", "190749.436000", "190749.438000", "190749.441000", "190749.443000", "190809.395000", "190809.398000", "190809.400000", "190809.403000", "190809.405000", "190809.408000", "190809.410000", "190809.413000", "190809.415000", "190809.417000", "190809.420000", "190809.422000", "190809.425000", "190809.427000", "190809.430000", "190809.432000", "190809.435000", "190809.437000", "190849.427000", "190849.430000", "190849.432000", "190849.435000", "190849.437000", "190849.452000", "190849.454000", "190849.457000", "190849.459000", "190849.462000", "190849.465000", "190849.467000", "190849.470000", "190849.472000", "190849.475000", "190849.477000", "190849.480000", "190849.482000", "190849.485000", "190849.487000", "190849.490000", "190849.492000", "190849.495000", "190849.497000", "190849.500000", "190849.502000", "190849.505000", "190929.434000", "190929.437000", "190929.439000", "190929.442000", "190929.444000", "190929.447000", "190929.449000", "190929.452000", "190929.454000", "190929.457000", "190929.459000", "190929.462000", "190929.464000", "190929.467000", "190929.469000", "190929.472000", "190929.474000", "190929.477000", "190929.479000", "190929.482000", "190929.484000", "190929.487000", "190929.489000", "190929.492000", "190929.494000", "190929.497000", "190929.499000", "191009.431000", "191009.434000", "191009.436000", "191009.439000", "191009.441000", "191009.444000", "191009.446000", "191009.449000", "191009.451000", "191009.454000", "191009.457000", "191009.459000", "191009.462000", "191009.464000", "191009.468000", "191009.470000", "191009.473000", "191009.475000", "191009.477000", "191009.480000", "191009.482000", "191009.485000", "191009.487000", "191009.490000", "191009.492000", "191009.495000", "191049.428000", "191049.430000", "191049.433000", "191049.435000", "191049.438000", "191049.440000", "191049.443000", "191049.445000", "191049.448000", "191049.450000", "191049.453000", "191049.455000", "191049.458000", "191049.460000", "191049.463000", "191049.466000", "191049.468000", "191049.472000", "191049.474000", "191049.477000", "191049.479000", "191049.482000", "191049.484000", "191049.487000", "191049.489000", "191049.492000", "191049.494000", "191129.876000", "191129.878000", "191129.881000", "191129.884000", "191129.886000", "191129.889000", "191129.891000", "191129.894000", "191129.896000", "191129.899000", "191129.901000", "191129.904000", "191129.906000", "191129.909000", "191129.911000", "191129.914000", "191129.916000", "191129.919000", "191129.921000", "191129.924000", "191129.926000", "191129.929000", "191129.931000", "191129.934000", "191129.936000", "191129.939000", "191129.941000", "191209.421000", "191209.424000", "191209.427000", "191209.430000", "191209.432000", "191209.435000", "191209.438000", "191209.440000", "191209.443000", "191209.445000", "191209.448000", "191209.450000", "191209.453000", "191209.455000", "191209.458000", "191209.460000", "191209.463000", "191209.465000", "191209.468000", "191209.470000", "191209.473000", "191209.475000", "191209.478000", "191209.480000", "191209.483000", "191209.485000", "191209.488000", "191249.424000", "191249.427000", "191249.430000", "191249.432000", "191249.435000", "191249.437000", "191249.439000", "191249.442000", "191249.444000", "191249.447000", "191249.449000", "191249.452000", "191249.455000", "191249.457000", "191249.459000", "191249.462000", "191249.465000", "191249.467000", "191249.470000", "191249.472000", "191249.474000", "191249.477000", "191249.479000", "191249.483000", "191249.485000", "191249.488000", "191249.490000", "191329.433000", "191329.436000", "191329.438000", "191329.441000", "191329.443000", "191329.446000", "191329.448000", "191329.451000", "191329.453000", "191329.456000", "191329.459000", "191329.461000", "191329.464000", "191329.466000", "191329.469000", "191329.471000", "191329.474000", "191329.476000", "191329.479000", "191329.481000", "191329.484000", "191329.486000", "191329.489000", "191329.491000", "191329.494000", "191329.496000", "191329.499000", "191409.419000", "191409.421000", "191409.424000", "191409.426000", "191409.429000", "191409.431000", "191409.434000", "191409.437000", "191409.439000", "191409.442000", "191409.444000", "191409.447000", "191409.449000", "191409.452000", "191409.455000", "191409.457000", "191409.460000", "191409.463000", "191409.465000", "191409.468000", "191409.470000", "191409.473000", "191409.475000", "191409.478000", "191409.480000", "191409.483000", "191409.485000", "191449.485000", "191449.487000", "191449.490000", "191449.492000", "191449.495000", "191449.497000", "191449.500000", "191449.502000", "191449.505000", "191449.507000", "191449.510000", "191449.512000", "191449.515000", "191449.517000", "191449.520000", "191449.522000", "191449.525000", "191449.527000", "191449.530000", "191449.533000", "191449.535000", "191449.537000", "191449.540000", "191449.543000", "191449.545000", "191449.548000", "191529.431000", "191529.434000", "191529.436000", "191529.439000", "191529.441000", "191529.444000", "191529.446000", "191529.449000", "191529.451000", "191529.454000", "191529.456000", "191529.459000", "191529.461000", "191529.464000", "191529.466000", "191529.469000", "191529.471000", "191529.474000", "191529.476000", "191529.479000", "191529.481000", "191529.484000", "191529.487000", "191529.489000", "191529.492000", "191529.494000", "191529.497000", "191609.434000", "191609.436000", "191609.439000", "191609.441000", "191609.444000", "191609.447000", "191609.449000", "191609.451000", "191609.454000", "191609.456000", "191609.459000", "191609.461000", "191609.464000", "191609.466000", "191609.469000", "191609.471000", "191609.474000", "191609.476000", "191609.479000", "191609.481000", "191609.484000", "191609.486000", "191609.489000", "191609.491000", "191609.494000", "191609.496000", "191609.499000", "191644.707000", "191644.710000", "191644.712000", "191644.715000", "191644.717000", "191644.720000", "191644.722000", "191644.725000", "191644.727000", "191644.730000", "191644.732000", "191644.735000", "191644.737000", "191644.740000", "191644.742000", "191644.745000", "191644.747000", "191644.750000", "191644.752000", "191644.755000", "191644.757000", "191644.760000", "191644.762000", "191644.765000"],
