{
  "AcquisitionMatrixPE": 104,
  "AcquisitionNumber": 1,
  "AcquisitionTime": "16:17:57.205000",
  "BandwidthPerPixelPhaseEncode": 17.17,
  "BaseResolution": 104,
  "BodyPartExamined": "BRAIN",
  "CoilCombinationMethod": "Sum of Squares",
  "ConsistencyInfo": "N4_VE11C_LATEST_20160120",
  "ConversionSoftware": "dcm2niix",
  "ConversionSoftwareVersion": "v1.0.20211006",
  "DerivedVendorReportedEchoSpacing": 0.000560011,
  "DeviceSerialNumber": "167006",
  "DwellTime": 2.1e-06,
  "EchoTime": 0.037,
  "EchoTrainLength": 104,
  "EffectiveEchoSpacing": 0.000560011,
  "FlipAngle": 52,
  "HeudiconvVersion": "0.11.3.post9+gc939bf8",
  "ImageComments": "Unaliased MB4/PE3/LB",
  "ImageOrientationPatientDICOM": [0.999196, 0.0159358, 0.0367958, 0.00558063, 0.853442, -0.521158],
  "ImageOrientationText": "Tra>Cor(-31.4)>Sag(2.3)",
  "ImageType": [
    "ORIGINAL",
    "PRIMARY",
    "M",
    "MB",
    "ND",
    "MOSAIC"
],
  "ImagingFrequency": 123.259,
  "InPlanePhaseEncodingDirectionDICOM": "COL",
  "InstitutionAddress": "Chemin Queen-Mary 4565,Montreal,District,CA,H3W 1W5",
  "InstitutionName": "IUGM",
  "InstitutionalDepartmentName": "Department",
  "MRAcquisitionType": "2D",
  "MagneticFieldStrength": 3,
  "Manufacturer": "Siemens",
  "ManufacturersModelName": "Prisma_fit",
  "MatrixCoilMode": "SENSE",
  "Modality": "MR",
  "MultibandAccelerationFactor": 4,
  "PartialFourier": 1,
  "PatientPosition": "HFS",
  "PercentPhaseFOV": 100,
  "PercentSampling": 100,
  "PhaseEncodingDirection": "j",
  "PhaseEncodingSteps": 104,
  "PhaseResolution": 1,
  "PixelBandwidth": 2290,
  "ProcedureStepDescription": "games^mariostars",
  "ProtocolName": "func_task-mariostars_run-01",
  "PulseSequenceDetails": "%CustomerSeq%\\cmrr_mbep2d_bold",
  "ReceiveCoilActiveElements": "HC1-7;NC1,2",
  "ReceiveCoilName": "HeadNeck_64",
  "ReconMatrixPE": 104,
  "RepetitionTime": 1.49,
  "SAR": 0.0627366,
  "ScanOptions": "FS",
  "ScanningSequence": "EP",
  "SequenceName": "epfid2d1_104",
  "SequenceVariant": "SK\\SS",
  "SeriesDescription": "func_task-mariostars_run-01",
  "SeriesNumber": 11,
  "ShimSetting": [626, -7181, -8873, 291, 16, -168, -29, 16],
  "SliceThickness": 2,
  "SliceTiming": [0, 0.785, 0.0975, 0.8825, 0.1975, 0.98, 0.295, 1.0775, 0.3925, 1.1775, 0.49, 1.275, 0.5875, 1.3725, 0.6875, 0, 0.785, 0.0975, 0.8825, 0.1975, 0.98, 0.295, 1.0775, 0.3925, 1.1775, 0.49, 1.275, 0.5875, 1.3725, 0.6875, 0, 0.785, 0.0975, 0.8825, 0.1975, 0.98, 0.295, 1.0775, 0.3925, 1.1775, 0.49, 1.275, 0.5875, 1.3725, 0.6875, 0, 0.785, 0.0975, 0.8825, 0.1975, 0.98, 0.295, 1.0775, 0.3925, 1.1775, 0.49, 1.275, 0.5875, 1.3725, 0.6875],
  "SoftwareVersions": "syngo MR E11",
  "SpacingBetweenSlices": 2,
  "StationName": "MRC35049",
  "TaskName": "mariostars",
  "TotalReadoutTime": 0.0576811,
  "TxRefAmp": 286.206,
  "WipMemBlock": "5a0d3b69-37bf-45e5-87a8-6202696b4e37||Sequence: R017 ve11c/master r/75a17815+; Jun 28 2022 16:32:11 by eja",
  "dcmmeta_affine": [
    [-1.9983915090560913, 0.011161260306835175, 0.07941622287034988, 105.07964324951172],
    [-0.03187159076333046, 1.7068835496902466, -1.041888952255249, -48.421512603759766],
    [0.07359152287244797, 1.0423165559768677, 1.7053329944610596, -101.79630279541016],
    [0.0, 0.0, 0.0, 1.0]
],
  "dcmmeta_reorient_transform": [
    [0.0, -1.0, 0.0, 103.0],
    [1.0, 0.0, 0.0, 0.0],
    [0.0, 0.0, 1.0, 0.0],
    [0.0, 0.0, 0.0, 1.0]
],
  "dcmmeta_shape": [104, 104, 60, 491],
  "dcmmeta_slice_dim": 2,
  "dcmmeta_version": 0.6,
  "global": {
    "const": {
      "AcquisitionMatrix": [104, 0, 0, 104],
      "AngioFlag": "N",
      "BitsAllocated": 16,
      "BitsStored": 16,
      "BodyPartExamined": "BRAIN",
      "Columns": 832,
      "EchoNumbers": 1,
      "EchoTime": 37.0,
      "EchoTrainLength": 104,
      "FlipAngle": 52.0,
      "HighBit": 15,
      "ImageOrientationPatient": [0.99919573776625, 0.01593579530683, 0.0367957614094, 0.00558063036916, 0.85344179656782, -0.5211582834761],
      "ImagePositionPatient": [-837.70644670961, -760.29438544362, 358.17821699232],
      "ImageType": [
        "ORIGINAL",
        "PRIMARY",
        "M",
        "MB",
        "ND",
        "MOSAIC"
],
      "ImagedNucleus": "1H",
      "ImagingFrequency": 123.25881,
      "InPlanePhaseEncodingDirection": "COL",
      "MRAcquisitionType": "2D",
      "MagneticFieldStrength": 3.0,
      "Manufacturer": "SIEMENS",
      "ManufacturerModelName": "Prisma_fit",
      "Modality": "MR",
      "NumberOfAverages": 1.0,
      "NumberOfPhaseEncodingSteps": 104,
      "PercentPhaseFieldOfView": 100.0,
      "PercentSampling": 100.0,
      "PerformedProcedureStepStartTime": "161423.293000",
      "PhotometricInterpretation": "MONOCHROME2",
      "PixelBandwidth": 2290.0,
      "PixelRepresentation": 0,
      "PixelSpacing": [2.0, 2.0],
      "ProtocolName": "func_task-mariostars_run-01",
      "RepetitionTime": 1490.0,
      "Rows": 832,
      "SAR": 0.06273657698146,
      "SamplesPerPixel": 1,
      "ScanOptions": "FS",
      "ScanningSequence": "EP",
      "SequenceName": "epfid2d1_104",
      "SequenceVariant": [
        "SK",
        "SS"
],
      "SeriesDescription": "func_task-mariostars_run-01",
      "SeriesNumber": 11,
      "SeriesTime": "161928.004000",
      "SliceLocation": -57.400863529051,
      "SliceThickness": 2.0,
      "SmallestImagePixelValue": 0,
      "SoftwareVersions": "syngo MR E11",
      "SpacingBetweenSlices": 2.0000000085991,
      "SpecificCharacterSet": "ISO_IR 100",
      "StudyID": "1",
      "StudyTime": "161423.226000",
      "TransmitCoilName": "Body",
      "VariableFlipAngleFlag": "N",
      "WindowCenterWidthExplanation": "Algo1",
      "dBdt": 0.0},
    "slices": {}
  },
  "time": {
    "samples": {
      "AcquisitionNumber": [1, 2, 3, 4, 5, 6, 7, 8, 9, 10, 11, 12, 13, 14, 15, 16, 17, 18, 19, 20, 21, 22, 23, 24, 25, 26, 27, 28, 29, 30, 31, 32, 33, 34, 35, 36, 37, 38, 39, 40, 41, 42, 43, 44, 45, 46, 47, 48, 49, 50, 51, 52, 53, 54, 55, 56, 57, 58, 59, 60, 61, 62, 63, 64, 65, 66, 67, 68, 69, 70, 71, 72, 73, 74, 75, 76, 77, 78, 79, 80, 81, 82, 83, 84, 85, 86, 87, 88, 89, 90, 91, 92, 93, 94, 95, 96, 97, 98, 99, 100, 101, 102, 103, 104, 105, 106, 107, 108, 109, 110, 111, 112, 113, 114, 115, 116, 117, 118, 119, 120, 121, 122, 123, 124, 125, 126, 127, 128, 129, 130, 131, 132, 133, 134, 135, 136, 137, 138, 139, 140, 141, 142, 143, 144, 145, 146, 147, 148, 149, 150, 151, 152, 153, 154, 155, 156, 157, 158, 159, 160, 161, 162, 163, 164, 165, 166, 167, 168, 169, 170, 171, 172, 173, 174, 175, 176, 177, 178, 179, 180, 181, 182, 183, 184, 185, 186, 187, 188, 189, 190, 191, 192, 193, 194, 195, 196, 197, 198, 199, 200, 201, 202, 203, 204, 205, 206, 207, 208, 209, 210, 211, 212, 213, 214, 215, 216, 217, 218, 219, 220, 221, 222, 223, 224, 225, 226, 227, 228, 229, 230, 231, 232, 233, 234, 235, 236, 237, 238, 239, 240, 241, 242, 243, 244, 245, 246, 247, 248, 249, 250, 251, 252, 253, 254, 255, 256, 257, 258, 259, 260, 261, 262, 263, 264, 265, 266, 267, 268, 269, 270, 271, 272, 273, 274, 275, 276, 277, 278, 279, 280, 281, 282, 283, 284, 285, 286, 287, 288, 289, 290, 291, 292, 293, 294, 295, 296, 297, 298, 299, 300, 301, 302, 303, 304, 305, 306, 307, 308, 309, 310, 311, 312, 313, 314, 315, 316, 317, 318, 319, 320, 321, 322, 323, 324, 325, 326, 327, 328, 329, 330, 331, 332, 333, 334, 335, 336, 337, 338, 339, 340, 341, 342, 343, 344, 345, 346, 347, 348, 349, 350, 351, 352, 353, 354, 355, 356, 357, 358, 359, 360, 361, 362, 363, 364, 365, 366, 367, 368, 369, 370, 371, 372, 373, 374, 375, 376, 377, 378, 379, 380, 381, 382, 383, 384, 385, 386, 387, 388, 389, 390, 391, 392, 393, 394, 395, 396, 397, 398, 399, 400, 401, 402, 403, 404, 405, 406, 407, 408, 409, 410, 411, 412, 413, 414, 415, 416, 417, 418, 419, 420, 421, 422, 423, 424, 425, 426, 427, 428, 429, 430, 431, 432, 433, 434, 435, 436, 437, 438, 439, 440, 441, 442, 443, 444, 445, 446, 447, 448, 449, 450, 451, 452, 453, 454, 455, 456, 457, 458, 459, 460, 461, 462, 463, 464, 465, 466, 467, 468, 469, 470, 471, 472, 473, 474, 475, 476, 477, 478, 479, 480, 481, 482, 483, 484, 485, 486, 487, 488, 489, 490, 491],
      "AcquisitionTime": ["161757.205000", "161758.695000", "161800.185000", "161801.675000", "161803.165000", "161804.655000", "161806.145000", "161807.635000", "161809.125000", "161810.615000", "161812.105000", "161813.595000", "161815.085000", "161816.575000", "161818.065000", "161819.555000", "161821.045000", "161822.535000", "161824.025000", "161825.515000", "161827.005000", "161828.495000", "161829.985000", "161831.475000", "161832.965000", "161834.455000", "161835.945000", "161837.435000", "161838.925000", "161840.415000", "161841.905000", "161843.395000", "161844.885000", "161846.375000", "161847.865000", "161849.355000", "161850.845000", "161852.335000", "161853.825000", "161855.315000", "161856.805000", "161858.295000", "161859.785000", "161901.275000", "161902.765000", "161904.255000", "161905.745000", "161907.235000", "161908.725000", "161910.215000", "161911.705000", "161913.195000", "161914.685000", "161916.175000", "161917.665000", "161919.155000", "161920.645000", "161922.135000", "161923.625000", "161925.115000", "161926.605000", "161928.095000", "161929.585000", "161931.075000", "161932.565000", "161934.055000", "161935.545000", "161937.035000", "161938.525000", "161940.015000", "161941.505000", "161942.995000", "161944.485000", "161945.975000", "161947.465000", "161948.955000", "161950.445000", "161951.935000", "161953.425000", "161954.915000", "161956.405000", "161957.895000", "161959.385000", "162000.875000", "162002.365000", "162003.855000", "162005.345000", "162006.835000", "162008.325000", "162009.815000", "162011.305000", "162012.795000", "162014.285000", "162015.775000", "162017.265000", "162018.755000", "162020.245000", "162021.735000", "162023.225000", "162024.715000", "162026.205000", "162027.695000", "162029.185000", "162030.675000", "162032.165000", "162033.655000", "162035.145000", "162036.635000", "162038.125000", "162039.615000", "162041.105000", "162042.595000", "162044.085000", "162045.575000", "162047.065000", "162048.555000", "162050.045000", "162051.535000", "162053.025000", "162054.515000", "162056.005000", "162057.495000", "162058.985000", "162100.475000", "162101.965000", "162103.455000", "162104.945000", "162106.435000", "162107.925000", "162109.415000", "162110.905000", "162112.395000", "162113.885000", "162115.375000", "162116.865000", "162118.355000", "162119.845000", "162121.335000", "162122.825000", "162124.315000", "162125.805000", "162127.295000", "162128.785000", "162130.275000", "162131.765000", "162133.255000", "162134.745000", "162136.235000", "162137.725000", "162139.215000", "162140.705000", "162142.195000", "162143.685000", "162145.175000", "162146.665000", "162148.155000", "162149.645000", "162151.135000", "162152.625000", "162154.115000", "162155.605000", "162157.095000", "162158.585000", "162200.075000", "162201.565000", "162203.055000", "162204.545000", "162206.035000", "162207.525000", "162209.015000", "162210.505000", "162211.995000", "162213.485000", "162214.975000", "162216.465000", "162217.955000", "162219.445000", "162220.935000", "162222.425000", "162223.915000", "162225.405000", "162226.895000", "162228.385000", "162229.875000", "162231.365000", "162232.855000", "162234.345000", "162235.835000", "162237.325000", "162238.815000", "162240.305000", "162241.795000", "162243.285000", "162244.775000", "162246.265000", "162247.755000", "162249.245000", "162250.735000", "162252.225000", "162253.715000", "162255.205000", "162256.695000", "162258.185000", "162259.675000", "162301.165000", "162302.655000", "162304.145000", "162305.635000", "162307.125000", "162308.615000", "162310.105000", "162311.595000", "162313.085000", "162314.575000", "162316.065000", "162317.555000", "162319.045000", "162320.535000", "162322.025000", "162323.515000", "162325.005000", "162326.495000", "162327.985000", "162329.475000", "162330.965000", "162332.455000", "162333.945000", "162335.435000", "162336.925000", "162338.415000", "162339.905000", "162341.395000", "162342.885000", "162344.375000", "162345.865000", "162347.355000", "162348.845000", "162350.335000", "162351.825000", "162353.315000", "162354.805000", "162356.295000", "162357.785000", "162359.275000", "162400.765000", "162402.255000", "162403.745000", "162405.235000", "162406.725000", "162408.215000", "162409.705000", "162411.195000", "162412.685000", "162414.175000", "162415.665000", "162417.155000", "162418.645000", "162420.135000", "162421.625000", "162423.115000", "162424.605000", "162426.095000", "162427.585000", "162429.075000", "162430.565000", "162432.055000", "162433.545000", "162435.035000", "162436.525000", "162438.015000", "162439.505000", "162440.995000", "162442.485000", "162443.975000", "162445.465000", "162446.955000", "162448.445000", "162449.935000", "162451.425000", "162452.915000", "162454.405000", "162455.895000", "162457.385000", "162458.875000", "162500.365000", "162501.855000", "162503.345000", "162504.835000", "162506.325000", "162507.815000", "162509.305000", "162510.795000", "162512.285000", "162513.775000", "162515.265000", "162516.755000", "162518.245000", "162519.735000", "162521.225000", "162522.715000", "162524.205000", "162525.695000", "162527.185000", "162528.675000", "162530.165000", "162531.655000", "162533.145000", "162534.635000", "162536.125000", "162537.615000", "162539.105000", "162540.595000", "162542.085000", "162543.575000", "162545.065000", "162546.555000", "162548.045000", "162549.535000", "162551.025000", "162552.515000", "162554.005000", "162555.495000", "162556.985000", "162558.475000", "162559.965000", "162601.455000", "162602.945000", "162604.435000", "162605.925000", "162607.415000", "162608.905000", "162610.395000", "162611.885000", "162613.375000", "162614.865000", "162616.355000", "162617.845000", "162619.335000", "162620.825000", "162622.315000", "162623.805000", "162625.295000", "162626.785000", "162628.275000", "162629.765000", "162631.255000", "162632.745000", "162634.235000", "162635.725000", "162637.215000", "162638.705000", "162640.195000", "162641.685000", "162643.175000", "162644.665000", "162646.155000", "162647.645000", "162649.135000", "162650.625000", "162652.115000", "162653.605000", "162655.095000", "162656.585000", "162658.075000", "162659.565000", "162701.055000", "162702.545000", "162704.035000", "162705.525000", "162707.015000", "162708.505000", "162709.995000", "162711.485000", "162712.975000", "162714.465000", "162715.955000", "162717.445000", "162718.935000", "162720.425000", "162721.915000", "162723.405000", "162724.895000", "162726.385000", "162727.875000", "162729.365000", "162730.855000", "162732.345000", "162733.835000", "162735.325000", "162736.815000", "162738.305000", "162739.795000", "162741.285000", "162742.775000", "162744.265000", "162745.755000", "162747.245000", "162748.735000", "162750.225000", "162751.715000", "162753.205000", "162754.695000", "162756.185000", "162757.675000", "162759.165000", "162800.655000", "162802.145000", "162803.635000", "162805.125000", "162806.615000", "162808.105000", "162809.595000", "162811.085000", "162812.575000", "162814.065000", "162815.555000", "162817.045000", "162818.535000", "162820.025000", "162821.515000", "162823.005000", "162824.495000", "162825.985000", "162827.475000", "162828.965000", "162830.455000", "162831.945000", "162833.435000", "162834.925000", "162836.415000", "162837.905000", "162839.395000", "162840.885000", "162842.375000", "162843.865000", "162845.355000", "162846.845000", "162848.335000", "162849.825000", "162851.315000", "162852.805000", "162854.295000", "162855.785000", "162857.275000", "162858.765000", "162900.255000", "162901.745000", "162903.235000", "162904.725000", "162906.215000", "162907.705000", "162909.195000", "162910.685000", "162912.175000", "162913.665000", "162915.155000", "162916.645000", "162918.135000", "162919.625000", "162921.115000", "162922.605000", "162924.095000", "162925.585000", "162927.075000", "162928.565000", "162930.055000", "162931.545000", "162933.035000", "162934.525000", "162936.015000", "162937.505000", "162938.995000", "162940.485000", "162941.975000", "162943.465000", "162944.955000", "162946.445000", "162947.935000", "162949.425000", "162950.915000", "162952.405000", "162953.895000", "162955.385000", "162956.875000", "162958.365000", "162959.855000", "163001.345000", "163002.835000", "163004.325000", "163005.815000", "163007.305000"],
      "ContentTime": ["161928.008000", "161928.012000", "161928.015000", "161928.018000", "161928.022000", "161928.025000", "161928.028000", "161928.032000", "161928.035000", "161928.038000", "161928.047000", "161928.050000", "161928.053000", "161928.057000", "161928.060000", "161928.063000", "161928.066000", "161928.070000", "161928.073000", "161928.076000", "161928.080000", "161928.083000", "161928.087000", "161928.090000", "161928.093000", "161928.104000", "161928.107000", "161928.111000", "161928.114000", "161928.117000", "161928.121000", "161928.124000", "161928.151000", "161928.154000", "161928.158000", "161928.161000", "161928.172000", "161928.175000", "161928.178000", "161947.967000", "161947.971000", "161947.974000", "161947.977000", "161947.981000", "161947.985000", "161947.988000", "161947.992000", "161947.995000", "161947.998000", "161948.001000", "161948.010000", "161948.013000", "161948.016000", "161948.019000", "161948.023000", "161948.026000", "161948.029000", "161948.032000", "161948.036000", "161948.039000", "162007.967000", "162007.971000", "162007.974000", "162007.978000", "162007.981000", "162007.985000", "162007.988000", "162007.991000", "162007.995000", "162007.998000", "162008.001000", "162008.004000", "162008.008000", "162008.011000", "162008.014000", "162008.017000", "162008.021000", "162008.024000", "162008.027000", "162008.030000", "162027.967000", "162027.971000", "162027.974000", "162027.977000", "162027.981000", "162027.984000", "162027.987000", "162027.990000", "162027.994000", "162027.997000", "162028.000000", "162028.003000", "162028.007000", "162028.010000", "162028.013000", "162028.017000", "162028.020000", "162028.023000", "162028.026000", "162028.030000", "162107.987000", "162107.991000", "162107.994000", "162107.997000", "162108.002000", "162108.005000", "162108.009000", "162108.012000", "162108.015000", "162108.019000", "162108.022000", "162108.025000", "162108.028000", "162108.032000", "162108.035000", "162108.038000", "162108.042000", "162108.045000", "162108.048000", "162108.052000", "162108.055000", "162108.058000", "162108.062000", "162108.065000", "162108.068000", "162108.071000", "162108.075000", "162147.967000", "162147.971000", "162147.974000", "162147.978000", "162147.981000", "162147.985000", "162148.000000", "162148.003000", "162148.007000", "162148.010000", "162148.013000", "162148.016000", "162148.020000", "162148.023000", "162148.026000", "162148.030000", "162148.033000", "162148.036000", "162148.039000", "162148.043000", "162148.046000", "162148.049000", "162148.053000", "162148.056000", "162148.059000", "162148.062000", "162148.066000", "162227.967000", "162227.971000", "162227.974000", "162227.977000", "162227.981000", "162227.984000", "162227.987000", "162227.991000", "162227.994000", "162227.997000", "162228.000000", "162228.004000", "162228.007000", "162228.010000", "162228.014000", "162228.017000", "162228.020000", "162228.024000", "162228.027000", "162228.030000", "162228.033000", "162228.037000", "162228.040000", "162228.043000", "162228.047000", "162228.050000", "162228.053000", "162307.967000", "162307.971000", "162307.974000", "162307.977000", "162307.981000", "162307.984000", "162307.990000", "162307.993000", "162307.996000", "162307.999000", "162308.003000", "162308.006000", "162308.009000", "162308.013000", "162308.016000", "162308.019000", "162308.023000", "162308.026000", "162308.029000", "162308.032000", "162308.036000", "162308.039000", "162308.042000", "162308.045000", "162308.049000", "162308.052000", "162308.055000", "162327.967000", "162327.971000", "162327.974000", "162327.978000", "162327.981000", "162327.984000", "162327.987000", "162327.991000", "162327.994000", "162327.997000", "162328.000000", "162328.004000", "162328.007000", "162407.967000", "162407.971000", "162407.974000", "162407.977000", "162407.981000", "162407.984000", "162407.987000", "162407.991000", "162407.994000", "162408.002000", "162408.005000", "162408.009000", "162408.021000", "162408.032000", "162408.036000", "162408.039000", "162408.042000", "162408.045000", "162408.049000", "162408.052000", "162408.055000", "162408.059000", "162408.062000", "162408.065000", "162408.069000", "162408.072000", "162408.075000", "162447.967000", "162447.971000", "162447.974000", "162447.977000", "162447.981000", "162447.984000", "162447.987000", "162447.991000", "162447.994000", "162447.997000", "162448.001000", "162448.004000", "162448.007000", "162448.010000", "162448.014000", "162448.017000", "162448.020000", "162448.024000", "162448.027000", "162448.030000", "162448.033000", "162448.037000", "162448.040000", "162448.043000", "162448.047000", "162448.050000", "162448.053000", "162527.967000", "162527.971000", "162527.974000", "162527.977000", "162527.981000", "162527.984000", "162527.987000", "162527.991000", "162527.994000", "162527.997000", "162528.002000", "162528.005000", "162528.008000", "162528.012000", "162528.015000", "162528.018000", "162528.022000", "162528.025000", "162528.028000", "162528.031000", "162528.035000", "162528.038000", "162528.041000", "162528.045000", "162528.048000", "162528.051000", "162528.054000", "162607.967000", "162607.971000", "162607.974000", "162607.978000", "162607.981000", "162607.984000", "162607.988000", "162607.991000", "162607.994000", "162607.998000", "162608.002000", "162608.005000", "162608.009000", "162608.012000", "162608.015000", "162608.018000", "162608.022000", "162608.025000", "162608.028000", "162608.032000", "162608.035000", "162608.038000", "162608.042000", "162608.045000", "162608.048000", "162608.052000", "162647.967000", "162647.971000", "162647.974000", "162647.977000", "162647.981000", "162647.984000", "162647.987000", "162647.991000", "162647.994000", "162647.998000", "162648.002000", "162648.005000", "162648.008000", "162648.012000", "162648.015000", "162648.018000", "162648.022000", "162648.025000", "162648.028000", "162648.031000", "162648.035000", "162648.038000", "162648.041000", "162648.045000", "162648.048000", "162648.051000", "162648.055000", "162727.967000", "162727.971000", "162727.974000", "162727.978000", "162727.981000", "162727.984000", "162727.988000", "162727.991000", "162727.994000", "162727.998000", "162728.001000", "162728.004000", "162728.008000", "162728.011000", "162728.014000", "162728.018000", "162728.021000", "162728.024000", "162728.027000", "162728.031000", "162728.034000", "162728.037000", "162728.041000", "162728.044000", "162728.047000", "162728.051000", "162728.054000", "162807.967000", "162807.971000", "162807.974000", "162807.978000", "162807.981000", "162807.984000", "162807.988000", "162807.991000", "162807.994000", "162807.997000", "162808.001000", "162808.004000", "162808.007000", "162808.011000", "162808.014000", "162808.017000", "162808.020000", "162808.024000", "162808.027000", "162808.030000", "162808.034000", "162808.037000", "162808.040000", "162808.044000", "162808.047000", "162808.050000", "162808.053000", "162847.967000", "162847.971000", "162847.974000", "162847.977000", "162847.991000", "162847.994000", "162847.998000", "162848.002000", "162848.005000", "162848.009000", "162848.012000", "162848.015000", "162848.018000", "162848.022000", "162848.025000", "162848.028000", "162848.032000", "162848.035000", "162848.038000", "162848.042000", "162848.045000", "162848.048000", "162848.051000", "162848.055000", "162848.058000", "162848.061000", "162848.065000", "162927.967000", "162927.971000", "162927.974000", "162927.978000", "162927.981000", "162927.985000", "162927.988000", "162927.991000", "162927.994000", "162927.998000", "162928.001000", "162928.004000", "162928.008000", "162928.011000", "162928.014000", "162928.018000", "162928.025000", "162928.028000", "162928.031000", "162928.035000", "162928.038000", "162928.041000", "162928.044000", "162928.048000", "162928.051000", "162928.054000", "162928.058000", "163007.967000", "163008.000000", "163008.003000", "163008.007000", "163008.010000", "163008.013000", "163008.017000", "163008.020000", "163008.023000", "163008.027000", "163008.030000", "163008.033000", "163008.036000", "163008.040000", "163008.043000", "163008.046000", "163008.050000", "163008.053000", "163008.056000", "163008.059000", "163008.063000", "163008.066000", "163008.069000", "163008.073000", "163008.076000", "163008.079000", "163009.881000", "163009.884000"],
