{
  "AcquisitionMatrixPE": 104,
  "AcquisitionNumber": 1,
  "AcquisitionTime": "16:43:51.715000",
  "BandwidthPerPixelPhaseEncode": 17.17,
  "BaseResolution": 104,
  "BodyPartExamined": "BRAIN",
  "CoilCombinationMethod": "Sum of Squares",
  "ConsistencyInfo": "N4_VE11C_LATEST_20160120",
  "ConversionSoftware": "dcm2niix",
  "ConversionSoftwareVersion": "v1.0.20211006",
  "DerivedVendorReportedEchoSpacing": 0.000560011,
  "DeviceSerialNumber": "167006",
  "DwellTime": 2.1e-06,
  "EchoTime": 0.037,
  "EchoTrainLength": 104,
  "EffectiveEchoSpacing": 0.000560011,
  "FlipAngle": 52,
  "HeudiconvVersion": "0.11.3.post9+gc939bf8",
  "ImageComments": "Unaliased MB4/PE3/LB",
  "ImageOrientationPatientDICOM": [0.999196, 0.0159358, 0.0367958, 0.00558063, 0.853442, -0.521158],
  "ImageOrientationText": "Tra>Cor(-31.4)>Sag(2.3)",
  "ImageType": [
    "ORIGINAL",
    "PRIMARY",
    "M",
    "MB",
    "ND",
    "MOSAIC"
],
  "ImagingFrequency": 123.259,
  "InPlanePhaseEncodingDirectionDICOM": "COL",
  "InstitutionAddress": "Chemin Queen-Mary 4565,Montreal,District,CA,H3W 1W5",
  "InstitutionName": "IUGM",
  "InstitutionalDepartmentName": "Department",
  "MRAcquisitionType": "2D",
  "MagneticFieldStrength": 3,
  "Manufacturer": "Siemens",
  "ManufacturersModelName": "Prisma_fit",
  "MatrixCoilMode": "SENSE",
  "Modality": "MR",
  "MultibandAccelerationFactor": 4,
  "PartialFourier": 1,
  "PatientPosition": "HFS",
  "PercentPhaseFOV": 100,
  "PercentSampling": 100,
  "PhaseEncodingDirection": "j",
  "PhaseEncodingSteps": 104,
  "PhaseResolution": 1,
  "PixelBandwidth": 2290,
  "ProcedureStepDescription": "games^mariostars",
  "ProtocolName": "func_task-mariostars_run-03",
  "PulseSequenceDetails": "%CustomerSeq%\\cmrr_mbep2d_bold",
  "ReceiveCoilActiveElements": "HC1-7;NC1,2",
  "ReceiveCoilName": "HeadNeck_64",
  "ReconMatrixPE": 104,
  "RepetitionTime": 1.49,
  "SAR": 0.0627366,
  "ScanOptions": "FS",
  "ScanningSequence": "EP",
  "SequenceName": "epfid2d1_104",
  "SequenceVariant": "SK\\SS",
  "SeriesDescription": "func_task-mariostars_run-03",
  "SeriesNumber": 17,
  "ShimSetting": [626, -7181, -8873, 291, 16, -168, -29, 16],
  "SliceThickness": 2,
  "SliceTiming": [0, 0.785, 0.0975, 0.8825, 0.1975, 0.98, 0.295, 1.0775, 0.3925, 1.1775, 0.49, 1.275, 0.5875, 1.3725, 0.6875, 0, 0.785, 0.0975, 0.8825, 0.1975, 0.98, 0.295, 1.0775, 0.3925, 1.1775, 0.49, 1.275, 0.5875, 1.3725, 0.6875, 0, 0.785, 0.0975, 0.8825, 0.1975, 0.98, 0.295, 1.0775, 0.3925, 1.1775, 0.49, 1.275, 0.5875, 1.3725, 0.6875, 0, 0.785, 0.0975, 0.8825, 0.1975, 0.98, 0.295, 1.0775, 0.3925, 1.1775, 0.49, 1.275, 0.5875, 1.3725, 0.6875],
  "SoftwareVersions": "syngo MR E11",
  "SpacingBetweenSlices": 2,
  "StationName": "MRC35049",
  "TaskName": "mariostars",
  "TotalReadoutTime": 0.0576811,
  "TxRefAmp": 286.206,
  "WipMemBlock": "5eaa23ba-b67f-4858-b70a-c036121b46a9||Sequence: R017 ve11c/master r/75a17815+; Jun 28 2022 16:32:11 by eja",
  "dcmmeta_affine": [
    [-1.9983915090560913, 0.011161260306835175, 0.07941622287034988, 105.07964324951172],
    [-0.03187159076333046, 1.7068835496902466, -1.041888952255249, -48.421512603759766],
    [0.07359152287244797, 1.0423165559768677, 1.7053329944610596, -101.79630279541016],
    [0.0, 0.0, 0.0, 1.0]
],
  "dcmmeta_reorient_transform": [
    [0.0, -1.0, 0.0, 103.0],
    [1.0, 0.0, 0.0, 0.0],
    [0.0, 0.0, 1.0, 0.0],
    [0.0, 0.0, 0.0, 1.0]
],
  "dcmmeta_shape": [104, 104, 60, 435],
  "dcmmeta_slice_dim": 2,
  "dcmmeta_version": 0.6,
  "global": {
    "const": {
      "AcquisitionMatrix": [104, 0, 0, 104],
      "AngioFlag": "N",
      "BitsAllocated": 16,
      "BitsStored": 16,
      "BodyPartExamined": "BRAIN",
      "Columns": 832,
      "EchoNumbers": 1,
      "EchoTime": 37.0,
      "EchoTrainLength": 104,
      "FlipAngle": 52.0,
      "HighBit": 15,
      "ImageOrientationPatient": [0.99919573776625, 0.01593579530683, 0.0367957614094, 0.00558063036916, 0.85344179656782, -0.5211582834761],
      "ImagePositionPatient": [-837.70644670961, -760.29438544362, 358.17821699232],
      "ImageType": [
        "ORIGINAL",
        "PRIMARY",
        "M",
        "MB",
        "ND",
        "MOSAIC"
],
      "ImagedNucleus": "1H",
      "ImagingFrequency": 123.258824,
      "InPlanePhaseEncodingDirection": "COL",
      "MRAcquisitionType": "2D",
      "MagneticFieldStrength": 3.0,
      "Manufacturer": "SIEMENS",
      "ManufacturerModelName": "Prisma_fit",
      "Modality": "MR",
      "NumberOfAverages": 1.0,
      "NumberOfPhaseEncodingSteps": 104,
      "PercentPhaseFieldOfView": 100.0,
      "PercentSampling": 100.0,
      "PerformedProcedureStepStartTime": "161423.293000",
      "PhotometricInterpretation": "MONOCHROME2",
      "PixelBandwidth": 2290.0,
      "PixelRepresentation": 0,
      "PixelSpacing": [2.0, 2.0],
      "ProtocolName": "func_task-mariostars_run-03",
      "RepetitionTime": 1490.0,
      "Rows": 832,
      "SAR": 0.06273657698146,
      "SamplesPerPixel": 1,
      "ScanOptions": "FS",
      "ScanningSequence": "EP",
      "SequenceName": "epfid2d1_104",
      "SequenceVariant": [
        "SK",
        "SS"
],
      "SeriesDescription": "func_task-mariostars_run-03",
      "SeriesNumber": 17,
      "SeriesTime": "164449.925000",
      "SliceLocation": -57.400863529051,
      "SliceThickness": 2.0,
      "SmallestImagePixelValue": 0,
      "SoftwareVersions": "syngo MR E11",
      "SpacingBetweenSlices": 2.0000000085991,
      "SpecificCharacterSet": "ISO_IR 100",
      "StudyID": "1",
      "StudyTime": "161423.226000",
      "TransmitCoilName": "Body",
      "VariableFlipAngleFlag": "N",
      "WindowCenterWidthExplanation": "Algo1",
      "dBdt": 0.0},
    "slices": {}
  },
  "time": {
    "samples": {
      "AcquisitionNumber": [1, 2, 3, 4, 5, 6, 7, 8, 9, 10, 11, 12, 13, 14, 15, 16, 17, 18, 19, 20, 21, 22, 23, 24, 25, 26, 27, 28, 29, 30, 31, 32, 33, 34, 35, 36, 37, 38, 39, 40, 41, 42, 43, 44, 45, 46, 47, 48, 49, 50, 51, 52, 53, 54, 55, 56, 57, 58, 59, 60, 61, 62, 63, 64, 65, 66, 67, 68, 69, 70, 71, 72, 73, 74, 75, 76, 77, 78, 79, 80, 81, 82, 83, 84, 85, 86, 87, 88, 89, 90, 91, 92, 93, 94, 95, 96, 97, 98, 99, 100, 101, 102, 103, 104, 105, 106, 107, 108, 109, 110, 111, 112, 113, 114, 115, 116, 117, 118, 119, 120, 121, 122, 123, 124, 125, 126, 127, 128, 129, 130, 131, 132, 133, 134, 135, 136, 137, 138, 139, 140, 141, 142, 143, 144, 145, 146, 147, 148, 149, 150, 151, 152, 153, 154, 155, 156, 157, 158, 159, 160, 161, 162, 163, 164, 165, 166, 167, 168, 169, 170, 171, 172, 173, 174, 175, 176, 177, 178, 179, 180, 181, 182, 183, 184, 185, 186, 187, 188, 189, 190, 191, 192, 193, 194, 195, 196, 197, 198, 199, 200, 201, 202, 203, 204, 205, 206, 207, 208, 209, 210, 211, 212, 213, 214, 215, 216, 217, 218, 219, 220, 221, 222, 223, 224, 225, 226, 227, 228, 229, 230, 231, 232, 233, 234, 235, 236, 237, 238, 239, 240, 241, 242, 243, 244, 245, 246, 247, 248, 249, 250, 251, 252, 253, 254, 255, 256, 257, 258, 259, 260, 261, 262, 263, 264, 265, 266, 267, 268, 269, 270, 271, 272, 273, 274, 275, 276, 277, 278, 279, 280, 281, 282, 283, 284, 285, 286, 287, 288, 289, 290, 291, 292, 293, 294, 295, 296, 297, 298, 299, 300, 301, 302, 303, 304, 305, 306, 307, 308, 309, 310, 311, 312, 313, 314, 315, 316, 317, 318, 319, 320, 321, 322, 323, 324, 325, 326, 327, 328, 329, 330, 331, 332, 333, 334, 335, 336, 337, 338, 339, 340, 341, 342, 343, 344, 345, 346, 347, 348, 349, 350, 351, 352, 353, 354, 355, 356, 357, 358, 359, 360, 361, 362, 363, 364, 365, 366, 367, 368, 369, 370, 371, 372, 373, 374, 375, 376, 377, 378, 379, 380, 381, 382, 383, 384, 385, 386, 387, 388, 389, 390, 391, 392, 393, 394, 395, 396, 397, 398, 399, 400, 401, 402, 403, 404, 405, 406, 407, 408, 409, 410, 411, 412, 413, 414, 415, 416, 417, 418, 419, 420, 421, 422, 423, 424, 425, 426, 427, 428, 429, 430, 431, 432, 433, 434, 435],
      "AcquisitionTime": ["164351.715000", "164353.205000", "164354.695000", "164356.185000", "164357.675000", "164359.165000", "164400.655000", "164402.145000", "164403.635000", "164405.125000", "164406.615000", "164408.105000", "164409.595000", "164411.085000", "164412.575000", "164414.065000", "164415.555000", "164417.045000", "164418.535000", "164420.025000", "164421.515000", "164423.005000", "164424.495000", "164425.985000", "164427.475000", "164428.965000", "164430.455000", "164431.945000", "164433.435000", "164434.925000", "164436.415000", "164437.905000", "164439.395000", "164440.885000", "164442.375000", "164443.865000", "164445.355000", "164446.845000", "164448.335000", "164449.825000", "164451.315000", "164452.805000", "164454.295000", "164455.785000", "164457.275000", "164458.765000", "164500.255000", "164501.745000", "164503.235000", "164504.725000", "164506.215000", "164507.705000", "164509.195000", "164510.685000", "164512.175000", "164513.665000", "164515.155000", "164516.645000", "164518.135000", "164519.625000", "164521.115000", "164522.605000", "164524.095000", "164525.585000", "164527.075000", "164528.565000", "164530.055000", "164531.545000", "164533.035000", "164534.525000", "164536.015000", "164537.505000", "164538.995000", "164540.485000", "164541.975000", "164543.465000", "164544.955000", "164546.445000", "164547.935000", "164549.425000", "164550.915000", "164552.405000", "164553.895000", "164555.385000", "164556.875000", "164558.365000", "164559.855000", "164601.345000", "164602.835000", "164604.325000", "164605.815000", "164607.305000", "164608.795000", "164610.285000", "164611.775000", "164613.265000", "164614.755000", "164616.245000", "164617.735000", "164619.225000", "164620.715000", "164622.205000", "164623.695000", "164625.185000", "164626.675000", "164628.165000", "164629.655000", "164631.145000", "164632.635000", "164634.125000", "164635.615000", "164637.105000", "164638.595000", "164640.085000", "164641.575000", "164643.065000", "164644.555000", "164646.045000", "164647.535000", "164649.025000", "164650.515000", "164652.005000", "164653.495000", "164654.985000", "164656.475000", "164657.965000", "164659.455000", "164700.945000", "164702.435000", "164703.925000", "164705.415000", "164706.905000", "164708.395000", "164709.885000", "164711.375000", "164712.865000", "164714.355000", "164715.845000", "164717.335000", "164718.825000", "164720.315000", "164721.805000", "164723.295000", "164724.785000", "164726.275000", "164727.765000", "164729.255000", "164730.745000", "164732.235000", "164733.725000", "164735.215000", "164736.705000", "164738.195000", "164739.685000", "164741.175000", "164742.665000", "164744.155000", "164745.645000", "164747.135000", "164748.625000", "164750.115000", "164751.605000", "164753.095000", "164754.585000", "164756.075000", "164757.565000", "164759.055000", "164800.545000", "164802.035000", "164803.525000", "164805.015000", "164806.505000", "164807.995000", "164809.485000", "164810.975000", "164812.465000", "164813.955000", "164815.445000", "164816.935000", "164818.425000", "164819.915000", "164821.405000", "164822.895000", "164824.385000", "164825.875000", "164827.365000", "164828.855000", "164830.345000", "164831.835000", "164833.325000", "164834.815000", "164836.305000", "164837.795000", "164839.285000", "164840.775000", "164842.265000", "164843.755000", "164845.245000", "164846.735000", "164848.225000", "164849.715000", "164851.205000", "164852.695000", "164854.185000", "164855.675000", "164857.165000", "164858.655000", "164900.145000", "164901.635000", "164903.125000", "164904.615000", "164906.105000", "164907.595000", "164909.085000", "164910.575000", "164912.065000", "164913.555000", "164915.045000", "164916.535000", "164918.025000", "164919.515000", "164921.005000", "164922.495000", "164923.985000", "164925.475000", "164926.965000", "164928.455000", "164929.945000", "164931.435000", "164932.925000", "164934.415000", "164935.905000", "164937.395000", "164938.885000", "164940.375000", "164941.865000", "164943.355000", "164944.845000", "164946.335000", "164947.825000", "164949.315000", "164950.805000", "164952.295000", "164953.785000", "164955.275000", "164956.765000", "164958.255000", "164959.745000", "165001.235000", "165002.725000", "165004.215000", "165005.705000", "165007.195000", "165008.685000", "165010.175000", "165011.665000", "165013.155000", "165014.645000", "165016.135000", "165017.625000", "165019.115000", "165020.605000", "165022.095000", "165023.585000", "165025.075000", "165026.565000", "165028.055000", "165029.545000", "165031.035000", "165032.525000", "165034.015000", "165035.505000", "165036.995000", "165038.485000", "165039.975000", "165041.465000", "165042.955000", "165044.445000", "165045.935000", "165047.425000", "165048.915000", "165050.405000", "165051.895000", "165053.385000", "165054.875000", "165056.365000", "165057.855000", "165059.345000", "165100.835000", "165102.325000", "165103.815000", "165105.305000", "165106.795000", "165108.285000", "165109.775000", "165111.265000", "165112.755000", "165114.245000", "165115.735000", "165117.225000", "165118.715000", "165120.205000", "165121.695000", "165123.185000", "165124.675000", "165126.165000", "165127.655000", "165129.145000", "165130.635000", "165132.125000", "165133.615000", "165135.105000", "165136.595000", "165138.085000", "165139.575000", "165141.065000", "165142.555000", "165144.045000", "165145.535000", "165147.025000", "165148.515000", "165150.005000", "165151.495000", "165152.985000", "165154.475000", "165155.965000", "165157.455000", "165158.945000", "165200.435000", "165201.925000", "165203.415000", "165204.905000", "165206.395000", "165207.885000", "165209.375000", "165210.865000", "165212.355000", "165213.845000", "165215.335000", "165216.825000", "165218.315000", "165219.805000", "165221.295000", "165222.785000", "165224.275000", "165225.765000", "165227.255000", "165228.745000", "165230.235000", "165231.725000", "165233.215000", "165234.705000", "165236.195000", "165237.685000", "165239.175000", "165240.665000", "165242.155000", "165243.645000", "165245.135000", "165246.625000", "165248.115000", "165249.605000", "165251.095000", "165252.585000", "165254.075000", "165255.565000", "165257.055000", "165258.545000", "165300.035000", "165301.525000", "165303.015000", "165304.505000", "165305.995000", "165307.485000", "165308.975000", "165310.465000", "165311.955000", "165313.445000", "165314.935000", "165316.425000", "165317.915000", "165319.405000", "165320.895000", "165322.385000", "165323.875000", "165325.365000", "165326.855000", "165328.345000", "165329.835000", "165331.325000", "165332.815000", "165334.305000", "165335.795000", "165337.285000", "165338.775000", "165340.265000", "165341.755000", "165343.245000", "165344.735000", "165346.225000", "165347.715000", "165349.205000", "165350.695000", "165352.185000", "165353.675000", "165355.165000", "165356.655000", "165358.145000", "165359.635000", "165401.125000", "165402.615000", "165404.105000", "165405.595000", "165407.085000", "165408.575000", "165410.065000", "165411.555000", "165413.045000", "165414.535000", "165416.025000", "165417.515000", "165419.005000", "165420.495000", "165421.985000", "165423.475000", "165424.965000", "165426.455000", "165427.945000", "165429.435000", "165430.925000", "165432.415000", "165433.905000", "165435.395000", "165436.885000", "165438.375000"],
      "ContentTime": ["164449.928000", "164449.932000", "164449.936000", "164449.956000", "164449.964000", "164449.967000", "164449.971000", "164449.975000", "164449.979000", "164449.983000", "164509.876000", "164509.880000", "164509.883000", "164509.886000", "164509.890000", "164509.893000", "164509.896000", "164509.899000", "164509.903000", "164509.906000", "164509.909000", "164509.912000", "164509.916000", "164509.919000", "164509.922000", "164509.925000", "164509.929000", "164509.932000", "164509.935000", "164509.939000", "164529.876000", "164529.880000", "164529.883000", "164529.886000", "164529.890000", "164529.893000", "164529.896000", "164529.899000", "164529.903000", "164529.906000", "164529.909000", "164529.913000", "164529.916000", "164529.919000", "164529.922000", "164529.926000", "164529.929000", "164529.932000", "164529.936000", "164529.939000", "164549.876000", "164549.880000", "164549.883000", "164549.887000", "164549.891000", "164549.895000", "164549.898000", "164549.901000", "164549.904000", "164549.908000", "164549.911000", "164549.915000", "164549.918000", "164549.921000", "164549.924000", "164549.928000", "164549.931000", "164549.934000", "164549.938000", "164549.941000", "164609.876000", "164609.880000", "164609.883000", "164609.886000", "164609.890000", "164609.893000", "164609.896000", "164609.900000", "164609.903000", "164609.906000", "164609.909000", "164609.913000", "164609.916000", "164609.920000", "164609.925000", "164609.939000", "164609.942000", "164609.945000", "164609.949000", "164609.952000", "164649.876000", "164649.880000", "164649.884000", "164649.887000", "164649.891000", "164649.894000", "164649.897000", "164649.901000", "164649.904000", "164649.908000", "164649.923000", "164649.926000", "164649.930000", "164649.933000", "164649.936000", "164649.940000", "164649.943000", "164649.946000", "164649.950000", "164649.953000", "164649.956000", "164649.968000", "164649.971000", "164649.975000", "164649.978000", "164649.981000", "164649.985000", "164649.988000", "164649.991000", "164729.876000", "164729.880000", "164729.883000", "164729.887000", "164729.890000", "164729.893000", "164729.897000", "164729.900000", "164729.903000", "164729.907000", "164729.910000", "164729.913000", "164729.916000", "164729.920000", "164729.923000", "164729.926000", "164729.930000", "164729.933000", "164729.937000", "164729.940000", "164729.944000", "164729.947000", "164729.951000", "164729.954000", "164729.958000", "164729.961000", "164729.964000", "164809.876000", "164809.880000", "164809.883000", "164809.886000", "164809.890000", "164809.893000", "164809.896000", "164809.900000", "164809.903000", "164809.906000", "164809.910000", "164809.913000", "164809.916000", "164809.920000", "164809.923000", "164809.926000", "164809.930000", "164809.933000", "164809.936000", "164809.939000", "164809.943000", "164809.946000", "164809.949000", "164809.953000", "164809.956000", "164809.959000", "164849.876000", "164849.880000", "164849.883000", "164849.887000", "164849.890000", "164849.893000", "164849.897000", "164849.900000", "164849.903000", "164849.906000", "164849.910000", "164849.913000", "164849.917000", "164849.920000", "164849.923000", "164849.927000", "164849.930000", "164849.933000", "164849.936000", "164849.940000", "164849.943000", "164849.946000", "164849.950000", "164849.964000", "164849.977000", "164849.980000", "164849.984000", "164929.876000", "164929.880000", "164929.884000", "164929.887000", "164929.890000", "164929.894000", "164929.897000", "164929.900000", "164929.904000", "164929.907000", "164929.911000", "164929.914000", "164929.918000", "164929.921000", "164929.924000", "164929.928000", "164929.931000", "164929.935000", "164929.938000", "164929.941000", "164929.944000", "164929.948000", "164929.951000", "164929.955000", "164929.958000", "164929.962000", "164929.965000", "165009.876000", "165009.880000", "165009.883000", "165009.886000", "165009.890000", "165009.893000", "165009.896000", "165009.900000", "165009.903000", "165009.910000", "165009.913000", "165009.916000", "165009.919000", "165009.923000", "165009.926000", "165009.929000", "165009.933000", "165009.936000", "165009.939000", "165009.943000", "165009.946000", "165009.949000", "165009.952000", "165009.956000", "165009.959000", "165009.962000", "165009.966000", "165049.876000", "165049.880000", "165049.883000", "165049.887000", "165049.890000", "165049.893000", "165049.897000", "165049.900000", "165049.903000", "165049.911000", "165049.914000", "165049.917000", "165049.921000", "165049.924000", "165049.927000", "165049.931000", "165049.934000", "165049.937000", "165049.941000", "165049.944000", "165049.947000", "165049.950000", "165049.954000", "165049.957000", "165049.960000", "165049.964000", "165049.967000", "165129.876000", "165129.880000", "165129.883000", "165129.887000", "165129.890000", "165129.893000", "165129.897000", "165129.900000", "165129.903000", "165129.906000", "165129.910000", "165129.913000", "165129.916000", "165129.920000", "165129.933000", "165129.936000", "165129.940000", "165129.943000", "165129.950000", "165129.953000", "165129.957000", "165129.960000", "165129.963000", "165129.967000", "165129.970000", "165129.973000", "165129.977000", "165209.876000", "165209.880000", "165209.884000", "165209.887000", "165209.890000", "165209.894000", "165209.897000", "165209.901000", "165209.918000", "165209.921000", "165209.925000", "165209.928000", "165209.931000", "165209.935000", "165209.938000", "165209.941000", "165209.945000", "165209.948000", "165209.951000", "165209.954000", "165209.958000", "165209.961000", "165209.964000", "165209.968000", "165209.971000", "165209.974000", "165249.876000", "165249.880000", "165249.883000", "165249.887000", "165249.890000", "165249.903000", "165249.906000", "165249.910000", "165249.913000", "165249.916000", "165249.920000", "165249.923000", "165249.926000", "165249.930000", "165249.933000", "165249.936000", "165249.940000", "165249.943000", "165249.946000", "165249.949000", "165249.953000", "165249.956000", "165249.959000", "165249.963000", "165249.966000", "165249.969000", "165249.973000", "165329.876000", "165329.880000", "165329.883000", "165329.887000", "165329.890000", "165329.893000", "165329.897000", "165329.900000", "165329.903000", "165329.907000", "165329.910000", "165329.915000", "165329.918000", "165329.921000", "165329.925000", "165329.928000", "165329.937000", "165329.940000", "165329.944000", "165329.947000", "165329.950000", "165329.954000", "165329.974000", "165329.977000", "165329.980000", "165329.984000", "165329.987000", "165409.876000", "165410.064000", "165410.067000", "165410.070000", "165410.074000", "165410.077000", "165410.080000", "165410.084000", "165410.087000", "165410.090000", "165410.094000", "165410.097000", "165410.100000", "165410.103000", "165410.107000", "165410.110000", "165410.113000", "165410.116000", "165410.120000", "165410.123000", "165410.126000", "165410.130000", "165410.133000", "165410.136000", "165410.140000", "165410.143000", "165410.146000", "165440.504000", "165440.508000", "165440.512000", "165440.515000", "165440.518000", "165440.522000", "165440.526000", "165440.529000", "165440.532000", "165440.536000", "165440.539000", "165440.543000", "165440.546000", "165440.549000", "165440.553000", "165440.556000", "165440.559000", "165440.563000", "165440.566000", "165440.570000", "165440.574000"],
