{
  "AcquisitionMatrixPE": 104,
  "AcquisitionNumber": 1,
  "AcquisitionTime": "16:43:51.715000",
  "BandwidthPerPixelPhaseEncode": 17.17,
  "BaseResolution": 104,
  "BodyPartExamined": "BRAIN",
  "CoilCombinationMethod": "Sum of Squares",
  "ConsistencyInfo": "N4_VE11C_LATEST_20160120",
  "ConversionSoftware": "dcm2niix",
  "ConversionSoftwareVersion": "v1.0.20211006",
  "DerivedVendorReportedEchoSpacing": 0.000560011,
  "DeviceSerialNumber": "167006",
  "DwellTime": 2.1e-06,
  "EchoTime": 0.037,
  "EchoTime1": 0.037,
  "EchoTime2": 0.001,
  "EchoTrainLength": 104,
  "EffectiveEchoSpacing": 0.000560011,
  "FlipAngle": 52,
  "HeudiconvVersion": "0.11.3.post9+gc939bf8",
  "ImageComments": "Unaliased MB4/PE3/LB",
  "ImageOrientationPatientDICOM": [0.999196, 0.0159358, 0.0367958, 0.00558063, 0.853442, -0.521158],
  "ImageOrientationText": "Tra>Cor(-31.4)>Sag(2.3)",
  "ImageType": [
    "ORIGINAL",
    "PRIMARY",
    "P",
    "MB",
    "ND",
    "MOSAIC",
    "PHASE"
],
  "ImagingFrequency": 123.259,
  "InPlanePhaseEncodingDirectionDICOM": "COL",
  "InstitutionAddress": "Chemin Queen-Mary 4565,Montreal,District,CA,H3W 1W5",
  "InstitutionName": "IUGM",
  "InstitutionalDepartmentName": "Department",
  "MRAcquisitionType": "2D",
  "MagneticFieldStrength": 3,
  "Manufacturer": "Siemens",
  "ManufacturersModelName": "Prisma_fit",
  "MatrixCoilMode": "SENSE",
  "Modality": "MR",
  "MultibandAccelerationFactor": 4,
  "PartialFourier": 1,
  "PatientPosition": "HFS",
  "PercentPhaseFOV": 100,
  "PercentSampling": 100,
  "PhaseEncodingDirection": "j",
  "PhaseEncodingSteps": 104,
  "PhaseResolution": 1,
  "PixelBandwidth": 2290,
  "ProcedureStepDescription": "games^mariostars",
  "ProtocolName": "func_task-mariostars_run-03",
  "PulseSequenceDetails": "%CustomerSeq%\\cmrr_mbep2d_bold",
  "ReceiveCoilActiveElements": "HC1-7;NC1,2",
  "ReceiveCoilName": "HeadNeck_64",
  "ReconMatrixPE": 104,
  "RepetitionTime": 1.49,
  "SAR": 0.0627366,
  "ScanOptions": "FS",
  "ScanningSequence": "EP",
  "SequenceName": "epfid2d1_104",
  "SequenceVariant": "SK\\SS",
  "SeriesDescription": "func_task-mariostars_run-03",
  "SeriesNumber": 18,
  "ShimSetting": [626, -7181, -8873, 291, 16, -168, -29, 16],
  "SliceThickness": 2,
  "SliceTiming": [0, 0.785, 0.0975, 0.8825, 0.1975, 0.98, 0.295, 1.0775, 0.3925, 1.1775, 0.49, 1.275, 0.5875, 1.3725, 0.6875, 0, 0.785, 0.0975, 0.8825, 0.1975, 0.98, 0.295, 1.0775, 0.3925, 1.1775, 0.49, 1.275, 0.5875, 1.3725, 0.6875, 0, 0.785, 0.0975, 0.8825, 0.1975, 0.98, 0.295, 1.0775, 0.3925, 1.1775, 0.49, 1.275, 0.5875, 1.3725, 0.6875, 0, 0.785, 0.0975, 0.8825, 0.1975, 0.98, 0.295, 1.0775, 0.3925, 1.1775, 0.49, 1.275, 0.5875, 1.3725, 0.6875],
  "SoftwareVersions": "syngo MR E11",
  "SpacingBetweenSlices": 2,
  "StationName": "MRC35049",
  "TaskName": "mariostars",
  "TotalReadoutTime": 0.0576811,
  "TxRefAmp": 286.206,
  "WipMemBlock": "5eaa23ba-b67f-4858-b70a-c036121b46a9||Sequence: R017 ve11c/master r/75a17815+; Jun 28 2022 16:32:11 by eja",
  "dcmmeta_affine": [
    [-1.9983915090560913, 0.011161260306835175, 0.07941622287034988, 105.07964324951172],
    [-0.03187159076333046, 1.7068835496902466, -1.041888952255249, -48.421512603759766],
    [0.07359152287244797, 1.0423165559768677, 1.7053329944610596, -101.79630279541016],
    [0.0, 0.0, 0.0, 1.0]
],
  "dcmmeta_reorient_transform": [
    [0.0, -1.0, 0.0, 103.0],
    [1.0, 0.0, 0.0, 0.0],
    [0.0, 0.0, 1.0, 0.0],
    [0.0, 0.0, 0.0, 1.0]
],
  "dcmmeta_shape": [104, 104, 60, 435],
  "dcmmeta_slice_dim": 2,
  "dcmmeta_version": 0.6,
  "global": {
    "const": {
      "AcquisitionMatrix": [104, 0, 0, 104],
      "AngioFlag": "N",
      "BitsAllocated": 16,
      "BitsStored": 16,
      "BodyPartExamined": "BRAIN",
      "Columns": 832,
      "EchoNumbers": 1,
      "EchoTime": 37.0,
      "EchoTrainLength": 104,
      "FlipAngle": 52.0,
      "HighBit": 15,
      "ImageOrientationPatient": [0.99919573776625, 0.01593579530683, 0.0367957614094, 0.00558063036916, 0.85344179656782, -0.5211582834761],
      "ImagePositionPatient": [-837.70644670961, -760.29438544362, 358.17821699232],
      "ImageType": [
        "ORIGINAL",
        "PRIMARY",
        "P",
        "MB",
        "ND",
        "MOSAIC"
],
      "ImagedNucleus": "1H",
      "ImagingFrequency": 123.258824,
      "InPlanePhaseEncodingDirection": "COL",
      "LargestImagePixelValue": 4095,
      "MRAcquisitionType": "2D",
      "MagneticFieldStrength": 3.0,
      "Manufacturer": "SIEMENS",
      "ManufacturerModelName": "Prisma_fit",
      "Modality": "MR",
      "NumberOfAverages": 1.0,
      "NumberOfPhaseEncodingSteps": 104,
      "PercentPhaseFieldOfView": 100.0,
      "PercentSampling": 100.0,
      "PerformedProcedureStepStartTime": "161423.293000",
      "PhotometricInterpretation": "MONOCHROME2",
      "PixelBandwidth": 2290.0,
      "PixelRepresentation": 0,
      "PixelSpacing": [2.0, 2.0],
      "ProtocolName": "func_task-mariostars_run-03",
      "RepetitionTime": 1490.0,
      "RescaleIntercept": -4096.0,
      "RescaleSlope": 2.0,
      "RescaleType": "US",
      "Rows": 832,
      "SAR": 0.06273657698146,
      "SamplesPerPixel": 1,
      "ScanOptions": "FS",
      "ScanningSequence": "EP",
      "SequenceName": "epfid2d1_104",
      "SequenceVariant": [
        "SK",
        "SS"
],
      "SeriesDescription": "func_task-mariostars_run-03",
      "SeriesNumber": 18,
      "SeriesTime": "164450.018000",
      "SliceLocation": -57.400863529051,
      "SliceThickness": 2.0,
      "SmallestImagePixelValue": 0,
      "SoftwareVersions": "syngo MR E11",
      "SpacingBetweenSlices": 2.0000000085991,
      "SpecificCharacterSet": "ISO_IR 100",
      "StudyID": "1",
      "StudyTime": "161423.226000",
      "TransmitCoilName": "Body",
      "VariableFlipAngleFlag": "N",
      "WindowCenterWidthExplanation": "Algo1",
      "dBdt": 0.0},
    "slices": {}
  },
  "time": {
    "samples": {
      "AcquisitionNumber": [1, 2, 3, 4, 5, 6, 7, 8, 9, 10, 11, 12, 13, 14, 15, 16, 17, 18, 19, 20, 21, 22, 23, 24, 25, 26, 27, 28, 29, 30, 31, 32, 33, 34, 35, 36, 37, 38, 39, 40, 41, 42, 43, 44, 45, 46, 47, 48, 49, 50, 51, 52, 53, 54, 55, 56, 57, 58, 59, 60, 61, 62, 63, 64, 65, 66, 67, 68, 69, 70, 71, 72, 73, 74, 75, 76, 77, 78, 79, 80, 81, 82, 83, 84, 85, 86, 87, 88, 89, 90, 91, 92, 93, 94, 95, 96, 97, 98, 99, 100, 101, 102, 103, 104, 105, 106, 107, 108, 109, 110, 111, 112, 113, 114, 115, 116, 117, 118, 119, 120, 121, 122, 123, 124, 125, 126, 127, 128, 129, 130, 131, 132, 133, 134, 135, 136, 137, 138, 139, 140, 141, 142, 143, 144, 145, 146, 147, 148, 149, 150, 151, 152, 153, 154, 155, 156, 157, 158, 159, 160, 161, 162, 163, 164, 165, 166, 167, 168, 169, 170, 171, 172, 173, 174, 175, 176, 177, 178, 179, 180, 181, 182, 183, 184, 185, 186, 187, 188, 189, 190, 191, 192, 193, 194, 195, 196, 197, 198, 199, 200, 201, 202, 203, 204, 205, 206, 207, 208, 209, 210, 211, 212, 213, 214, 215, 216, 217, 218, 219, 220, 221, 222, 223, 224, 225, 226, 227, 228, 229, 230, 231, 232, 233, 234, 235, 236, 237, 238, 239, 240, 241, 242, 243, 244, 245, 246, 247, 248, 249, 250, 251, 252, 253, 254, 255, 256, 257, 258, 259, 260, 261, 262, 263, 264, 265, 266, 267, 268, 269, 270, 271, 272, 273, 274, 275, 276, 277, 278, 279, 280, 281, 282, 283, 284, 285, 286, 287, 288, 289, 290, 291, 292, 293, 294, 295, 296, 297, 298, 299, 300, 301, 302, 303, 304, 305, 306, 307, 308, 309, 310, 311, 312, 313, 314, 315, 316, 317, 318, 319, 320, 321, 322, 323, 324, 325, 326, 327, 328, 329, 330, 331, 332, 333, 334, 335, 336, 337, 338, 339, 340, 341, 342, 343, 344, 345, 346, 347, 348, 349, 350, 351, 352, 353, 354, 355, 356, 357, 358, 359, 360, 361, 362, 363, 364, 365, 366, 367, 368, 369, 370, 371, 372, 373, 374, 375, 376, 377, 378, 379, 380, 381, 382, 383, 384, 385, 386, 387, 388, 389, 390, 391, 392, 393, 394, 395, 396, 397, 398, 399, 400, 401, 402, 403, 404, 405, 406, 407, 408, 409, 410, 411, 412, 413, 414, 415, 416, 417, 418, 419, 420, 421, 422, 423, 424, 425, 426, 427, 428, 429, 430, 431, 432, 433, 434, 435],
      "AcquisitionTime": ["164351.715000", "164353.205000", "164354.695000", "164356.185000", "164357.675000", "164359.165000", "164400.655000", "164402.145000", "164403.635000", "164405.125000", "164406.615000", "164408.105000", "164409.595000", "164411.085000", "164412.575000", "164414.065000", "164415.555000", "164417.045000", "164418.535000", "164420.025000", "164421.515000", "164423.005000", "164424.495000", "164425.985000", "164427.475000", "164428.965000", "164430.455000", "164431.945000", "164433.435000", "164434.925000", "164436.415000", "164437.905000", "164439.395000", "164440.885000", "164442.375000", "164443.865000", "164445.355000", "164446.845000", "164448.335000", "164449.825000", "164451.315000", "164452.805000", "164454.295000", "164455.785000", "164457.275000", "164458.765000", "164500.255000", "164501.745000", "164503.235000", "164504.725000", "164506.215000", "164507.705000", "164509.195000", "164510.685000", "164512.175000", "164513.665000", "164515.155000", "164516.645000", "164518.135000", "164519.625000", "164521.115000", "164522.605000", "164524.095000", "164525.585000", "164527.075000", "164528.565000", "164530.055000", "164531.545000", "164533.035000", "164534.525000", "164536.015000", "164537.505000", "164538.995000", "164540.485000", "164541.975000", "164543.465000", "164544.955000", "164546.445000", "164547.935000", "164549.425000", "164550.915000", "164552.405000", "164553.895000", "164555.385000", "164556.875000", "164558.365000", "164559.855000", "164601.345000", "164602.835000", "164604.325000", "164605.815000", "164607.305000", "164608.795000", "164610.285000", "164611.775000", "164613.265000", "164614.755000", "164616.245000", "164617.735000", "164619.225000", "164620.715000", "164622.205000", "164623.695000", "164625.185000", "164626.675000", "164628.165000", "164629.655000", "164631.145000", "164632.635000", "164634.125000", "164635.615000", "164637.105000", "164638.595000", "164640.085000", "164641.575000", "164643.065000", "164644.555000", "164646.045000", "164647.535000", "164649.025000", "164650.515000", "164652.005000", "164653.495000", "164654.985000", "164656.475000", "164657.965000", "164659.455000", "164700.945000", "164702.435000", "164703.925000", "164705.415000", "164706.905000", "164708.395000", "164709.885000", "164711.375000", "164712.865000", "164714.355000", "164715.845000", "164717.335000", "164718.825000", "164720.315000", "164721.805000", "164723.295000", "164724.785000", "164726.275000", "164727.765000", "164729.255000", "164730.745000", "164732.235000", "164733.725000", "164735.215000", "164736.705000", "164738.195000", "164739.685000", "164741.175000", "164742.665000", "164744.155000", "164745.645000", "164747.135000", "164748.625000", "164750.115000", "164751.605000", "164753.095000", "164754.585000", "164756.075000", "164757.565000", "164759.055000", "164800.545000", "164802.035000", "164803.525000", "164805.015000", "164806.505000", "164807.995000", "164809.485000", "164810.975000", "164812.465000", "164813.955000", "164815.445000", "164816.935000", "164818.425000", "164819.915000", "164821.405000", "164822.895000", "164824.385000", "164825.875000", "164827.365000", "164828.855000", "164830.345000", "164831.835000", "164833.325000", "164834.815000", "164836.305000", "164837.795000", "164839.285000", "164840.775000", "164842.265000", "164843.755000", "164845.245000", "164846.735000", "164848.225000", "164849.715000", "164851.205000", "164852.695000", "164854.185000", "164855.675000", "164857.165000", "164858.655000", "164900.145000", "164901.635000", "164903.125000", "164904.615000", "164906.105000", "164907.595000", "164909.085000", "164910.575000", "164912.065000", "164913.555000", "164915.045000", "164916.535000", "164918.025000", "164919.515000", "164921.005000", "164922.495000", "164923.985000", "164925.475000", "164926.965000", "164928.455000", "164929.945000", "164931.435000", "164932.925000", "164934.415000", "164935.905000", "164937.395000", "164938.885000", "164940.375000", "164941.865000", "164943.355000", "164944.845000", "164946.335000", "164947.825000", "164949.315000", "164950.805000", "164952.295000", "164953.785000", "164955.275000", "164956.765000", "164958.255000", "164959.745000", "165001.235000", "165002.725000", "165004.215000", "165005.705000", "165007.195000", "165008.685000", "165010.175000", "165011.665000", "165013.155000", "165014.645000", "165016.135000", "165017.625000", "165019.115000", "165020.605000", "165022.095000", "165023.585000", "165025.075000", "165026.565000", "165028.055000", "165029.545000", "165031.035000", "165032.525000", "165034.015000", "165035.505000", "165036.995000", "165038.485000", "165039.975000", "165041.465000", "165042.955000", "165044.445000", "165045.935000", "165047.425000", "165048.915000", "165050.405000", "165051.895000", "165053.385000", "165054.875000", "165056.365000", "165057.855000", "165059.345000", "165100.835000", "165102.325000", "165103.815000", "165105.305000", "165106.795000", "165108.285000", "165109.775000", "165111.265000", "165112.755000", "165114.245000", "165115.735000", "165117.225000", "165118.715000", "165120.205000", "165121.695000", "165123.185000", "165124.675000", "165126.165000", "165127.655000", "165129.145000", "165130.635000", "165132.125000", "165133.615000", "165135.105000", "165136.595000", "165138.085000", "165139.575000", "165141.065000", "165142.555000", "165144.045000", "165145.535000", "165147.025000", "165148.515000", "165150.005000", "165151.495000", "165152.985000", "165154.475000", "165155.965000", "165157.455000", "165158.945000", "165200.435000", "165201.925000", "165203.415000", "165204.905000", "165206.395000", "165207.885000", "165209.375000", "165210.865000", "165212.355000", "165213.845000", "165215.335000", "165216.825000", "165218.315000", "165219.805000", "165221.295000", "165222.785000", "165224.275000", "165225.765000", "165227.255000", "165228.745000", "165230.235000", "165231.725000", "165233.215000", "165234.705000", "165236.195000", "165237.685000", "165239.175000", "165240.665000", "165242.155000", "165243.645000", "165245.135000", "165246.625000", "165248.115000", "165249.605000", "165251.095000", "165252.585000", "165254.075000", "165255.565000", "165257.055000", "165258.545000", "165300.035000", "165301.525000", "165303.015000", "165304.505000", "165305.995000", "165307.485000", "165308.975000", "165310.465000", "165311.955000", "165313.445000", "165314.935000", "165316.425000", "165317.915000", "165319.405000", "165320.895000", "165322.385000", "165323.875000", "165325.365000", "165326.855000", "165328.345000", "165329.835000", "165331.325000", "165332.815000", "165334.305000", "165335.795000", "165337.285000", "165338.775000", "165340.265000", "165341.755000", "165343.245000", "165344.735000", "165346.225000", "165347.715000", "165349.205000", "165350.695000", "165352.185000", "165353.675000", "165355.165000", "165356.655000", "165358.145000", "165359.635000", "165401.125000", "165402.615000", "165404.105000", "165405.595000", "165407.085000", "165408.575000", "165410.065000", "165411.555000", "165413.045000", "165414.535000", "165416.025000", "165417.515000", "165419.005000", "165420.495000", "165421.985000", "165423.475000", "165424.965000", "165426.455000", "165427.945000", "165429.435000", "165430.925000", "165432.415000", "165433.905000", "165435.395000", "165436.885000", "165438.375000"],
      "ContentTime": ["164450.020000", "164450.024000", "164450.027000", "164450.030000", "164450.033000", "164450.036000", "164450.038000", "164450.042000", "164450.045000", "164509.981000", "164509.984000", "164509.986000", "164509.989000", "164509.991000", "164509.994000", "164510.004000", "164510.007000", "164510.009000", "164510.012000", "164510.014000", "164510.017000", "164510.019000", "164510.022000", "164510.024000", "164510.026000", "164510.029000", "164510.031000", "164510.034000", "164510.036000", "164510.039000", "164529.975000", "164529.978000", "164529.981000", "164529.983000", "164529.986000", "164529.988000", "164529.991000", "164529.994000", "164529.996000", "164529.999000", "164530.002000", "164530.004000", "164530.007000", "164530.010000", "164530.013000", "164530.015000", "164530.018000", "164530.020000", "164530.023000", "164530.025000", "164549.991000", "164549.994000", "164549.996000", "164550.000000", "164550.002000", "164550.005000", "164550.007000", "164550.010000", "164550.012000", "164550.015000", "164550.025000", "164550.027000", "164550.030000", "164550.032000", "164550.035000", "164550.037000", "164550.040000", "164550.042000", "164550.044000", "164550.047000", "164610.035000", "164610.038000", "164610.041000", "164610.043000", "164610.046000", "164610.048000", "164610.051000", "164610.053000", "164610.056000", "164610.058000", "164610.061000", "164610.063000", "164610.065000", "164610.068000", "164610.070000", "164610.073000", "164610.075000", "164610.078000", "164610.080000", "164610.083000", "164650.575000", "164650.577000", "164650.580000", "164650.583000", "164650.585000", "164650.587000", "164650.590000", "164650.592000", "164650.595000", "164650.598000", "164650.600000", "164650.603000", "164650.605000", "164650.608000", "164650.610000", "164650.613000", "164650.615000", "164650.617000", "164650.620000", "164650.622000", "164650.625000", "164650.627000", "164650.630000", "164650.632000", "164650.635000", "164650.637000", "164650.640000", "164650.643000", "164650.645000", "164730.024000", "164730.028000", "164730.030000", "164730.033000", "164730.036000", "164730.038000", "164730.041000", "164730.043000", "164730.046000", "164730.049000", "164730.051000", "164730.054000", "164730.056000", "164730.059000", "164730.062000", "164730.065000", "164730.067000", "164730.070000", "164730.072000", "164730.075000", "164730.078000", "164730.081000", "164730.083000", "164730.086000", "164730.088000", "164730.091000", "164730.093000", "164810.015000", "164810.018000", "164810.020000", "164810.023000", "164810.026000", "164810.029000", "164810.032000", "164810.034000", "164810.037000", "164810.040000", "164810.043000", "164810.046000", "164810.048000", "164810.050000", "164810.053000", "164810.057000", "164810.060000", "164810.062000", "164810.065000", "164810.067000", "164810.070000", "164810.073000", "164810.076000", "164810.079000", "164810.081000", "164810.084000", "164850.034000", "164850.037000", "164850.039000", "164850.042000", "164850.044000", "164850.047000", "164850.049000", "164850.052000", "164850.054000", "164850.057000", "164850.059000", "164850.062000", "164850.064000", "164850.067000", "164850.069000", "164850.071000", "164850.074000", "164850.076000", "164850.079000", "164850.081000", "164850.084000", "164850.086000", "164850.090000", "164850.093000", "164850.095000", "164850.098000", "164850.100000", "164930.030000", "164930.033000", "164930.036000", "164930.039000", "164930.043000", "164930.046000", "164930.049000", "164930.052000", "164930.054000", "164930.057000", "164930.059000", "164930.062000", "164930.065000", "164930.067000", "164930.070000", "164930.073000", "164930.075000", "164930.078000", "164930.080000", "164930.083000", "164930.086000", "164930.089000", "164930.092000", "164930.094000", "164930.097000", "164930.100000", "164930.104000", "165010.027000", "165010.030000", "165010.033000", "165010.035000", "165010.038000", "165010.040000", "165010.043000", "165010.045000", "165010.048000", "165010.050000", "165010.053000", "165010.055000", "165010.058000", "165010.060000", "165010.062000", "165010.065000", "165010.068000", "165010.070000", "165010.073000", "165010.075000", "165010.078000", "165010.080000", "165010.083000", "165010.085000", "165010.088000", "165010.090000", "165010.093000", "165050.018000", "165050.021000", "165050.023000", "165050.026000", "165050.028000", "165050.031000", "165050.033000", "165050.036000", "165050.038000", "165050.041000", "165050.043000", "165050.046000", "165050.048000", "165050.051000", "165050.053000", "165050.056000", "165050.058000", "165050.060000", "165050.063000", "165050.065000", "165050.068000", "165050.070000", "165050.073000", "165050.075000", "165050.078000", "165050.081000", "165050.083000", "165130.020000", "165130.023000", "165130.025000", "165130.028000", "165130.030000", "165130.033000", "165130.035000", "165130.038000", "165130.040000", "165130.043000", "165130.045000", "165130.048000", "165130.050000", "165130.053000", "165130.055000", "165130.058000", "165130.060000", "165130.063000", "165130.065000", "165130.068000", "165130.070000", "165130.073000", "165130.075000", "165130.078000", "165130.080000", "165130.083000", "165130.085000", "165210.028000", "165210.031000", "165210.033000", "165210.036000", "165210.038000", "165210.041000", "165210.043000", "165210.046000", "165210.048000", "165210.061000", "165210.064000", "165210.066000", "165210.069000", "165210.071000", "165210.074000", "165210.076000", "165210.079000", "165210.081000", "165210.084000", "165210.086000", "165210.089000", "165210.091000", "165210.094000", "165210.096000", "165210.099000", "165210.101000", "165250.025000", "165250.028000", "165250.031000", "165250.033000", "165250.036000", "165250.038000", "165250.041000", "165250.043000", "165250.046000", "165250.048000", "165250.051000", "165250.053000", "165250.056000", "165250.058000", "165250.061000", "165250.063000", "165250.066000", "165250.068000", "165250.071000", "165250.073000", "165250.076000", "165250.078000", "165250.081000", "165250.083000", "165250.086000", "165250.088000", "165250.091000", "165330.044000", "165330.047000", "165330.049000", "165330.052000", "165330.054000", "165330.057000", "165330.059000", "165330.062000", "165330.064000", "165330.066000", "165330.069000", "165330.071000", "165330.074000", "165330.077000", "165330.079000", "165330.082000", "165330.084000", "165330.087000", "165330.089000", "165330.092000", "165330.094000", "165330.097000", "165330.099000", "165330.102000", "165330.104000", "165330.107000", "165330.109000", "165410.212000", "165410.215000", "165410.217000", "165410.220000", "165410.222000", "165410.225000", "165410.227000", "165410.230000", "165410.232000", "165410.235000", "165410.237000", "165410.240000", "165410.242000", "165410.245000", "165410.247000", "165410.250000", "165410.252000", "165410.255000", "165410.257000", "165410.260000", "165410.262000", "165410.265000", "165410.267000", "165410.270000", "165410.272000", "165410.275000", "165410.277000", "165440.628000", "165440.630000", "165440.633000", "165440.636000", "165440.638000", "165440.641000", "165440.644000", "165440.646000", "165440.649000", "165440.651000", "165440.654000", "165440.656000", "165440.658000", "165440.661000", "165440.664000", "165440.666000", "165440.669000", "165440.671000", "165440.674000", "165440.676000", "165440.679000"],
