{
  "AcquisitionMatrixPE": 104,
  "AcquisitionNumber": 1,
  "AcquisitionTime": "16:31:30.357500",
  "BandwidthPerPixelPhaseEncode": 17.17,
  "BaseResolution": 104,
  "BodyPartExamined": "BRAIN",
  "CoilCombinationMethod": "Sum of Squares",
  "ConsistencyInfo": "N4_VE11C_LATEST_20160120",
  "ConversionSoftware": "dcm2niix",
  "ConversionSoftwareVersion": "v1.0.20211006",
  "DerivedVendorReportedEchoSpacing": 0.000560011,
  "DeviceSerialNumber": "167006",
  "DwellTime": 2.1e-06,
  "EchoTime": 0.037,
  "EchoTime1": 0.037,
  "EchoTime2": 0.001,
  "EchoTrainLength": 104,
  "EffectiveEchoSpacing": 0.000560011,
  "FlipAngle": 52,
  "HeudiconvVersion": "0.11.3.post9+gc939bf8",
  "ImageComments": "Unaliased MB4/PE3/LB",
  "ImageOrientationPatientDICOM": [0.999196, 0.0159358, 0.0367958, 0.00558063, 0.853442, -0.521158],
  "ImageOrientationText": "Tra>Cor(-31.4)>Sag(2.3)",
  "ImageType": [
    "ORIGINAL",
    "PRIMARY",
    "P",
    "MB",
    "ND",
    "MOSAIC",
    "PHASE"
],
  "ImagingFrequency": 123.259,
  "InPlanePhaseEncodingDirectionDICOM": "COL",
  "InstitutionAddress": "Chemin Queen-Mary 4565,Montreal,District,CA,H3W 1W5",
  "InstitutionName": "IUGM",
  "InstitutionalDepartmentName": "Department",
  "MRAcquisitionType": "2D",
  "MagneticFieldStrength": 3,
  "Manufacturer": "Siemens",
  "ManufacturersModelName": "Prisma_fit",
  "MatrixCoilMode": "SENSE",
  "Modality": "MR",
  "MultibandAccelerationFactor": 4,
  "PartialFourier": 1,
  "PatientPosition": "HFS",
  "PercentPhaseFOV": 100,
  "PercentSampling": 100,
  "PhaseEncodingDirection": "j",
  "PhaseEncodingSteps": 104,
  "PhaseResolution": 1,
  "PixelBandwidth": 2290,
  "ProcedureStepDescription": "games^mariostars",
  "ProtocolName": "func_task-mariostars_run-02",
  "PulseSequenceDetails": "%CustomerSeq%\\cmrr_mbep2d_bold",
  "ReceiveCoilActiveElements": "HC1-7;NC1,2",
  "ReceiveCoilName": "HeadNeck_64",
  "ReconMatrixPE": 104,
  "RepetitionTime": 1.49,
  "SAR": 0.0627366,
  "ScanOptions": "FS",
  "ScanningSequence": "EP",
  "SequenceName": "epfid2d1_104",
  "SequenceVariant": "SK\\SS",
  "SeriesDescription": "func_task-mariostars_run-02",
  "SeriesNumber": 15,
  "ShimSetting": [626, -7181, -8873, 291, 16, -168, -29, 16],
  "SliceThickness": 2,
  "SliceTiming": [0, 0.785, 0.0975, 0.8825, 0.1975, 0.98, 0.295, 1.0775, 0.3925, 1.1775, 0.49, 1.275, 0.5875, 1.3725, 0.6875, 0, 0.785, 0.0975, 0.8825, 0.1975, 0.98, 0.295, 1.0775, 0.3925, 1.1775, 0.49, 1.275, 0.5875, 1.3725, 0.6875, 0, 0.785, 0.0975, 0.8825, 0.1975, 0.98, 0.295, 1.0775, 0.3925, 1.1775, 0.49, 1.275, 0.5875, 1.3725, 0.6875, 0, 0.785, 0.0975, 0.8825, 0.1975, 0.98, 0.295, 1.0775, 0.3925, 1.1775, 0.49, 1.275, 0.5875, 1.3725, 0.6875],
  "SoftwareVersions": "syngo MR E11",
  "SpacingBetweenSlices": 2,
  "StationName": "MRC35049",
  "TaskName": "mariostars",
  "TotalReadoutTime": 0.0576811,
  "TxRefAmp": 286.206,
  "WipMemBlock": "45f0f5a5-c76a-4680-abe4-2cb4a9b8637a||Sequence: R017 ve11c/master r/75a17815+; Jun 28 2022 16:32:11 by eja",
  "dcmmeta_affine": [
    [-1.9983915090560913, 0.011161260306835175, 0.07941622287034988, 105.07964324951172],
    [-0.03187159076333046, 1.7068835496902466, -1.041888952255249, -48.421512603759766],
    [0.07359152287244797, 1.0423165559768677, 1.7053329944610596, -101.79630279541016],
    [0.0, 0.0, 0.0, 1.0]
],
  "dcmmeta_reorient_transform": [
    [0.0, -1.0, 0.0, 103.0],
    [1.0, 0.0, 0.0, 0.0],
    [0.0, 0.0, 1.0, 0.0],
    [0.0, 0.0, 0.0, 1.0]
],
  "dcmmeta_shape": [104, 104, 60, 440],
  "dcmmeta_slice_dim": 2,
  "dcmmeta_version": 0.6,
  "global": {
    "const": {
      "AcquisitionMatrix": [104, 0, 0, 104],
      "AngioFlag": "N",
      "BitsAllocated": 16,
      "BitsStored": 16,
      "BodyPartExamined": "BRAIN",
      "Columns": 832,
      "EchoNumbers": 1,
      "EchoTime": 37.0,
      "EchoTrainLength": 104,
      "FlipAngle": 52.0,
      "HighBit": 15,
      "ImageOrientationPatient": [0.99919573776625, 0.01593579530683, 0.0367957614094, 0.00558063036916, 0.85344179656782, -0.5211582834761],
      "ImagePositionPatient": [-837.70644670961, -760.29438544362, 358.17821699232],
      "ImageType": [
        "ORIGINAL",
        "PRIMARY",
        "P",
        "MB",
        "ND",
        "MOSAIC"
],
      "ImagedNucleus": "1H",
      "ImagingFrequency": 123.258821,
      "InPlanePhaseEncodingDirection": "COL",
      "LargestImagePixelValue": 4095,
      "MRAcquisitionType": "2D",
      "MagneticFieldStrength": 3.0,
      "Manufacturer": "SIEMENS",
      "ManufacturerModelName": "Prisma_fit",
      "Modality": "MR",
      "NumberOfAverages": 1.0,
      "NumberOfPhaseEncodingSteps": 104,
      "PercentPhaseFieldOfView": 100.0,
      "PercentSampling": 100.0,
      "PerformedProcedureStepStartTime": "161423.293000",
      "PhotometricInterpretation": "MONOCHROME2",
      "PixelBandwidth": 2290.0,
      "PixelRepresentation": 0,
      "PixelSpacing": [2.0, 2.0],
      "ProtocolName": "func_task-mariostars_run-02",
      "RepetitionTime": 1490.0,
      "RescaleIntercept": -4096.0,
      "RescaleSlope": 2.0,
      "RescaleType": "US",
      "Rows": 832,
      "SAR": 0.06273657698146,
      "SamplesPerPixel": 1,
      "ScanOptions": "FS",
      "ScanningSequence": "EP",
      "SequenceName": "epfid2d1_104",
      "SequenceVariant": [
        "SK",
        "SS"
],
      "SeriesDescription": "func_task-mariostars_run-02",
      "SeriesNumber": 15,
      "SeriesTime": "163243.010000",
      "SliceLocation": -57.400863529051,
      "SliceThickness": 2.0,
      "SmallestImagePixelValue": 0,
      "SoftwareVersions": "syngo MR E11",
      "SpacingBetweenSlices": 2.0000000085991,
      "SpecificCharacterSet": "ISO_IR 100",
      "StudyID": "1",
      "StudyTime": "161423.226000",
      "TransmitCoilName": "Body",
      "VariableFlipAngleFlag": "N",
      "WindowCenterWidthExplanation": "Algo1",
      "dBdt": 0.0},
    "slices": {}
  },
  "time": {
    "samples": {
      "AcquisitionNumber": [1, 2, 3, 4, 5, 6, 7, 8, 9, 10, 11, 12, 13, 14, 15, 16, 17, 18, 19, 20, 21, 22, 23, 24, 25, 26, 27, 28, 29, 30, 31, 32, 33, 34, 35, 36, 37, 38, 39, 40, 41, 42, 43, 44, 45, 46, 47, 48, 49, 50, 51, 52, 53, 54, 55, 56, 57, 58, 59, 60, 61, 62, 63, 64, 65, 66, 67, 68, 69, 70, 71, 72, 73, 74, 75, 76, 77, 78, 79, 80, 81, 82, 83, 84, 85, 86, 87, 88, 89, 90, 91, 92, 93, 94, 95, 96, 97, 98, 99, 100, 101, 102, 103, 104, 105, 106, 107, 108, 109, 110, 111, 112, 113, 114, 115, 116, 117, 118, 119, 120, 121, 122, 123, 124, 125, 126, 127, 128, 129, 130, 131, 132, 133, 134, 135, 136, 137, 138, 139, 140, 141, 142, 143, 144, 145, 146, 147, 148, 149, 150, 151, 152, 153, 154, 155, 156, 157, 158, 159, 160, 161, 162, 163, 164, 165, 166, 167, 168, 169, 170, 171, 172, 173, 174, 175, 176, 177, 178, 179, 180, 181, 182, 183, 184, 185, 186, 187, 188, 189, 190, 191, 192, 193, 194, 195, 196, 197, 198, 199, 200, 201, 202, 203, 204, 205, 206, 207, 208, 209, 210, 211, 212, 213, 214, 215, 216, 217, 218, 219, 220, 221, 222, 223, 224, 225, 226, 227, 228, 229, 230, 231, 232, 233, 234, 235, 236, 237, 238, 239, 240, 241, 242, 243, 244, 245, 246, 247, 248, 249, 250, 251, 252, 253, 254, 255, 256, 257, 258, 259, 260, 261, 262, 263, 264, 265, 266, 267, 268, 269, 270, 271, 272, 273, 274, 275, 276, 277, 278, 279, 280, 281, 282, 283, 284, 285, 286, 287, 288, 289, 290, 291, 292, 293, 294, 295, 296, 297, 298, 299, 300, 301, 302, 303, 304, 305, 306, 307, 308, 309, 310, 311, 312, 313, 314, 315, 316, 317, 318, 319, 320, 321, 322, 323, 324, 325, 326, 327, 328, 329, 330, 331, 332, 333, 334, 335, 336, 337, 338, 339, 340, 341, 342, 343, 344, 345, 346, 347, 348, 349, 350, 351, 352, 353, 354, 355, 356, 357, 358, 359, 360, 361, 362, 363, 364, 365, 366, 367, 368, 369, 370, 371, 372, 373, 374, 375, 376, 377, 378, 379, 380, 381, 382, 383, 384, 385, 386, 387, 388, 389, 390, 391, 392, 393, 394, 395, 396, 397, 398, 399, 400, 401, 402, 403, 404, 405, 406, 407, 408, 409, 410, 411, 412, 413, 414, 415, 416, 417, 418, 419, 420, 421, 422, 423, 424, 425, 426, 427, 428, 429, 430, 431, 432, 433, 434, 435, 436, 437, 438, 439, 440],
      "AcquisitionTime": ["163130.357500", "163131.847500", "163133.337500", "163134.827500", "163136.317500", "163137.807500", "163139.297500", "163140.787500", "163142.277500", "163143.767500", "163145.257500", "163146.747500", "163148.237500", "163149.727500", "163151.217500", "163152.707500", "163154.197500", "163155.687500", "163157.177500", "163158.667500", "163200.157500", "163201.647500", "163203.137500", "163204.627500", "163206.117500", "163207.607500", "163209.097500", "163210.587500", "163212.077500", "163213.567500", "163215.057500", "163216.547500", "163218.037500", "163219.527500", "163221.017500", "163222.507500", "163223.997500", "163225.487500", "163226.977500", "163228.467500", "163229.957500", "163231.447500", "163232.937500", "163234.427500", "163235.917500", "163237.407500", "163238.897500", "163240.387500", "163241.877500", "163243.367500", "163244.857500", "163246.347500", "163247.837500", "163249.327500", "163250.817500", "163252.307500", "163253.797500", "163255.287500", "163256.777500", "163258.267500", "163259.757500", "163301.247500", "163302.737500", "163304.227500", "163305.717500", "163307.207500", "163308.697500", "163310.187500", "163311.677500", "163313.167500", "163314.657500", "163316.147500", "163317.637500", "163319.127500", "163320.617500", "163322.107500", "163323.597500", "163325.087500", "163326.577500", "163328.067500", "163329.557500", "163331.047500", "163332.537500", "163334.027500", "163335.517500", "163337.007500", "163338.497500", "163339.987500", "163341.477500", "163342.967500", "163344.457500", "163345.947500", "163347.437500", "163348.927500", "163350.417500", "163351.907500", "163353.397500", "163354.887500", "163356.377500", "163357.867500", "163359.357500", "163400.847500", "163402.337500", "163403.827500", "163405.317500", "163406.807500", "163408.297500", "163409.787500", "163411.277500", "163412.767500", "163414.257500", "163415.747500", "163417.237500", "163418.727500", "163420.217500", "163421.707500", "163423.197500", "163424.687500", "163426.177500", "163427.667500", "163429.157500", "163430.647500", "163432.137500", "163433.627500", "163435.117500", "163436.607500", "163438.097500", "163439.587500", "163441.077500", "163442.567500", "163444.057500", "163445.547500", "163447.037500", "163448.527500", "163450.017500", "163451.507500", "163452.997500", "163454.487500", "163455.977500", "163457.467500", "163458.957500", "163500.447500", "163501.937500", "163503.427500", "163504.917500", "163506.407500", "163507.897500", "163509.387500", "163510.877500", "163512.367500", "163513.857500", "163515.347500", "163516.837500", "163518.327500", "163519.817500", "163521.307500", "163522.797500", "163524.287500", "163525.777500", "163527.267500", "163528.757500", "163530.247500", "163531.737500", "163533.227500", "163534.717500", "163536.207500", "163537.697500", "163539.187500", "163540.677500", "163542.167500", "163543.657500", "163545.147500", "163546.637500", "163548.127500", "163549.617500", "163551.107500", "163552.597500", "163554.087500", "163555.577500", "163557.067500", "163558.557500", "163600.047500", "163601.537500", "163603.027500", "163604.517500", "163606.007500", "163607.497500", "163608.987500", "163610.477500", "163611.967500", "163613.457500", "163614.947500", "163616.437500", "163617.927500", "163619.417500", "163620.907500", "163622.397500", "163623.887500", "163625.377500", "163626.867500", "163628.357500", "163629.847500", "163631.337500", "163632.827500", "163634.317500", "163635.807500", "163637.297500", "163638.787500", "163640.277500", "163641.767500", "163643.257500", "163644.747500", "163646.237500", "163647.727500", "163649.217500", "163650.707500", "163652.197500", "163653.687500", "163655.177500", "163656.667500", "163658.157500", "163659.647500", "163701.137500", "163702.627500", "163704.117500", "163705.607500", "163707.097500", "163708.587500", "163710.077500", "163711.567500", "163713.057500", "163714.547500", "163716.037500", "163717.527500", "163719.017500", "163720.507500", "163721.997500", "163723.487500", "163724.977500", "163726.467500", "163727.957500", "163729.447500", "163730.937500", "163732.427500", "163733.917500", "163735.407500", "163736.897500", "163738.387500", "163739.877500", "163741.367500", "163742.857500", "163744.347500", "163745.837500", "163747.327500", "163748.817500", "163750.307500", "163751.797500", "163753.287500", "163754.777500", "163756.267500", "163757.757500", "163759.247500", "163800.737500", "163802.227500", "163803.717500", "163805.207500", "163806.697500", "163808.187500", "163809.677500", "163811.167500", "163812.657500", "163814.147500", "163815.637500", "163817.127500", "163818.617500", "163820.107500", "163821.597500", "163823.087500", "163824.577500", "163826.067500", "163827.557500", "163829.047500", "163830.537500", "163832.027500", "163833.517500", "163835.007500", "163836.497500", "163837.987500", "163839.477500", "163840.967500", "163842.457500", "163843.947500", "163845.437500", "163846.927500", "163848.417500", "163849.907500", "163851.397500", "163852.887500", "163854.377500", "163855.867500", "163857.357500", "163858.847500", "163900.337500", "163901.827500", "163903.317500", "163904.807500", "163906.297500", "163907.787500", "163909.277500", "163910.767500", "163912.257500", "163913.747500", "163915.237500", "163916.727500", "163918.217500", "163919.707500", "163921.197500", "163922.687500", "163924.177500", "163925.667500", "163927.157500", "163928.647500", "163930.137500", "163931.627500", "163933.117500", "163934.607500", "163936.097500", "163937.587500", "163939.077500", "163940.567500", "163942.057500", "163943.547500", "163945.037500", "163946.527500", "163948.017500", "163949.507500", "163950.997500", "163952.487500", "163953.977500", "163955.467500", "163956.957500", "163958.447500", "163959.937500", "164001.427500", "164002.917500", "164004.407500", "164005.897500", "164007.387500", "164008.877500", "164010.367500", "164011.857500", "164013.347500", "164014.837500", "164016.327500", "164017.817500", "164019.307500", "164020.797500", "164022.287500", "164023.777500", "164025.267500", "164026.757500", "164028.247500", "164029.737500", "164031.227500", "164032.717500", "164034.207500", "164035.697500", "164037.187500", "164038.677500", "164040.167500", "164041.657500", "164043.147500", "164044.637500", "164046.127500", "164047.617500", "164049.107500", "164050.597500", "164052.087500", "164053.577500", "164055.067500", "164056.557500", "164058.047500", "164059.537500", "164101.027500", "164102.517500", "164104.007500", "164105.497500", "164106.987500", "164108.477500", "164109.967500", "164111.457500", "164112.947500", "164114.437500", "164115.927500", "164117.417500", "164118.907500", "164120.397500", "164121.887500", "164123.377500", "164124.867500", "164126.357500", "164127.847500", "164129.337500", "164130.827500", "164132.317500", "164133.807500", "164135.297500", "164136.787500", "164138.277500", "164139.767500", "164141.257500", "164142.747500", "164144.237500", "164145.727500", "164147.217500", "164148.707500", "164150.197500", "164151.687500", "164153.177500", "164154.667500", "164156.157500", "164157.647500", "164159.137500", "164200.627500", "164202.117500", "164203.607500", "164205.097500", "164206.587500", "164208.077500", "164209.567500", "164211.057500", "164212.547500", "164214.037500", "164215.527500", "164217.017500", "164218.507500", "164219.997500", "164221.487500", "164222.977500", "164224.467500"],
      "ContentTime": ["163243.012000", "163243.015000", "163243.017000", "163243.020000", "163243.022000", "163243.025000", "163243.027000", "163243.029000", "163243.032000", "163243.034000", "163243.037000", "163243.039000", "163243.042000", "163243.044000", "163243.046000", "163243.049000", "163243.051000", "163243.054000", "163243.064000", "163243.070000", "163243.073000", "163243.075000", "163243.077000", "163302.941000", "163302.944000", "163302.955000", "163302.958000", "163302.960000", "163302.963000", "163302.965000", "163302.968000", "163302.970000", "163302.978000", "163302.980000", "163302.983000", "163302.985000", "163302.988000", "163302.990000", "163302.992000", "163302.995000", "163302.997000", "163303.001000", "163303.004000", "163303.006000", "163322.940000", "163322.942000", "163322.945000", "163322.947000", "163322.950000", "163322.952000", "163322.955000", "163322.957000", "163322.960000", "163322.962000", "163322.971000", "163322.973000", "163322.976000", "163322.978000", "163322.981000", "163322.983000", "163322.985000", "163322.988000", "163322.990000", "163322.993000", "163342.950000", "163342.953000", "163342.955000", "163342.958000", "163342.960000", "163342.963000", "163342.965000", "163342.968000", "163342.970000", "163342.973000", "163342.975000", "163342.978000", "163342.980000", "163342.983000", "163342.985000", "163342.988000", "163342.990000", "163342.992000", "163342.995000", "163342.997000", "163422.981000", "163422.986000", "163422.989000", "163422.991000", "163422.994000", "163422.996000", "163423.000000", "163423.002000", "163423.005000", "163423.007000", "163423.010000", "163423.012000", "163423.015000", "163423.017000", "163423.020000", "163423.022000", "163423.025000", "163423.034000", "163423.036000", "163423.039000", "163423.041000", "163423.044000", "163423.046000", "163423.049000", "163423.051000", "163423.054000", "163423.056000", "163423.058000", "163423.061000", "163423.064000", "163423.066000", "163503.337000", "163503.340000", "163503.343000", "163503.345000", "163503.347000", "163503.350000", "163503.352000", "163503.355000", "163503.358000", "163503.361000", "163503.364000", "163503.366000", "163503.369000", "163503.372000", "163503.375000", "163503.378000", "163503.381000", "163503.383000", "163503.386000", "163503.388000", "163503.391000", "163503.393000", "163503.396000", "163503.398000", "163503.401000", "163503.403000", "163503.407000", "163542.980000", "163542.983000", "163542.985000", "163542.988000", "163542.991000", "163542.993000", "163542.996000", "163542.998000", "163543.002000", "163543.005000", "163543.007000", "163543.010000", "163543.012000", "163543.015000", "163543.018000", "163543.020000", "163543.023000", "163543.025000", "163543.028000", "163543.031000", "163543.033000", "163543.044000", "163543.047000", "163543.049000", "163543.052000", "163543.055000", "163622.976000", "163622.978000", "163622.981000", "163622.983000", "163622.986000", "163622.988000", "163622.991000", "163622.993000", "163622.996000", "163622.999000", "163623.001000", "163623.003000", "163623.006000", "163623.008000", "163623.012000", "163623.015000", "163623.017000", "163623.019000", "163623.022000", "163623.024000", "163623.027000", "163623.029000", "163623.032000", "163623.034000", "163623.037000", "163623.039000", "163623.042000", "163702.967000", "163702.970000", "163702.972000", "163702.975000", "163702.977000", "163702.980000", "163702.983000", "163702.985000", "163702.987000", "163702.990000", "163702.993000", "163702.995000", "163702.998000", "163703.001000", "163703.004000", "163703.006000", "163703.009000", "163703.011000", "163703.014000", "163703.016000", "163703.019000", "163703.021000", "163703.024000", "163703.026000", "163703.029000", "163703.031000", "163703.034000", "163742.969000", "163742.972000", "163742.974000", "163742.977000", "163742.979000", "163742.982000", "163742.984000", "163742.987000", "163742.989000", "163742.992000", "163742.994000", "163742.997000", "163743.000000", "163743.003000", "163743.005000", "163743.008000", "163743.010000", "163743.013000", "163743.015000", "163743.018000", "163743.020000", "163743.023000", "163743.025000", "163743.028000", "163743.030000", "163743.032000", "163743.035000", "163822.978000", "163822.980000", "163822.983000", "163822.985000", "163822.988000", "163822.990000", "163822.993000", "163822.996000", "163822.998000", "163823.002000", "163823.004000", "163823.014000", "163823.016000", "163823.019000", "163823.027000", "163823.030000", "163823.032000", "163823.035000", "163823.037000", "163823.040000", "163823.042000", "163823.045000", "163823.047000", "163823.050000", "163823.052000", "163823.055000", "163823.057000", "163902.991000", "163902.994000", "163902.996000", "163902.999000", "163903.001000", "163903.004000", "163903.006000", "163903.009000", "163903.011000", "163903.014000", "163903.016000", "163903.019000", "163903.021000", "163903.024000", "163903.026000", "163903.029000", "163903.031000", "163903.033000", "163903.036000", "163903.038000", "163903.041000", "163903.044000", "163903.046000", "163903.049000", "163903.052000", "163903.054000", "163903.057000", "163942.972000", "163942.975000", "163942.978000", "163942.980000", "163942.983000", "163942.985000", "163942.988000", "163942.991000", "163942.993000", "163942.996000", "163942.998000", "163943.014000", "163943.017000", "163943.020000", "163943.023000", "163943.026000", "163943.029000", "163943.032000", "163943.035000", "163943.037000", "163943.040000", "163943.043000", "163943.046000", "163943.049000", "163943.052000", "163943.055000", "163943.071000", "164022.968000", "164022.971000", "164022.973000", "164022.976000", "164022.978000", "164022.981000", "164022.983000", "164022.986000", "164022.988000", "164022.991000", "164022.993000", "164022.995000", "164022.998000", "164023.000000", "164023.003000", "164023.005000", "164023.008000", "164023.010000", "164023.013000", "164023.015000", "164023.018000", "164023.020000", "164023.023000", "164023.026000", "164023.036000", "164023.039000", "164102.986000", "164102.988000", "164102.991000", "164102.993000", "164102.996000", "164102.998000", "164103.002000", "164103.004000", "164103.007000", "164103.009000", "164103.012000", "164103.014000", "164103.017000", "164103.019000", "164103.022000", "164103.024000", "164103.027000", "164103.029000", "164103.032000", "164103.034000", "164103.037000", "164103.039000", "164103.042000", "164103.044000", "164103.047000", "164103.049000", "164103.057000", "164142.973000", "164142.975000", "164142.978000", "164142.980000", "164142.983000", "164142.985000", "164142.988000", "164142.990000", "164142.993000", "164142.995000", "164142.998000", "164143.001000", "164143.004000", "164143.006000", "164143.009000", "164143.011000", "164143.014000", "164143.016000", "164143.019000", "164143.021000", "164143.024000", "164143.026000", "164143.029000", "164143.031000", "164143.034000", "164143.036000", "164143.039000", "164222.964000", "164222.966000", "164222.969000", "164222.971000", "164222.974000", "164222.976000", "164222.979000", "164222.981000", "164222.984000", "164222.986000", "164222.989000", "164222.991000", "164222.994000", "164222.996000", "164223.000000", "164223.002000", "164223.005000", "164223.007000", "164223.010000", "164223.012000", "164223.015000", "164223.017000", "164223.020000", "164223.022000", "164223.025000", "164223.027000", "164223.030000", "164228.130000", "164228.133000", "164228.136000"],
