{
  "AcquisitionMatrixPE": 104,
  "AcquisitionNumber": 1,
  "AcquisitionTime": "14:13:5.967500",
  "BandwidthPerPixelPhaseEncode": 17.17,
  "BaseResolution": 104,
  "BodyPartExamined": "BRAIN",
  "CoilCombinationMethod": "Sum of Squares",
  "ConsistencyInfo": "N4_VE11C_LATEST_20160120",
  "ConversionSoftware": "dcm2niix",
  "ConversionSoftwareVersion": "v1.0.20211006",
  "DerivedVendorReportedEchoSpacing": 0.000560011,
  "DeviceSerialNumber": "167006",
  "DwellTime": 2.1e-06,
  "EchoTime": 0.037,
  "EchoTrainLength": 104,
  "EffectiveEchoSpacing": 0.000560011,
  "FlipAngle": 52,
  "HeudiconvVersion": "0.11.3.post9+gc939bf8",
  "ImageComments": "Unaliased MB4/PE3/LB",
  "ImageOrientationPatientDICOM": [0.999857, -0.00277088, 0.0166896, 0.00750395, 0.956783, -0.290705],
  "ImageOrientationText": "Tra>Cor(-16.9)>Sag(0.9)",
  "ImageType": [
    "ORIGINAL",
    "PRIMARY",
    "M",
    "MB",
    "ND",
    "MOSAIC"
],
  "ImagingFrequency": 123.259,
  "InPlanePhaseEncodingDirectionDICOM": "COL",
  "InstitutionAddress": "Chemin Queen-Mary 4565,Montreal,District,CA,H3W 1W5",
  "InstitutionName": "IUGM",
  "InstitutionalDepartmentName": "Department",
  "MRAcquisitionType": "2D",
  "MagneticFieldStrength": 3,
  "Manufacturer": "Siemens",
  "ManufacturersModelName": "Prisma_fit",
  "MatrixCoilMode": "SENSE",
  "Modality": "MR",
  "MultibandAccelerationFactor": 4,
  "PartialFourier": 1,
  "PatientPosition": "HFS",
  "PercentPhaseFOV": 100,
  "PercentSampling": 100,
  "PhaseEncodingDirection": "j",
  "PhaseEncodingSteps": 104,
  "PhaseResolution": 1,
  "PixelBandwidth": 2290,
  "ProcedureStepDescription": "games^mariostars",
  "ProtocolName": "func_task-mariostars_run-02",
  "PulseSequenceDetails": "%CustomerSeq%\\cmrr_mbep2d_bold",
  "ReceiveCoilActiveElements": "HC1-7;NC1,2",
  "ReceiveCoilName": "HeadNeck_64",
  "ReconMatrixPE": 104,
  "RepetitionTime": 1.49,
  "SAR": 0.0607023,
  "ScanOptions": "FS",
  "ScanningSequence": "EP",
  "SequenceName": "epfid2d1_104",
  "SequenceVariant": "SK\\SS",
  "SeriesDescription": "func_task-mariostars_run-02",
  "SeriesNumber": 17,
  "ShimSetting": [629, -7207, -8755, 690, 50, 16, 4, -1],
  "SliceThickness": 2,
  "SliceTiming": [0, 0.7825, 0.0975, 0.88, 0.195, 0.9775, 0.2925, 1.0775, 0.39, 1.175, 0.49, 1.2725, 0.5875, 1.37, 0.685, 0, 0.7825, 0.0975, 0.88, 0.195, 0.9775, 0.2925, 1.0775, 0.39, 1.175, 0.49, 1.2725, 0.5875, 1.37, 0.685, 0, 0.7825, 0.0975, 0.88, 0.195, 0.9775, 0.2925, 1.0775, 0.39, 1.175, 0.49, 1.2725, 0.5875, 1.37, 0.685, 0, 0.7825, 0.0975, 0.88, 0.195, 0.9775, 0.2925, 1.0775, 0.39, 1.175, 0.49, 1.2725, 0.5875, 1.37, 0.685],
  "SoftwareVersions": "syngo MR E11",
  "SpacingBetweenSlices": 2,
  "StationName": "MRC35049",
  "TaskName": "mariostars",
  "TotalReadoutTime": 0.0576811,
  "TxRefAmp": 239.135,
  "WipMemBlock": "1000a018-70c3-4a4f-a8f6-8d52889711bb||Sequence: R017 ve11c/master r/75a17815+; Jun 28 2022 16:32:11 by eja",
  "dcmmeta_affine": [
    [-1.9997137784957886, 0.015007895417511463, 0.03032560832798481, 107.65106964111328],
    [0.005541766528040171, 1.9135668277740479, -0.5815765857696533, -71.71817016601562],
    [0.03337915986776352, 0.5814092755317688, 1.9133344888687134, -58.305606842041016],
    [0.0, 0.0, 0.0, 1.0]
],
  "dcmmeta_reorient_transform": [
    [0.0, -1.0, 0.0, 103.0],
    [1.0, 0.0, 0.0, 0.0],
    [0.0, 0.0, 1.0, 0.0],
    [0.0, 0.0, 0.0, 1.0]
],
  "dcmmeta_shape": [104, 104, 60, 440],
  "dcmmeta_slice_dim": 2,
  "dcmmeta_version": 0.6,
  "global": {
    "const": {
      "AcquisitionMatrix": [104, 0, 0, 104],
      "AngioFlag": "N",
      "BitsAllocated": 16,
      "BitsStored": 16,
      "BodyPartExamined": "BRAIN",
      "Columns": 832,
      "EchoNumbers": 1,
      "EchoTime": 37.0,
      "EchoTrainLength": 104,
      "FlipAngle": 52.0,
      "HighBit": 15,
      "ImageOrientationPatient": [0.99985687982161, -0.0027708833015, 0.01668957995674, 0.00750394766661, 0.95678341146716, -0.2907046513399],
      "ImagePositionPatient": [-842.55556585392, -819.90033444461, 201.06252295711],
      "ImageType": [
        "ORIGINAL",
        "PRIMARY",
        "M",
        "MB",
        "ND",
        "MOSAIC"
],
      "ImagedNucleus": "1H",
      "ImagingFrequency": 123.258834,
      "InPlanePhaseEncodingDirection": "COL",
      "MRAcquisitionType": "2D",
      "MagneticFieldStrength": 3.0,
      "Manufacturer": "SIEMENS",
      "ManufacturerModelName": "Prisma_fit",
      "Modality": "MR",
      "NumberOfAverages": 1.0,
      "NumberOfPhaseEncodingSteps": 104,
      "PercentPhaseFieldOfView": 100.0,
      "PercentSampling": 100.0,
      "PerformedProcedureStepStartTime": "135035.148000",
      "PhotometricInterpretation": "MONOCHROME2",
      "PixelBandwidth": 2290.0,
      "PixelRepresentation": 0,
      "PixelSpacing": [2.0, 2.0],
      "ProtocolName": "func_task-mariostars_run-02",
      "RepetitionTime": 1490.0,
      "Rows": 832,
      "SAR": 0.06070234118326,
      "SamplesPerPixel": 1,
      "ScanOptions": "FS",
      "ScanningSequence": "EP",
      "SequenceName": "epfid2d1_104",
      "SequenceVariant": [
        "SK",
        "SS"
],
      "SeriesDescription": "func_task-mariostars_run-02",
      "SeriesNumber": 17,
      "SeriesTime": "141435.004000",
      "SliceLocation": -33.291970655546,
      "SliceThickness": 2.0,
      "SmallestImagePixelValue": 0,
      "SoftwareVersions": "syngo MR E11",
      "SpacingBetweenSlices": 1.9999999771523,
      "SpecificCharacterSet": "ISO_IR 100",
      "StudyID": "1",
      "StudyTime": "135035.056000",
      "TransmitCoilName": "Body",
      "VariableFlipAngleFlag": "N",
      "WindowCenterWidthExplanation": "Algo1",
      "dBdt": 0.0},
    "slices": {}
  },
  "time": {
    "samples": {
      "AcquisitionNumber": [1, 2, 3, 4, 5, 6, 7, 8, 9, 10, 11, 12, 13, 14, 15, 16, 17, 18, 19, 20, 21, 22, 23, 24, 25, 26, 27, 28, 29, 30, 31, 32, 33, 34, 35, 36, 37, 38, 39, 40, 41, 42, 43, 44, 45, 46, 47, 48, 49, 50, 51, 52, 53, 54, 55, 56, 57, 58, 59, 60, 61, 62, 63, 64, 65, 66, 67, 68, 69, 70, 71, 72, 73, 74, 75, 76, 77, 78, 79, 80, 81, 82, 83, 84, 85, 86, 87, 88, 89, 90, 91, 92, 93, 94, 95, 96, 97, 98, 99, 100, 101, 102, 103, 104, 105, 106, 107, 108, 109, 110, 111, 112, 113, 114, 115, 116, 117, 118, 119, 120, 121, 122, 123, 124, 125, 126, 127, 128, 129, 130, 131, 132, 133, 134, 135, 136, 137, 138, 139, 140, 141, 142, 143, 144, 145, 146, 147, 148, 149, 150, 151, 152, 153, 154, 155, 156, 157, 158, 159, 160, 161, 162, 163, 164, 165, 166, 167, 168, 169, 170, 171, 172, 173, 174, 175, 176, 177, 178, 179, 180, 181, 182, 183, 184, 185, 186, 187, 188, 189, 190, 191, 192, 193, 194, 195, 196, 197, 198, 199, 200, 201, 202, 203, 204, 205, 206, 207, 208, 209, 210, 211, 212, 213, 214, 215, 216, 217, 218, 219, 220, 221, 222, 223, 224, 225, 226, 227, 228, 229, 230, 231, 232, 233, 234, 235, 236, 237, 238, 239, 240, 241, 242, 243, 244, 245, 246, 247, 248, 249, 250, 251, 252, 253, 254, 255, 256, 257, 258, 259, 260, 261, 262, 263, 264, 265, 266, 267, 268, 269, 270, 271, 272, 273, 274, 275, 276, 277, 278, 279, 280, 281, 282, 283, 284, 285, 286, 287, 288, 289, 290, 291, 292, 293, 294, 295, 296, 297, 298, 299, 300, 301, 302, 303, 304, 305, 306, 307, 308, 309, 310, 311, 312, 313, 314, 315, 316, 317, 318, 319, 320, 321, 322, 323, 324, 325, 326, 327, 328, 329, 330, 331, 332, 333, 334, 335, 336, 337, 338, 339, 340, 341, 342, 343, 344, 345, 346, 347, 348, 349, 350, 351, 352, 353, 354, 355, 356, 357, 358, 359, 360, 361, 362, 363, 364, 365, 366, 367, 368, 369, 370, 371, 372, 373, 374, 375, 376, 377, 378, 379, 380, 381, 382, 383, 384, 385, 386, 387, 388, 389, 390, 391, 392, 393, 394, 395, 396, 397, 398, 399, 400, 401, 402, 403, 404, 405, 406, 407, 408, 409, 410, 411, 412, 413, 414, 415, 416, 417, 418, 419, 420, 421, 422, 423, 424, 425, 426, 427, 428, 429, 430, 431, 432, 433, 434, 435, 436, 437, 438, 439, 440],
      "AcquisitionTime": ["141305.967500", "141307.457500", "141308.947500", "141310.437500", "141311.927500", "141313.417500", "141314.907500", "141316.397500", "141317.887500", "141319.377500", "141320.867500", "141322.357500", "141323.847500", "141325.337500", "141326.827500", "141328.317500", "141329.807500", "141331.297500", "141332.787500", "141334.277500", "141335.767500", "141337.257500", "141338.747500", "141340.237500", "141341.727500", "141343.217500", "141344.707500", "141346.197500", "141347.687500", "141349.177500", "141350.667500", "141352.157500", "141353.647500", "141355.137500", "141356.627500", "141358.117500", "141359.607500", "141401.097500", "141402.587500", "141404.077500", "141405.567500", "141407.057500", "141408.547500", "141410.037500", "141411.527500", "141413.017500", "141414.507500", "141415.997500", "141417.487500", "141418.977500", "141420.467500", "141421.957500", "141423.447500", "141424.937500", "141426.427500", "141427.917500", "141429.407500", "141430.897500", "141432.387500", "141433.877500", "141435.367500", "141436.857500", "141438.347500", "141439.837500", "141441.327500", "141442.817500", "141444.307500", "141445.797500", "141447.287500", "141448.777500", "141450.267500", "141451.757500", "141453.247500", "141454.737500", "141456.227500", "141457.717500", "141459.207500", "141500.697500", "141502.187500", "141503.677500", "141505.167500", "141506.657500", "141508.147500", "141509.637500", "141511.127500", "141512.617500", "141514.107500", "141515.597500", "141517.087500", "141518.577500", "141520.067500", "141521.557500", "141523.047500", "141524.537500", "141526.027500", "141527.517500", "141529.007500", "141530.497500", "141531.987500", "141533.477500", "141534.967500", "141536.457500", "141537.947500", "141539.437500", "141540.927500", "141542.417500", "141543.907500", "141545.397500", "141546.887500", "141548.377500", "141549.867500", "141551.357500", "141552.847500", "141554.337500", "141555.827500", "141557.317500", "141558.807500", "141600.297500", "141601.787500", "141603.277500", "141604.767500", "141606.257500", "141607.747500", "141609.237500", "141610.727500", "141612.217500", "141613.707500", "141615.197500", "141616.687500", "141618.177500", "141619.667500", "141621.157500", "141622.647500", "141624.137500", "141625.627500", "141627.117500", "141628.607500", "141630.097500", "141631.587500", "141633.077500", "141634.567500", "141636.057500", "141637.547500", "141639.037500", "141640.527500", "141642.017500", "141643.507500", "141644.997500", "141646.487500", "141647.977500", "141649.467500", "141650.957500", "141652.447500", "141653.937500", "141655.427500", "141656.917500", "141658.407500", "141659.897500", "141701.387500", "141702.877500", "141704.367500", "141705.857500", "141707.347500", "141708.837500", "141710.327500", "141711.817500", "141713.307500", "141714.797500", "141716.287500", "141717.777500", "141719.267500", "141720.757500", "141722.247500", "141723.737500", "141725.227500", "141726.717500", "141728.207500", "141729.697500", "141731.187500", "141732.677500", "141734.167500", "141735.657500", "141737.147500", "141738.637500", "141740.127500", "141741.617500", "141743.107500", "141744.597500", "141746.087500", "141747.577500", "141749.067500", "141750.557500", "141752.047500", "141753.537500", "141755.027500", "141756.517500", "141758.007500", "141759.497500", "141800.987500", "141802.477500", "141803.967500", "141805.457500", "141806.947500", "141808.437500", "141809.927500", "141811.417500", "141812.907500", "141814.397500", "141815.887500", "141817.377500", "141818.867500", "141820.357500", "141821.847500", "141823.337500", "141824.827500", "141826.317500", "141827.807500", "141829.297500", "141830.787500", "141832.277500", "141833.767500", "141835.257500", "141836.747500", "141838.237500", "141839.727500", "141841.217500", "141842.707500", "141844.197500", "141845.687500", "141847.177500", "141848.667500", "141850.157500", "141851.647500", "141853.137500", "141854.627500", "141856.117500", "141857.607500", "141859.097500", "141900.587500", "141902.077500", "141903.567500", "141905.057500", "141906.547500", "141908.037500", "141909.527500", "141911.017500", "141912.507500", "141913.997500", "141915.487500", "141916.977500", "141918.467500", "141919.957500", "141921.447500", "141922.937500", "141924.427500", "141925.917500", "141927.407500", "141928.897500", "141930.387500", "141931.877500", "141933.367500", "141934.857500", "141936.347500", "141937.837500", "141939.327500", "141940.817500", "141942.307500", "141943.797500", "141945.287500", "141946.777500", "141948.267500", "141949.757500", "141951.247500", "141952.737500", "141954.227500", "141955.717500", "141957.207500", "141958.697500", "142000.187500", "142001.677500", "142003.167500", "142004.657500", "142006.147500", "142007.637500", "142009.127500", "142010.617500", "142012.107500", "142013.597500", "142015.087500", "142016.577500", "142018.067500", "142019.557500", "142021.047500", "142022.537500", "142024.027500", "142025.517500", "142027.007500", "142028.497500", "142029.987500", "142031.477500", "142032.967500", "142034.457500", "142035.947500", "142037.437500", "142038.927500", "142040.417500", "142041.907500", "142043.397500", "142044.887500", "142046.377500", "142047.867500", "142049.357500", "142050.847500", "142052.337500", "142053.827500", "142055.317500", "142056.807500", "142058.297500", "142059.787500", "142101.277500", "142102.767500", "142104.257500", "142105.747500", "142107.237500", "142108.727500", "142110.217500", "142111.707500", "142113.197500", "142114.687500", "142116.177500", "142117.667500", "142119.157500", "142120.647500", "142122.137500", "142123.627500", "142125.117500", "142126.607500", "142128.097500", "142129.587500", "142131.077500", "142132.567500", "142134.057500", "142135.547500", "142137.037500", "142138.527500", "142140.017500", "142141.507500", "142142.997500", "142144.487500", "142145.977500", "142147.467500", "142148.957500", "142150.447500", "142151.937500", "142153.427500", "142154.917500", "142156.407500", "142157.897500", "142159.387500", "142200.877500", "142202.367500", "142203.857500", "142205.347500", "142206.837500", "142208.327500", "142209.817500", "142211.307500", "142212.797500", "142214.287500", "142215.777500", "142217.267500", "142218.757500", "142220.247500", "142221.737500", "142223.227500", "142224.717500", "142226.207500", "142227.697500", "142229.187500", "142230.677500", "142232.167500", "142233.657500", "142235.147500", "142236.637500", "142238.127500", "142239.617500", "142241.107500", "142242.597500", "142244.087500", "142245.577500", "142247.067500", "142248.557500", "142250.047500", "142251.537500", "142253.027500", "142254.517500", "142256.007500", "142257.497500", "142258.987500", "142300.477500", "142301.967500", "142303.457500", "142304.947500", "142306.437500", "142307.927500", "142309.417500", "142310.907500", "142312.397500", "142313.887500", "142315.377500", "142316.867500", "142318.357500", "142319.847500", "142321.337500", "142322.827500", "142324.317500", "142325.807500", "142327.297500", "142328.787500", "142330.277500", "142331.767500", "142333.257500", "142334.747500", "142336.237500", "142337.727500", "142339.217500", "142340.707500", "142342.197500", "142343.687500", "142345.177500", "142346.667500", "142348.157500", "142349.647500", "142351.137500", "142352.627500", "142354.117500", "142355.607500", "142357.097500", "142358.587500", "142400.077500"],
      "ContentTime": ["141435.007000", "141435.011000", "141435.015000", "141435.018000", "141435.021000", "141435.025000", "141435.028000", "141435.040000", "141435.044000", "141435.048000", "141435.051000", "141435.055000", "141435.058000", "141435.062000", "141435.073000", "141435.076000", "141435.080000", "141435.083000", "141435.087000", "141435.090000", "141435.093000", "141435.097000", "141435.100000", "141435.104000", "141435.107000", "141435.110000", "141435.114000", "141435.117000", "141435.120000", "141435.124000", "141435.127000", "141435.131000", "141435.134000", "141435.137000", "141435.141000", "141435.144000", "141435.147000", "141435.151000", "141435.159000", "141435.163000", "141454.962000", "141454.966000", "141454.969000", "141454.973000", "141454.976000", "141454.988000", "141454.992000", "141454.995000", "141454.998000", "141455.003000", "141455.006000", "141455.010000", "141455.013000", "141455.016000", "141455.020000", "141455.023000", "141455.026000", "141455.030000", "141455.033000", "141455.036000", "141514.962000", "141514.966000", "141514.969000", "141514.973000", "141514.976000", "141514.980000", "141514.983000", "141514.986000", "141514.990000", "141514.993000", "141514.997000", "141515.023000", "141515.035000", "141515.038000", "141515.042000", "141515.045000", "141515.048000", "141515.051000", "141515.055000", "141515.058000", "141554.962000", "141554.966000", "141554.970000", "141554.973000", "141554.976000", "141554.980000", "141554.983000", "141554.986000", "141554.990000", "141554.993000", "141554.997000", "141555.001000", "141555.004000", "141555.008000", "141555.011000", "141555.014000", "141555.018000", "141555.021000", "141555.025000", "141555.028000", "141555.031000", "141555.034000", "141555.038000", "141555.041000", "141555.045000", "141555.048000", "141555.051000", "141555.055000", "141555.058000", "141555.062000", "141555.065000", "141555.068000", "141555.072000", "141634.962000", "141634.966000", "141634.969000", "141634.973000", "141634.976000", "141634.980000", "141634.983000", "141634.987000", "141634.991000", "141634.994000", "141634.997000", "141635.002000", "141635.005000", "141635.008000", "141635.012000", "141635.015000", "141635.019000", "141635.022000", "141635.025000", "141635.029000", "141635.032000", "141635.036000", "141635.039000", "141635.042000", "141635.046000", "141635.049000", "141714.962000", "141714.966000", "141714.969000", "141714.973000", "141714.976000", "141714.979000", "141714.983000", "141714.986000", "141714.990000", "141714.993000", "141714.996000", "141715.001000", "141715.004000", "141715.007000", "141715.017000", "141715.020000", "141715.024000", "141715.027000", "141715.030000", "141715.034000", "141715.037000", "141715.040000", "141715.044000", "141715.047000", "141715.051000", "141715.063000", "141715.067000", "141754.962000", "141754.966000", "141754.970000", "141754.973000", "141754.976000", "141754.980000", "141754.990000", "141754.994000", "141754.997000", "141755.002000", "141755.012000", "141755.015000", "141755.018000", "141755.022000", "141755.025000", "141755.029000", "141755.032000", "141755.035000", "141755.039000", "141755.042000", "141755.046000", "141755.049000", "141755.052000", "141755.056000", "141755.059000", "141755.063000", "141755.066000", "141834.963000", "141834.967000", "141834.970000", "141834.974000", "141834.977000", "141834.981000", "141834.984000", "141834.988000", "141834.991000", "141834.994000", "141834.998000", "141835.002000", "141835.005000", "141835.009000", "141835.012000", "141835.016000", "141835.019000", "141835.023000", "141835.026000", "141835.030000", "141835.033000", "141835.037000", "141835.040000", "141835.043000", "141835.047000", "141835.050000", "141835.053000", "141914.962000", "141914.966000", "141914.970000", "141914.973000", "141914.977000", "141914.980000", "141914.983000", "141914.987000", "141914.990000", "141914.994000", "141914.997000", "141915.002000", "141915.005000", "141915.008000", "141915.012000", "141915.016000", "141915.019000", "141915.022000", "141915.026000", "141915.029000", "141915.033000", "141915.041000", "141915.044000", "141915.048000", "141915.051000", "141915.054000", "141915.058000", "141954.962000", "141954.966000", "141954.969000", "141954.973000", "141954.976000", "141954.980000", "141954.983000", "141954.987000", "141954.990000", "141954.994000", "141954.997000", "141955.001000", "141955.005000", "141955.008000", "141955.027000", "141955.031000", "141955.034000", "141955.037000", "141955.041000", "141955.044000", "141955.047000", "141955.051000", "141955.054000", "141955.057000", "141955.061000", "141955.064000", "141955.068000", "142034.962000", "142034.966000", "142034.969000", "142034.973000", "142034.976000", "142034.979000", "142034.983000", "142034.986000", "142034.990000", "142034.994000", "142034.997000", "142035.002000", "142035.005000", "142035.010000", "142035.014000", "142035.017000", "142035.021000", "142035.024000", "142035.027000", "142035.031000", "142035.034000", "142035.038000", "142035.041000", "142035.044000", "142035.048000", "142035.051000", "142114.962000", "142114.966000", "142114.970000", "142114.973000", "142114.976000", "142114.980000", "142114.983000", "142114.987000", "142114.990000", "142114.993000", "142114.997000", "142115.001000", "142115.009000", "142115.012000", "142115.016000", "142115.019000", "142115.022000", "142115.026000", "142115.029000", "142115.033000", "142115.036000", "142115.039000", "142115.043000", "142115.046000", "142115.049000", "142115.053000", "142115.056000", "142154.962000", "142154.966000", "142154.970000", "142154.973000", "142154.976000", "142154.980000", "142154.983000", "142154.986000", "142154.990000", "142154.993000", "142154.997000", "142155.001000", "142155.004000", "142155.008000", "142155.011000", "142155.015000", "142155.018000", "142155.021000", "142155.025000", "142155.028000", "142155.031000", "142155.035000", "142155.038000", "142155.041000", "142155.045000", "142155.048000", "142155.061000", "142234.962000", "142234.966000", "142234.970000", "142234.973000", "142234.976000", "142234.980000", "142234.983000", "142234.987000", "142234.990000", "142234.993000", "142234.997000", "142235.001000", "142235.005000", "142235.008000", "142235.011000", "142235.015000", "142235.019000", "142235.023000", "142235.026000", "142235.030000", "142235.033000", "142235.037000", "142235.040000", "142235.043000", "142235.047000", "142235.050000", "142235.054000", "142314.963000", "142314.967000", "142314.970000", "142314.974000", "142314.977000", "142314.980000", "142314.984000", "142314.987000", "142314.991000", "142314.994000", "142314.998000", "142315.002000", "142315.005000", "142315.009000", "142315.012000", "142315.015000", "142315.019000", "142315.022000", "142315.035000", "142315.038000", "142315.042000", "142315.045000", "142315.048000", "142315.052000", "142315.055000", "142315.058000", "142315.062000", "142354.962000", "142354.966000", "142354.969000", "142354.980000", "142354.983000", "142354.986000", "142354.990000", "142354.993000", "142354.997000", "142355.001000", "142355.008000", "142355.011000", "142355.015000", "142355.018000", "142355.022000", "142355.025000", "142355.029000", "142355.032000", "142355.035000", "142355.039000", "142355.043000", "142355.046000", "142355.049000", "142355.053000", "142355.056000", "142355.060000", "142355.063000", "142403.313000", "142403.317000", "142403.320000", "142403.324000", "142403.327000"],
