{
  "AcquisitionMatrixPE": 104,
  "AcquisitionNumber": 1,
  "AcquisitionTime": "16:09:14.170000",
  "BandwidthPerPixelPhaseEncode": 17.17,
  "BaseResolution": 104,
  "BodyPartExamined": "BRAIN",
  "CoilCombinationMethod": "Sum of Squares",
  "ConsistencyInfo": "N4_VE11C_LATEST_20160120",
  "ConversionSoftware": "dcm2niix",
  "ConversionSoftwareVersion": "v1.0.20211006",
  "DerivedVendorReportedEchoSpacing": 0.000560011,
  "DeviceSerialNumber": "167006",
  "DwellTime": 2.1e-06,
  "EchoTime": 0.037,
  "EchoTime1": 0.037,
  "EchoTime2": 0.001,
  "EchoTrainLength": 104,
  "EffectiveEchoSpacing": 0.000560011,
  "FlipAngle": 52,
  "HeudiconvVersion": "0.11.3.post9+gc939bf8",
  "ImageComments": "Unaliased MB4/PE3/LB",
  "ImageOrientationPatientDICOM": [0.998698, -0.0509727, 0.00185296, 0.0490192, 0.949117, -0.311086],
  "ImageOrientationText": "Tra>Cor(-18.1)>Sag(-0.8)",
  "ImageType": [
    "ORIGINAL",
    "PRIMARY",
    "P",
    "MB",
    "ND",
    "MOSAIC",
    "PHASE"
],
  "ImagingFrequency": 123.259,
  "InPlanePhaseEncodingDirectionDICOM": "COL",
  "InstitutionAddress": "Chemin Queen-Mary 4565,Montreal,District,CA,H3W 1W5",
  "InstitutionName": "IUGM",
  "InstitutionalDepartmentName": "Department",
  "MRAcquisitionType": "2D",
  "MagneticFieldStrength": 3,
  "Manufacturer": "Siemens",
  "ManufacturersModelName": "Prisma_fit",
  "MatrixCoilMode": "SENSE",
  "Modality": "MR",
  "MultibandAccelerationFactor": 4,
  "PartialFourier": 1,
  "PatientPosition": "HFS",
  "PercentPhaseFOV": 100,
  "PercentSampling": 100,
  "PhaseEncodingDirection": "j",
  "PhaseEncodingSteps": 104,
  "PhaseResolution": 1,
  "PixelBandwidth": 2290,
  "ProcedureStepDescription": "games^mariostars",
  "ProtocolName": "func_task-mariostars_run-03",
  "PulseSequenceDetails": "%CustomerSeq%\\cmrr_mbep2d_bold",
  "ReceiveCoilActiveElements": "HC1-7;NC1,2",
  "ReceiveCoilName": "HeadNeck_64",
  "ReconMatrixPE": 104,
  "RepetitionTime": 1.49,
  "SAR": 0.0420938,
  "ScanOptions": "FS",
  "ScanningSequence": "EP",
  "SequenceName": "epfid2d1_104",
  "SequenceVariant": "SK\\SS",
  "SeriesDescription": "func_task-mariostars_run-03",
  "SeriesNumber": 17,
  "ShimSetting": [625, -7255, -8814, 586, 8, -202, -62, 5],
  "SliceThickness": 2,
  "SliceTiming": [0, 0.785, 0.0975, 0.8825, 0.1975, 0.98, 0.295, 1.0775, 0.3925, 1.1775, 0.49, 1.275, 0.5875, 1.3725, 0.6875, 0, 0.785, 0.0975, 0.8825, 0.1975, 0.98, 0.295, 1.0775, 0.3925, 1.1775, 0.49, 1.275, 0.5875, 1.3725, 0.6875, 0, 0.785, 0.0975, 0.8825, 0.1975, 0.98, 0.295, 1.0775, 0.3925, 1.1775, 0.49, 1.275, 0.5875, 1.3725, 0.6875, 0, 0.785, 0.0975, 0.8825, 0.1975, 0.98, 0.295, 1.0775, 0.3925, 1.1775, 0.49, 1.275, 0.5875, 1.3725, 0.6875],
  "SoftwareVersions": "syngo MR E11",
  "SpacingBetweenSlices": 2,
  "StationName": "MRC35049",
  "TaskName": "mariostars",
  "TotalReadoutTime": 0.0576811,
  "TxRefAmp": 247.924,
  "WipMemBlock": "1de0e415-f5e4-4fbc-97b7-925a1618f0d2||Sequence: R016 ve11c/master r/e634e98; Dec 19 2017 11:00:25 by eja",
  "dcmmeta_affine": [
    [-1.99739670753479, 0.09803847223520279, -0.028196409344673157, 102.36354064941406],
    [0.10194530338048935, 1.8982335329055786, -0.621543824672699, -71.72744750976562],
    [0.0037059185560792685, 0.6221720576286316, 1.9007599353790283, -61.41859436035156],
    [0.0, 0.0, 0.0, 1.0]
],
  "dcmmeta_reorient_transform": [
    [0.0, -1.0, 0.0, 103.0],
    [1.0, 0.0, 0.0, 0.0],
    [0.0, 0.0, 1.0, 0.0],
    [0.0, 0.0, 0.0, 1.0]
],
  "dcmmeta_shape": [104, 104, 60, 433],
  "dcmmeta_slice_dim": 2,
  "dcmmeta_version": 0.6,
  "global": {
    "const": {
      "AcquisitionMatrix": [104, 0, 0, 104],
      "AngioFlag": "N",
      "BitsAllocated": 16,
      "BitsStored": 16,
      "BodyPartExamined": "BRAIN",
      "Columns": 832,
      "EchoNumbers": 1,
      "EchoTime": 37.0,
      "EchoTrainLength": 104,
      "FlipAngle": 52.0,
      "HighBit": 15,
      "ImageOrientationPatient": [0.9986983304731, -0.0509726520032, 0.00185295925669, 0.04901923439526, 0.94911675066151, -0.3110860142678],
      "ImagePositionPatient": [-875.19988982688, -777.63950939221, 227.78679030381],
      "ImageType": [
        "ORIGINAL",
        "PRIMARY",
        "P",
        "MB",
        "ND",
        "MOSAIC"
],
      "ImagedNucleus": "1H",
      "ImagingFrequency": 123.258812,
      "InPlanePhaseEncodingDirection": "COL",
      "LargestImagePixelValue": 4095,
      "MRAcquisitionType": "2D",
      "MagneticFieldStrength": 3.0,
      "Manufacturer": "SIEMENS",
      "ManufacturerModelName": "Prisma_fit",
      "Modality": "MR",
      "NumberOfAverages": 1.0,
      "NumberOfPhaseEncodingSteps": 104,
      "PercentPhaseFieldOfView": 100.0,
      "PercentSampling": 100.0,
      "PerformedProcedureStepStartTime": "150626.885000",
      "PhotometricInterpretation": "MONOCHROME2",
      "PixelBandwidth": 2290.0,
      "PixelRepresentation": 0,
      "PixelSpacing": [2.0, 2.0],
      "ProtocolName": "func_task-mariostars_run-03",
      "RepetitionTime": 1490.0,
      "RescaleIntercept": -4096.0,
      "RescaleSlope": 2.0,
      "RescaleType": "US",
      "Rows": 832,
      "SAR": 0.0420938259106,
      "SamplesPerPixel": 1,
      "ScanOptions": "FS",
      "ScanningSequence": "EP",
      "SequenceName": "epfid2d1_104",
      "SequenceVariant": [
        "SK",
        "SS"
],
      "SeriesDescription": "func_task-mariostars_run-03",
      "SeriesNumber": 17,
      "SeriesTime": "161015.996000",
      "SliceLocation": -37.523266083713,
      "SliceThickness": 2.0,
      "SmallestImagePixelValue": 0,
      "SoftwareVersions": "syngo MR E11",
      "SpacingBetweenSlices": 2.0000000593674,
      "SpecificCharacterSet": "ISO_IR 100",
      "StudyID": "1",
      "StudyTime": "150626.814000",
      "TransmitCoilName": "Body",
      "VariableFlipAngleFlag": "N",
      "WindowCenterWidthExplanation": "Algo1",
      "dBdt": 0.0},
    "slices": {}
  },
  "time": {
    "samples": {
      "AcquisitionNumber": [1, 2, 3, 4, 5, 6, 7, 8, 9, 10, 11, 12, 13, 14, 15, 16, 17, 18, 19, 20, 21, 22, 23, 24, 25, 26, 27, 28, 29, 30, 31, 32, 33, 34, 35, 36, 37, 38, 39, 40, 41, 42, 43, 44, 45, 46, 47, 48, 49, 50, 51, 52, 53, 54, 55, 56, 57, 58, 59, 60, 61, 62, 63, 64, 65, 66, 67, 68, 69, 70, 71, 72, 73, 74, 75, 76, 77, 78, 79, 80, 81, 82, 83, 84, 85, 86, 87, 88, 89, 90, 91, 92, 93, 94, 95, 96, 97, 98, 99, 100, 101, 102, 103, 104, 105, 106, 107, 108, 109, 110, 111, 112, 113, 114, 115, 116, 117, 118, 119, 120, 121, 122, 123, 124, 125, 126, 127, 128, 129, 130, 131, 132, 133, 134, 135, 136, 137, 138, 139, 140, 141, 142, 143, 144, 145, 146, 147, 148, 149, 150, 151, 152, 153, 154, 155, 156, 157, 158, 159, 160, 161, 162, 163, 164, 165, 166, 167, 168, 169, 170, 171, 172, 173, 174, 175, 176, 177, 178, 179, 180, 181, 182, 183, 184, 185, 186, 187, 188, 189, 190, 191, 192, 193, 194, 195, 196, 197, 198, 199, 200, 201, 202, 203, 204, 205, 206, 207, 208, 209, 210, 211, 212, 213, 214, 215, 216, 217, 218, 219, 220, 221, 222, 223, 224, 225, 226, 227, 228, 229, 230, 231, 232, 233, 234, 235, 236, 237, 238, 239, 240, 241, 242, 243, 244, 245, 246, 247, 248, 249, 250, 251, 252, 253, 254, 255, 256, 257, 258, 259, 260, 261, 262, 263, 264, 265, 266, 267, 268, 269, 270, 271, 272, 273, 274, 275, 276, 277, 278, 279, 280, 281, 282, 283, 284, 285, 286, 287, 288, 289, 290, 291, 292, 293, 294, 295, 296, 297, 298, 299, 300, 301, 302, 303, 304, 305, 306, 307, 308, 309, 310, 311, 312, 313, 314, 315, 316, 317, 318, 319, 320, 321, 322, 323, 324, 325, 326, 327, 328, 329, 330, 331, 332, 333, 334, 335, 336, 337, 338, 339, 340, 341, 342, 343, 344, 345, 346, 347, 348, 349, 350, 351, 352, 353, 354, 355, 356, 357, 358, 359, 360, 361, 362, 363, 364, 365, 366, 367, 368, 369, 370, 371, 372, 373, 374, 375, 376, 377, 378, 379, 380, 381, 382, 383, 384, 385, 386, 387, 388, 389, 390, 391, 392, 393, 394, 395, 396, 397, 398, 399, 400, 401, 402, 403, 404, 405, 406, 407, 408, 409, 410, 411, 412, 413, 414, 415, 416, 417, 418, 419, 420, 421, 422, 423, 424, 425, 426, 427, 428, 429, 430, 431, 432, 433],
      "AcquisitionTime": ["160914.170000", "160915.660000", "160917.150000", "160918.640000", "160920.130000", "160921.620000", "160923.110000", "160924.600000", "160926.090000", "160927.580000", "160929.070000", "160930.560000", "160932.050000", "160933.540000", "160935.030000", "160936.520000", "160938.010000", "160939.500000", "160940.990000", "160942.480000", "160943.970000", "160945.460000", "160946.950000", "160948.440000", "160949.930000", "160951.420000", "160952.910000", "160954.400000", "160955.890000", "160957.380000", "160958.870000", "161000.360000", "161001.850000", "161003.340000", "161004.830000", "161006.320000", "161007.810000", "161009.300000", "161010.790000", "161012.280000", "161013.770000", "161015.260000", "161016.750000", "161018.240000", "161019.730000", "161021.220000", "161022.710000", "161024.200000", "161025.690000", "161027.180000", "161028.670000", "161030.160000", "161031.650000", "161033.140000", "161034.630000", "161036.120000", "161037.610000", "161039.100000", "161040.590000", "161042.080000", "161043.570000", "161045.060000", "161046.550000", "161048.040000", "161049.530000", "161051.020000", "161052.510000", "161054.000000", "161055.490000", "161056.980000", "161058.470000", "161059.960000", "161101.450000", "161102.940000", "161104.430000", "161105.920000", "161107.410000", "161108.900000", "161110.390000", "161111.880000", "161113.370000", "161114.860000", "161116.350000", "161117.840000", "161119.330000", "161120.820000", "161122.310000", "161123.800000", "161125.290000", "161126.780000", "161128.270000", "161129.760000", "161131.250000", "161132.740000", "161134.230000", "161135.720000", "161137.210000", "161138.700000", "161140.190000", "161141.680000", "161143.170000", "161144.660000", "161146.150000", "161147.640000", "161149.130000", "161150.620000", "161152.110000", "161153.600000", "161155.090000", "161156.580000", "161158.070000", "161159.560000", "161201.050000", "161202.540000", "161204.030000", "161205.520000", "161207.010000", "161208.500000", "161209.990000", "161211.480000", "161212.970000", "161214.460000", "161215.950000", "161217.440000", "161218.930000", "161220.420000", "161221.910000", "161223.400000", "161224.890000", "161226.380000", "161227.870000", "161229.360000", "161230.850000", "161232.340000", "161233.830000", "161235.320000", "161236.810000", "161238.300000", "161239.790000", "161241.280000", "161242.770000", "161244.260000", "161245.750000", "161247.240000", "161248.730000", "161250.220000", "161251.710000", "161253.200000", "161254.690000", "161256.180000", "161257.670000", "161259.160000", "161300.650000", "161302.140000", "161303.630000", "161305.120000", "161306.610000", "161308.100000", "161309.590000", "161311.080000", "161312.570000", "161314.060000", "161315.550000", "161317.040000", "161318.530000", "161320.020000", "161321.510000", "161323.000000", "161324.490000", "161325.980000", "161327.470000", "161328.960000", "161330.450000", "161331.940000", "161333.430000", "161334.920000", "161336.410000", "161337.900000", "161339.390000", "161340.880000", "161342.370000", "161343.860000", "161345.350000", "161346.840000", "161348.330000", "161349.820000", "161351.310000", "161352.800000", "161354.290000", "161355.780000", "161357.270000", "161358.760000", "161400.250000", "161401.740000", "161403.230000", "161404.720000", "161406.210000", "161407.700000", "161409.190000", "161410.680000", "161412.170000", "161413.660000", "161415.150000", "161416.640000", "161418.130000", "161419.620000", "161421.110000", "161422.600000", "161424.090000", "161425.580000", "161427.070000", "161428.560000", "161430.050000", "161431.540000", "161433.030000", "161434.520000", "161436.010000", "161437.500000", "161438.990000", "161440.480000", "161441.970000", "161443.460000", "161444.950000", "161446.440000", "161447.930000", "161449.420000", "161450.910000", "161452.400000", "161453.890000", "161455.380000", "161456.870000", "161458.360000", "161459.850000", "161501.340000", "161502.830000", "161504.320000", "161505.810000", "161507.300000", "161508.790000", "161510.280000", "161511.770000", "161513.260000", "161514.750000", "161516.240000", "161517.730000", "161519.220000", "161520.710000", "161522.200000", "161523.690000", "161525.180000", "161526.670000", "161528.160000", "161529.650000", "161531.140000", "161532.630000", "161534.120000", "161535.610000", "161537.100000", "161538.590000", "161540.080000", "161541.570000", "161543.060000", "161544.550000", "161546.040000", "161547.530000", "161549.020000", "161550.510000", "161552.000000", "161553.490000", "161554.980000", "161556.470000", "161557.960000", "161559.450000", "161600.940000", "161602.430000", "161603.920000", "161605.410000", "161606.900000", "161608.390000", "161609.880000", "161611.370000", "161612.860000", "161614.350000", "161615.840000", "161617.330000", "161618.820000", "161620.310000", "161621.800000", "161623.290000", "161624.780000", "161626.270000", "161627.760000", "161629.250000", "161630.740000", "161632.230000", "161633.720000", "161635.210000", "161636.700000", "161638.190000", "161639.680000", "161641.170000", "161642.660000", "161644.150000", "161645.640000", "161647.130000", "161648.620000", "161650.110000", "161651.600000", "161653.090000", "161654.580000", "161656.070000", "161657.560000", "161659.050000", "161700.540000", "161702.030000", "161703.520000", "161705.010000", "161706.500000", "161707.990000", "161709.480000", "161710.970000", "161712.460000", "161713.950000", "161715.440000", "161716.930000", "161718.420000", "161719.910000", "161721.400000", "161722.890000", "161724.380000", "161725.870000", "161727.360000", "161728.850000", "161730.340000", "161731.830000", "161733.320000", "161734.810000", "161736.300000", "161737.790000", "161739.280000", "161740.770000", "161742.260000", "161743.750000", "161745.240000", "161746.730000", "161748.220000", "161749.710000", "161751.200000", "161752.690000", "161754.180000", "161755.670000", "161757.160000", "161758.650000", "161800.140000", "161801.630000", "161803.120000", "161804.610000", "161806.100000", "161807.590000", "161809.080000", "161810.570000", "161812.060000", "161813.550000", "161815.040000", "161816.530000", "161818.020000", "161819.510000", "161821.000000", "161822.490000", "161823.980000", "161825.470000", "161826.960000", "161828.450000", "161829.940000", "161831.430000", "161832.920000", "161834.410000", "161835.900000", "161837.390000", "161838.880000", "161840.370000", "161841.860000", "161843.350000", "161844.840000", "161846.330000", "161847.820000", "161849.310000", "161850.800000", "161852.290000", "161853.780000", "161855.270000", "161856.760000", "161858.250000", "161859.740000", "161901.230000", "161902.720000", "161904.210000", "161905.700000", "161907.190000", "161908.680000", "161910.170000", "161911.660000", "161913.150000", "161914.640000", "161916.130000", "161917.620000", "161919.110000", "161920.600000", "161922.090000", "161923.580000", "161925.070000", "161926.560000", "161928.050000", "161929.540000", "161931.030000", "161932.520000", "161934.010000", "161935.500000", "161936.990000", "161938.480000", "161939.970000", "161941.460000", "161942.950000", "161944.440000", "161945.930000", "161947.420000", "161948.910000", "161950.400000", "161951.890000", "161953.380000", "161954.870000", "161956.360000", "161957.850000"],
      "ContentTime": ["161015.999000", "161016.002000", "161016.009000", "161016.011000", "161016.014000", "161016.016000", "161016.018000", "161016.021000", "161016.023000", "161036.059000", "161036.062000", "161036.064000", "161036.067000", "161036.069000", "161036.072000", "161036.074000", "161036.077000", "161036.079000", "161036.082000", "161036.084000", "161036.087000", "161036.089000", "161036.092000", "161036.099000", "161036.101000", "161036.103000", "161036.106000", "161036.108000", "161036.111000", "161056.013000", "161056.016000", "161056.019000", "161056.021000", "161056.024000", "161056.026000", "161056.028000", "161056.031000", "161056.033000", "161056.036000", "161056.038000", "161056.041000", "161056.043000", "161056.046000", "161056.048000", "161056.051000", "161056.053000", "161056.055000", "161056.058000", "161056.060000", "161115.995000", "161115.998000", "161116.002000", "161116.004000", "161116.006000", "161116.009000", "161116.011000", "161116.014000", "161116.016000", "161116.024000", "161116.026000", "161116.029000", "161116.031000", "161116.034000", "161116.036000", "161116.039000", "161116.041000", "161116.044000", "161116.046000", "161116.049000", "161116.051000", "161136.001000", "161136.004000", "161136.006000", "161136.009000", "161136.011000", "161136.013000", "161136.016000", "161136.018000", "161136.021000", "161136.023000", "161136.026000", "161136.028000", "161136.031000", "161136.033000", "161136.036000", "161136.038000", "161136.041000", "161136.043000", "161136.046000", "161136.048000", "161216.048000", "161216.051000", "161216.053000", "161216.056000", "161216.058000", "161216.061000", "161216.063000", "161216.066000", "161216.069000", "161216.071000", "161216.074000", "161216.076000", "161216.079000", "161216.081000", "161216.084000", "161216.086000", "161216.089000", "161216.091000", "161216.094000", "161216.096000", "161216.099000", "161216.101000", "161216.104000", "161216.106000", "161216.109000", "161216.111000", "161216.114000", "161216.116000", "161216.119000", "161216.121000", "161216.124000", "161256.038000", "161256.041000", "161256.044000", "161256.046000", "161256.049000", "161256.051000", "161256.054000", "161256.056000", "161256.059000", "161256.061000", "161256.064000", "161256.066000", "161256.068000", "161256.071000", "161256.073000", "161256.076000", "161256.078000", "161256.081000", "161256.083000", "161256.086000", "161256.088000", "161256.091000", "161256.093000", "161256.096000", "161256.098000", "161256.101000", "161256.103000", "161336.030000", "161336.033000", "161336.035000", "161336.038000", "161336.040000", "161336.043000", "161336.045000", "161336.048000", "161336.051000", "161336.053000", "161336.056000", "161336.058000", "161336.061000", "161336.063000", "161336.066000", "161336.068000", "161336.071000", "161336.073000", "161336.076000", "161336.078000", "161336.081000", "161336.083000", "161336.086000", "161336.088000", "161336.091000", "161336.093000", "161336.096000", "161416.038000", "161416.041000", "161416.043000", "161416.046000", "161416.048000", "161416.051000", "161416.053000", "161416.056000", "161416.058000", "161416.061000", "161416.064000", "161416.066000", "161416.069000", "161416.071000", "161416.074000", "161416.076000", "161416.079000", "161416.081000", "161416.084000", "161416.086000", "161416.089000", "161416.091000", "161416.094000", "161416.097000", "161416.099000", "161416.102000", "161416.104000", "161456.045000", "161456.047000", "161456.050000", "161456.053000", "161456.055000", "161456.058000", "161456.060000", "161456.063000", "161456.065000", "161456.068000", "161456.070000", "161456.072000", "161456.075000", "161456.077000", "161456.080000", "161456.082000", "161456.085000", "161456.088000", "161456.090000", "161456.092000", "161456.095000", "161456.097000", "161456.110000", "161456.113000", "161456.115000", "161456.118000", "161536.037000", "161536.040000", "161536.042000", "161536.045000", "161536.047000", "161536.050000", "161536.052000", "161536.054000", "161536.057000", "161536.059000", "161536.062000", "161536.065000", "161536.067000", "161536.070000", "161536.072000", "161536.075000", "161536.078000", "161536.080000", "161536.083000", "161536.085000", "161536.087000", "161536.090000", "161536.092000", "161536.095000", "161536.097000", "161536.100000", "161536.102000", "161616.039000", "161616.042000", "161616.045000", "161616.047000", "161616.050000", "161616.052000", "161616.055000", "161616.057000", "161616.060000", "161616.062000", "161616.065000", "161616.067000", "161616.070000", "161616.072000", "161616.075000", "161616.077000", "161616.080000", "161616.082000", "161616.085000", "161616.087000", "161616.090000", "161616.092000", "161616.095000", "161616.097000", "161616.100000", "161616.102000", "161616.105000", "161656.030000", "161656.032000", "161656.035000", "161656.038000", "161656.040000", "161656.043000", "161656.045000", "161656.048000", "161656.050000", "161656.053000", "161656.055000", "161656.058000", "161656.060000", "161656.062000", "161656.065000", "161656.067000", "161656.070000", "161656.073000", "161656.075000", "161656.078000", "161656.080000", "161656.083000", "161656.085000", "161656.088000", "161656.090000", "161656.093000", "161656.095000", "161736.060000", "161736.063000", "161736.066000", "161736.068000", "161736.071000", "161736.073000", "161736.076000", "161736.078000", "161736.081000", "161736.083000", "161736.086000", "161736.088000", "161736.091000", "161736.093000", "161736.096000", "161736.098000", "161736.101000", "161736.103000", "161736.106000", "161736.108000", "161736.111000", "161736.113000", "161736.116000", "161736.118000", "161736.121000", "161736.123000", "161736.126000", "161816.041000", "161816.044000", "161816.047000", "161816.049000", "161816.052000", "161816.054000", "161816.057000", "161816.060000", "161816.062000", "161816.065000", "161816.067000", "161816.070000", "161816.073000", "161816.075000", "161816.078000", "161816.081000", "161816.084000", "161816.087000", "161816.089000", "161816.092000", "161816.094000", "161816.097000", "161816.099000", "161816.102000", "161816.105000", "161816.107000", "161816.110000", "161856.460000", "161856.463000", "161856.465000", "161856.468000", "161856.470000", "161856.473000", "161856.475000", "161856.478000", "161856.480000", "161856.483000", "161856.485000", "161856.488000", "161856.490000", "161856.493000", "161856.496000", "161856.498000", "161856.500000", "161856.503000", "161856.506000", "161856.508000", "161856.511000", "161856.513000", "161856.516000", "161856.518000", "161856.521000", "161856.524000", "161856.526000", "161936.040000", "161936.043000", "161936.046000", "161936.049000", "161936.051000", "161936.054000", "161936.057000", "161936.059000", "161936.062000", "161936.064000", "161936.067000", "161936.069000", "161936.072000", "161936.075000", "161936.077000", "161936.080000", "161936.083000", "161936.085000", "161936.088000", "161936.090000", "161936.093000", "161936.095000", "161936.098000", "161936.100000", "161936.103000", "161936.105000", "162001.086000", "162001.089000", "162001.091000", "162001.094000", "162001.097000", "162001.099000", "162001.102000", "162001.104000", "162001.107000", "162001.110000", "162001.113000", "162001.115000", "162001.118000", "162001.121000", "162001.123000", "162001.126000", "162001.128000"],
