{
  "AcquisitionMatrixPE": 104,
  "AcquisitionNumber": 1,
  "AcquisitionTime": "15:44:47.295000",
  "BandwidthPerPixelPhaseEncode": 17.17,
  "BaseResolution": 104,
  "BodyPartExamined": "BRAIN",
  "CoilCombinationMethod": "Sum of Squares",
  "ConsistencyInfo": "N4_VE11C_LATEST_20160120",
  "ConversionSoftware": "dcm2niix",
  "ConversionSoftwareVersion": "v1.0.20211006",
  "DerivedVendorReportedEchoSpacing": 0.000560011,
  "DeviceSerialNumber": "167006",
  "DwellTime": 2.1e-06,
  "EchoTime": 0.037,
  "EchoTrainLength": 104,
  "EffectiveEchoSpacing": 0.000560011,
  "FlipAngle": 52,
  "HeudiconvVersion": "0.11.3.post9+gc939bf8",
  "ImageComments": "Unaliased MB4/PE3/LB",
  "ImageOrientationPatientDICOM": [0.998698, -0.0509727, 0.00185296, 0.0490192, 0.949117, -0.311086],
  "ImageOrientationText": "Tra>Cor(-18.1)>Sag(-0.8)",
  "ImageType": [
    "ORIGINAL",
    "PRIMARY",
    "M",
    "MB",
    "ND",
    "MOSAIC"
],
  "ImagingFrequency": 123.259,
  "InPlanePhaseEncodingDirectionDICOM": "COL",
  "InstitutionAddress": "Chemin Queen-Mary 4565,Montreal,District,CA,H3W 1W5",
  "InstitutionName": "IUGM",
  "InstitutionalDepartmentName": "Department",
  "MRAcquisitionType": "2D",
  "MagneticFieldStrength": 3,
  "Manufacturer": "Siemens",
  "ManufacturersModelName": "Prisma_fit",
  "MatrixCoilMode": "SENSE",
  "Modality": "MR",
  "MultibandAccelerationFactor": 4,
  "PartialFourier": 1,
  "PatientPosition": "HFS",
  "PercentPhaseFOV": 100,
  "PercentSampling": 100,
  "PhaseEncodingDirection": "j",
  "PhaseEncodingSteps": 104,
  "PhaseResolution": 1,
  "PixelBandwidth": 2290,
  "ProcedureStepDescription": "games^mariostars",
  "ProtocolName": "func_task-mariostars_run-01",
  "PulseSequenceDetails": "%CustomerSeq%\\cmrr_mbep2d_bold",
  "ReceiveCoilActiveElements": "HC1-7;NC1,2",
  "ReceiveCoilName": "HeadNeck_64",
  "ReconMatrixPE": 104,
  "RepetitionTime": 1.49,
  "SAR": 0.0420938,
  "ScanOptions": "FS",
  "ScanningSequence": "EP",
  "SequenceName": "epfid2d1_104",
  "SequenceVariant": "SK\\SS",
  "SeriesDescription": "func_task-mariostars_run-01",
  "SeriesNumber": 10,
  "ShimSetting": [625, -7255, -8814, 586, 8, -202, -62, 5],
  "SliceThickness": 2,
  "SliceTiming": [0, 0.7825, 0.0975, 0.88, 0.195, 0.98, 0.2925, 1.0775, 0.3925, 1.175, 0.49, 1.2725, 0.5875, 1.37, 0.685, 0, 0.7825, 0.0975, 0.88, 0.195, 0.98, 0.2925, 1.0775, 0.3925, 1.175, 0.49, 1.2725, 0.5875, 1.37, 0.685, 0, 0.7825, 0.0975, 0.88, 0.195, 0.98, 0.2925, 1.0775, 0.3925, 1.175, 0.49, 1.2725, 0.5875, 1.37, 0.685, 0, 0.7825, 0.0975, 0.88, 0.195, 0.98, 0.2925, 1.0775, 0.3925, 1.175, 0.49, 1.2725, 0.5875, 1.37, 0.685],
  "SoftwareVersions": "syngo MR E11",
  "SpacingBetweenSlices": 2,
  "StationName": "MRC35049",
  "TaskName": "mariostars",
  "TotalReadoutTime": 0.0576811,
  "TxRefAmp": 247.924,
  "WipMemBlock": "b357b90e-418a-4380-bbab-b5f748074de4||Sequence: R016 ve11c/master r/e634e98; Dec 19 2017 11:00:25 by eja",
  "dcmmeta_affine": [
    [-1.99739670753479, 0.09803847223520279, -0.028196409344673157, 102.36354064941406],
    [0.10194530338048935, 1.8982335329055786, -0.621543824672699, -71.72744750976562],
    [0.0037059185560792685, 0.6221720576286316, 1.9007599353790283, -61.41859436035156],
    [0.0, 0.0, 0.0, 1.0]
],
  "dcmmeta_reorient_transform": [
    [0.0, -1.0, 0.0, 103.0],
    [1.0, 0.0, 0.0, 0.0],
    [0.0, 0.0, 1.0, 0.0],
    [0.0, 0.0, 0.0, 1.0]
],
  "dcmmeta_shape": [104, 104, 60, 450],
  "dcmmeta_slice_dim": 2,
  "dcmmeta_version": 0.6,
  "global": {
    "const": {
      "AcquisitionMatrix": [104, 0, 0, 104],
      "AngioFlag": "N",
      "BitsAllocated": 16,
      "BitsStored": 16,
      "BodyPartExamined": "BRAIN",
      "Columns": 832,
      "EchoNumbers": 1,
      "EchoTime": 37.0,
      "EchoTrainLength": 104,
      "FlipAngle": 52.0,
      "HighBit": 15,
      "ImageOrientationPatient": [0.9986983304731, -0.0509726520032, 0.00185295925669, 0.04901923439526, 0.94911675066151, -0.3110860142678],
      "ImagePositionPatient": [-875.19988982688, -777.63950939221, 227.78679030381],
      "ImageType": [
        "ORIGINAL",
        "PRIMARY",
        "M",
        "MB",
        "ND",
        "MOSAIC"
],
      "ImagedNucleus": "1H",
      "ImagingFrequency": 123.258797,
      "InPlanePhaseEncodingDirection": "COL",
      "MRAcquisitionType": "2D",
      "MagneticFieldStrength": 3.0,
      "Manufacturer": "SIEMENS",
      "ManufacturerModelName": "Prisma_fit",
      "Modality": "MR",
      "NumberOfAverages": 1.0,
      "NumberOfPhaseEncodingSteps": 104,
      "PercentPhaseFieldOfView": 100.0,
      "PercentSampling": 100.0,
      "PerformedProcedureStepStartTime": "150626.885000",
      "PhotometricInterpretation": "MONOCHROME2",
      "PixelBandwidth": 2290.0,
      "PixelRepresentation": 0,
      "PixelSpacing": [2.0, 2.0],
      "ProtocolName": "func_task-mariostars_run-01",
      "RepetitionTime": 1490.0,
      "Rows": 832,
      "SAR": 0.0420938259106,
      "SamplesPerPixel": 1,
      "ScanOptions": "FS",
      "ScanningSequence": "EP",
      "SequenceName": "epfid2d1_104",
      "SequenceVariant": [
        "SK",
        "SS"
],
      "SeriesDescription": "func_task-mariostars_run-01",
      "SeriesNumber": 10,
      "SeriesTime": "154607.729000",
      "SliceLocation": -37.523266083713,
      "SliceThickness": 2.0,
      "SmallestImagePixelValue": 0,
      "SoftwareVersions": "syngo MR E11",
      "SpacingBetweenSlices": 2.0000000593674,
      "SpecificCharacterSet": "ISO_IR 100",
      "StudyID": "1",
      "StudyTime": "150626.814000",
      "TransmitCoilName": "Body",
      "VariableFlipAngleFlag": "N",
      "WindowCenterWidthExplanation": "Algo1",
      "dBdt": 0.0},
    "slices": {}
  },
  "time": {
    "samples": {
      "AcquisitionNumber": [1, 2, 3, 4, 5, 6, 7, 8, 9, 10, 11, 12, 13, 14, 15, 16, 17, 18, 19, 20, 21, 22, 23, 24, 25, 26, 27, 28, 29, 30, 31, 32, 33, 34, 35, 36, 37, 38, 39, 40, 41, 42, 43, 44, 45, 46, 47, 48, 49, 50, 51, 52, 53, 54, 55, 56, 57, 58, 59, 60, 61, 62, 63, 64, 65, 66, 67, 68, 69, 70, 71, 72, 73, 74, 75, 76, 77, 78, 79, 80, 81, 82, 83, 84, 85, 86, 87, 88, 89, 90, 91, 92, 93, 94, 95, 96, 97, 98, 99, 100, 101, 102, 103, 104, 105, 106, 107, 108, 109, 110, 111, 112, 113, 114, 115, 116, 117, 118, 119, 120, 121, 122, 123, 124, 125, 126, 127, 128, 129, 130, 131, 132, 133, 134, 135, 136, 137, 138, 139, 140, 141, 142, 143, 144, 145, 146, 147, 148, 149, 150, 151, 152, 153, 154, 155, 156, 157, 158, 159, 160, 161, 162, 163, 164, 165, 166, 167, 168, 169, 170, 171, 172, 173, 174, 175, 176, 177, 178, 179, 180, 181, 182, 183, 184, 185, 186, 187, 188, 189, 190, 191, 192, 193, 194, 195, 196, 197, 198, 199, 200, 201, 202, 203, 204, 205, 206, 207, 208, 209, 210, 211, 212, 213, 214, 215, 216, 217, 218, 219, 220, 221, 222, 223, 224, 225, 226, 227, 228, 229, 230, 231, 232, 233, 234, 235, 236, 237, 238, 239, 240, 241, 242, 243, 244, 245, 246, 247, 248, 249, 250, 251, 252, 253, 254, 255, 256, 257, 258, 259, 260, 261, 262, 263, 264, 265, 266, 267, 268, 269, 270, 271, 272, 273, 274, 275, 276, 277, 278, 279, 280, 281, 282, 283, 284, 285, 286, 287, 288, 289, 290, 291, 292, 293, 294, 295, 296, 297, 298, 299, 300, 301, 302, 303, 304, 305, 306, 307, 308, 309, 310, 311, 312, 313, 314, 315, 316, 317, 318, 319, 320, 321, 322, 323, 324, 325, 326, 327, 328, 329, 330, 331, 332, 333, 334, 335, 336, 337, 338, 339, 340, 341, 342, 343, 344, 345, 346, 347, 348, 349, 350, 351, 352, 353, 354, 355, 356, 357, 358, 359, 360, 361, 362, 363, 364, 365, 366, 367, 368, 369, 370, 371, 372, 373, 374, 375, 376, 377, 378, 379, 380, 381, 382, 383, 384, 385, 386, 387, 388, 389, 390, 391, 392, 393, 394, 395, 396, 397, 398, 399, 400, 401, 402, 403, 404, 405, 406, 407, 408, 409, 410, 411, 412, 413, 414, 415, 416, 417, 418, 419, 420, 421, 422, 423, 424, 425, 426, 427, 428, 429, 430, 431, 432, 433, 434, 435, 436, 437, 438, 439, 440, 441, 442, 443, 444, 445, 446, 447, 448, 449, 450],
      "AcquisitionTime": ["154447.295000", "154448.785000", "154450.275000", "154451.765000", "154453.255000", "154454.745000", "154456.235000", "154457.725000", "154459.215000", "154500.705000", "154502.195000", "154503.685000", "154505.175000", "154506.665000", "154508.155000", "154509.645000", "154511.135000", "154512.625000", "154514.115000", "154515.605000", "154517.095000", "154518.585000", "154520.075000", "154521.565000", "154523.055000", "154524.545000", "154526.035000", "154527.525000", "154529.015000", "154530.505000", "154531.995000", "154533.485000", "154534.975000", "154536.465000", "154537.955000", "154539.445000", "154540.935000", "154542.425000", "154543.915000", "154545.405000", "154546.895000", "154548.385000", "154549.875000", "154551.365000", "154552.855000", "154554.345000", "154555.835000", "154557.325000", "154558.815000", "154600.305000", "154601.795000", "154603.285000", "154604.775000", "154606.265000", "154607.755000", "154609.245000", "154610.735000", "154612.225000", "154613.715000", "154615.205000", "154616.695000", "154618.185000", "154619.675000", "154621.165000", "154622.655000", "154624.145000", "154625.635000", "154627.125000", "154628.615000", "154630.105000", "154631.595000", "154633.085000", "154634.575000", "154636.065000", "154637.555000", "154639.045000", "154640.535000", "154642.025000", "154643.515000", "154645.005000", "154646.495000", "154647.985000", "154649.475000", "154650.965000", "154652.455000", "154653.945000", "154655.435000", "154656.925000", "154658.415000", "154659.905000", "154701.395000", "154702.885000", "154704.375000", "154705.865000", "154707.355000", "154708.845000", "154710.335000", "154711.825000", "154713.315000", "154714.805000", "154716.295000", "154717.785000", "154719.275000", "154720.765000", "154722.255000", "154723.745000", "154725.235000", "154726.725000", "154728.215000", "154729.705000", "154731.195000", "154732.685000", "154734.175000", "154735.665000", "154737.155000", "154738.645000", "154740.135000", "154741.625000", "154743.115000", "154744.605000", "154746.095000", "154747.585000", "154749.075000", "154750.565000", "154752.055000", "154753.545000", "154755.035000", "154756.525000", "154758.015000", "154759.505000", "154800.995000", "154802.485000", "154803.975000", "154805.465000", "154806.955000", "154808.445000", "154809.935000", "154811.425000", "154812.915000", "154814.405000", "154815.895000", "154817.385000", "154818.875000", "154820.365000", "154821.855000", "154823.345000", "154824.835000", "154826.325000", "154827.815000", "154829.305000", "154830.795000", "154832.285000", "154833.775000", "154835.265000", "154836.755000", "154838.245000", "154839.735000", "154841.225000", "154842.715000", "154844.205000", "154845.695000", "154847.185000", "154848.675000", "154850.165000", "154851.655000", "154853.145000", "154854.635000", "154856.125000", "154857.615000", "154859.105000", "154900.595000", "154902.085000", "154903.575000", "154905.065000", "154906.555000", "154908.045000", "154909.535000", "154911.025000", "154912.515000", "154914.005000", "154915.495000", "154916.985000", "154918.475000", "154919.965000", "154921.455000", "154922.945000", "154924.435000", "154925.925000", "154927.415000", "154928.905000", "154930.395000", "154931.885000", "154933.375000", "154934.865000", "154936.355000", "154937.845000", "154939.335000", "154940.825000", "154942.315000", "154943.805000", "154945.295000", "154946.785000", "154948.275000", "154949.765000", "154951.255000", "154952.745000", "154954.235000", "154955.725000", "154957.215000", "154958.705000", "155000.195000", "155001.685000", "155003.175000", "155004.665000", "155006.155000", "155007.645000", "155009.135000", "155010.625000", "155012.115000", "155013.605000", "155015.095000", "155016.585000", "155018.075000", "155019.565000", "155021.055000", "155022.545000", "155024.035000", "155025.525000", "155027.015000", "155028.505000", "155029.995000", "155031.485000", "155032.975000", "155034.465000", "155035.955000", "155037.445000", "155038.935000", "155040.425000", "155041.915000", "155043.405000", "155044.895000", "155046.385000", "155047.875000", "155049.365000", "155050.855000", "155052.345000", "155053.835000", "155055.325000", "155056.815000", "155058.305000", "155059.795000", "155101.285000", "155102.775000", "155104.265000", "155105.755000", "155107.245000", "155108.735000", "155110.225000", "155111.715000", "155113.205000", "155114.695000", "155116.185000", "155117.675000", "155119.165000", "155120.655000", "155122.145000", "155123.635000", "155125.125000", "155126.615000", "155128.105000", "155129.595000", "155131.085000", "155132.575000", "155134.065000", "155135.555000", "155137.045000", "155138.535000", "155140.025000", "155141.515000", "155143.005000", "155144.495000", "155145.985000", "155147.475000", "155148.965000", "155150.455000", "155151.945000", "155153.435000", "155154.925000", "155156.415000", "155157.905000", "155159.395000", "155200.885000", "155202.375000", "155203.865000", "155205.355000", "155206.845000", "155208.335000", "155209.825000", "155211.315000", "155212.805000", "155214.295000", "155215.785000", "155217.275000", "155218.765000", "155220.255000", "155221.745000", "155223.235000", "155224.725000", "155226.215000", "155227.705000", "155229.195000", "155230.685000", "155232.175000", "155233.665000", "155235.155000", "155236.645000", "155238.135000", "155239.625000", "155241.115000", "155242.605000", "155244.095000", "155245.585000", "155247.075000", "155248.565000", "155250.055000", "155251.545000", "155253.035000", "155254.525000", "155256.015000", "155257.505000", "155258.995000", "155300.485000", "155301.975000", "155303.465000", "155304.955000", "155306.445000", "155307.935000", "155309.425000", "155310.915000", "155312.405000", "155313.895000", "155315.385000", "155316.875000", "155318.365000", "155319.855000", "155321.345000", "155322.835000", "155324.325000", "155325.815000", "155327.305000", "155328.795000", "155330.285000", "155331.775000", "155333.265000", "155334.755000", "155336.245000", "155337.735000", "155339.225000", "155340.715000", "155342.205000", "155343.695000", "155345.185000", "155346.675000", "155348.165000", "155349.655000", "155351.145000", "155352.635000", "155354.125000", "155355.615000", "155357.105000", "155358.595000", "155400.085000", "155401.575000", "155403.065000", "155404.555000", "155406.045000", "155407.535000", "155409.025000", "155410.515000", "155412.005000", "155413.495000", "155414.985000", "155416.475000", "155417.965000", "155419.455000", "155420.945000", "155422.435000", "155423.925000", "155425.415000", "155426.905000", "155428.395000", "155429.885000", "155431.375000", "155432.865000", "155434.355000", "155435.845000", "155437.335000", "155438.825000", "155440.315000", "155441.805000", "155443.295000", "155444.785000", "155446.275000", "155447.765000", "155449.255000", "155450.745000", "155452.235000", "155453.725000", "155455.215000", "155456.705000", "155458.195000", "155459.685000", "155501.175000", "155502.665000", "155504.155000", "155505.645000", "155507.135000", "155508.625000", "155510.115000", "155511.605000", "155513.095000", "155514.585000", "155516.075000", "155517.565000", "155519.055000", "155520.545000", "155522.035000", "155523.525000", "155525.015000", "155526.505000", "155527.995000", "155529.485000", "155530.975000", "155532.465000", "155533.955000", "155535.445000", "155536.935000", "155538.425000", "155539.915000", "155541.405000", "155542.895000", "155544.385000", "155545.875000", "155547.365000", "155548.855000", "155550.345000", "155551.835000", "155553.325000", "155554.815000", "155556.305000"],
      "ContentTime": ["154607.732000", "154607.736000", "154607.739000", "154607.743000", "154607.746000", "154607.749000", "154607.753000", "154607.756000", "154607.759000", "154607.762000", "154607.765000", "154607.769000", "154607.772000", "154607.775000", "154607.779000", "154607.782000", "154607.785000", "154607.788000", "154607.792000", "154607.795000", "154607.798000", "154607.801000", "154607.805000", "154607.808000", "154607.811000", "154647.688000", "154647.694000", "154647.697000", "154647.701000", "154647.705000", "154647.709000", "154647.713000", "154647.717000", "154647.721000", "154647.725000", "154647.728000", "154647.732000", "154647.736000", "154647.740000", "154647.743000", "154647.747000", "154647.751000", "154647.755000", "154647.758000", "154647.762000", "154647.765000", "154647.768000", "154647.777000", "154647.781000", "154647.784000", "154647.787000", "154647.791000", "154647.795000", "154647.799000", "154647.803000", "154647.807000", "154647.811000", "154647.814000", "154647.818000", "154647.822000", "154647.826000", "154647.830000", "154647.834000", "154647.838000", "154647.841000", "154707.688000", "154707.692000", "154707.695000", "154707.698000", "154707.702000", "154707.705000", "154707.719000", "154707.722000", "154707.726000", "154707.729000", "154707.732000", "154707.735000", "154707.739000", "154707.742000", "154707.745000", "154707.749000", "154707.752000", "154707.755000", "154707.758000", "154707.762000", "154727.688000", "154727.692000", "154727.695000", "154727.698000", "154727.702000", "154727.705000", "154727.708000", "154727.711000", "154727.715000", "154727.718000", "154727.721000", "154727.724000", "154727.728000", "154727.731000", "154727.734000", "154727.737000", "154727.741000", "154727.744000", "154727.747000", "154727.750000", "154807.688000", "154807.692000", "154807.696000", "154807.699000", "154807.702000", "154807.706000", "154807.709000", "154807.712000", "154807.716000", "154807.719000", "154807.722000", "154807.735000", "154807.738000", "154807.741000", "154807.745000", "154807.748000", "154807.751000", "154807.754000", "154807.758000", "154807.761000", "154807.764000", "154807.768000", "154807.771000", "154807.774000", "154807.778000", "154807.781000", "154807.784000", "154807.788000", "154807.791000", "154847.689000", "154847.693000", "154847.696000", "154847.699000", "154847.703000", "154847.706000", "154847.709000", "154847.712000", "154847.716000", "154847.719000", "154847.722000", "154847.725000", "154847.729000", "154847.732000", "154847.735000", "154847.739000", "154847.742000", "154847.745000", "154847.748000", "154847.752000", "154847.755000", "154847.758000", "154847.761000", "154847.765000", "154847.768000", "154847.807000", "154847.811000", "154927.688000", "154927.692000", "154927.695000", "154927.698000", "154927.702000", "154927.705000", "154927.708000", "154927.712000", "154927.724000", "154927.727000", "154927.730000", "154927.734000", "154927.737000", "154927.740000", "154927.744000", "154927.747000", "154927.750000", "154927.754000", "154927.757000", "154927.760000", "154927.763000", "154927.767000", "154927.770000", "154927.774000", "154927.778000", "154927.781000", "155007.688000", "155007.692000", "155007.695000", "155007.698000", "155007.702000", "155007.705000", "155007.708000", "155007.712000", "155007.715000", "155007.718000", "155007.722000", "155007.725000", "155007.728000", "155007.731000", "155007.735000", "155007.738000", "155007.741000", "155007.745000", "155007.748000", "155007.751000", "155007.754000", "155007.758000", "155007.761000", "155007.764000", "155007.768000", "155007.771000", "155007.774000", "155047.688000", "155047.692000", "155047.695000", "155047.698000", "155047.702000", "155047.705000", "155047.708000", "155047.712000", "155047.715000", "155047.718000", "155047.721000", "155047.725000", "155047.728000", "155047.731000", "155047.734000", "155047.738000", "155047.741000", "155047.744000", "155047.747000", "155047.751000", "155047.754000", "155047.757000", "155047.761000", "155047.764000", "155047.767000", "155047.770000", "155047.774000", "155127.688000", "155127.692000", "155127.695000", "155127.698000", "155127.701000", "155127.705000", "155127.708000", "155127.711000", "155127.715000", "155127.718000", "155127.721000", "155127.724000", "155127.728000", "155127.731000", "155127.734000", "155127.738000", "155127.741000", "155127.744000", "155127.748000", "155127.751000", "155127.754000", "155127.758000", "155127.761000", "155127.764000", "155127.767000", "155127.771000", "155127.774000", "155207.688000", "155207.692000", "155207.695000", "155207.698000", "155207.702000", "155207.705000", "155207.708000", "155207.712000", "155207.715000", "155207.718000", "155207.721000", "155207.725000", "155207.728000", "155207.731000", "155207.735000", "155207.738000", "155207.741000", "155207.744000", "155207.748000", "155207.751000", "155207.754000", "155207.757000", "155207.761000", "155207.764000", "155207.767000", "155207.819000", "155207.822000", "155247.688000", "155247.692000", "155247.695000", "155247.699000", "155247.702000", "155247.705000", "155247.708000", "155247.712000", "155247.715000", "155247.718000", "155247.722000", "155247.725000", "155247.728000", "155247.732000", "155247.735000", "155247.738000", "155247.742000", "155247.745000", "155247.748000", "155247.751000", "155247.755000", "155247.758000", "155247.761000", "155247.765000", "155247.768000", "155247.811000", "155247.814000", "155327.690000", "155327.694000", "155327.697000", "155327.700000", "155327.704000", "155327.707000", "155327.710000", "155327.714000", "155327.717000", "155327.720000", "155327.724000", "155327.727000", "155327.730000", "155327.734000", "155327.737000", "155327.740000", "155327.743000", "155327.747000", "155327.750000", "155327.753000", "155327.757000", "155327.760000", "155327.763000", "155327.766000", "155327.804000", "155327.807000", "155327.811000", "155407.688000", "155407.692000", "155407.695000", "155407.699000", "155407.702000", "155407.705000", "155407.709000", "155407.712000", "155407.715000", "155407.729000", "155407.732000", "155407.736000", "155407.739000", "155407.742000", "155407.746000", "155407.749000", "155407.752000", "155407.756000", "155407.759000", "155407.762000", "155407.815000", "155407.818000", "155407.821000", "155407.825000", "155407.828000", "155407.831000", "155447.688000", "155447.692000", "155447.695000", "155447.698000", "155447.702000", "155447.705000", "155447.708000", "155447.712000", "155447.715000", "155447.718000", "155447.721000", "155447.725000", "155447.728000", "155447.731000", "155447.734000", "155447.738000", "155447.741000", "155447.744000", "155447.748000", "155447.751000", "155447.754000", "155447.757000", "155447.761000", "155447.764000", "155447.767000", "155447.771000", "155447.774000", "155527.688000", "155527.692000", "155527.695000", "155527.698000", "155527.702000", "155527.705000", "155527.708000", "155527.711000", "155527.715000", "155527.718000", "155527.721000", "155527.724000", "155527.728000", "155527.731000", "155527.734000", "155527.738000", "155527.741000", "155527.744000", "155527.748000", "155527.751000", "155527.754000", "155527.757000", "155527.761000", "155527.764000", "155527.767000", "155527.771000", "155527.774000", "155558.676000", "155558.680000", "155558.683000", "155558.687000", "155558.690000", "155558.693000", "155558.696000", "155558.700000", "155558.703000", "155558.706000", "155558.710000", "155558.723000", "155558.726000", "155558.729000", "155558.755000", "155558.758000", "155558.761000", "155558.765000", "155558.768000", "155558.771000", "155558.775000"],
