{
  "AcquisitionMatrixPE": 104,
  "AcquisitionNumber": 1,
  "AcquisitionTime": "15:57:18.647500",
  "BandwidthPerPixelPhaseEncode": 17.17,
  "BaseResolution": 104,
  "BodyPartExamined": "BRAIN",
  "CoilCombinationMethod": "Sum of Squares",
  "ConsistencyInfo": "N4_VE11C_LATEST_20160120",
  "ConversionSoftware": "dcm2niix",
  "ConversionSoftwareVersion": "v1.0.20211006",
  "DerivedVendorReportedEchoSpacing": 0.000560011,
  "DeviceSerialNumber": "167006",
  "DwellTime": 2.1e-06,
  "EchoTime": 0.037,
  "EchoTrainLength": 104,
  "EffectiveEchoSpacing": 0.000560011,
  "FlipAngle": 52,
  "HeudiconvVersion": "0.11.3.post9+gc939bf8",
  "ImageComments": "Unaliased MB4/PE3/LB",
  "ImageOrientationPatientDICOM": [0.998698, -0.0509727, 0.00185296, 0.0490192, 0.949117, -0.311086],
  "ImageOrientationText": "Tra>Cor(-18.1)>Sag(-0.8)",
  "ImageType": [
    "ORIGINAL",
    "PRIMARY",
    "M",
    "MB",
    "ND",
    "MOSAIC"
],
  "ImagingFrequency": 123.259,
  "InPlanePhaseEncodingDirectionDICOM": "COL",
  "InstitutionAddress": "Chemin Queen-Mary 4565,Montreal,District,CA,H3W 1W5",
  "InstitutionName": "IUGM",
  "InstitutionalDepartmentName": "Department",
  "MRAcquisitionType": "2D",
  "MagneticFieldStrength": 3,
  "Manufacturer": "Siemens",
  "ManufacturersModelName": "Prisma_fit",
  "MatrixCoilMode": "SENSE",
  "Modality": "MR",
  "MultibandAccelerationFactor": 4,
  "PartialFourier": 1,
  "PatientPosition": "HFS",
  "PercentPhaseFOV": 100,
  "PercentSampling": 100,
  "PhaseEncodingDirection": "j",
  "PhaseEncodingSteps": 104,
  "PhaseResolution": 1,
  "PixelBandwidth": 2290,
  "ProcedureStepDescription": "games^mariostars",
  "ProtocolName": "func_task-mariostars_run-02",
  "PulseSequenceDetails": "%CustomerSeq%\\cmrr_mbep2d_bold",
  "ReceiveCoilActiveElements": "HC1-7;NC1,2",
  "ReceiveCoilName": "HeadNeck_64",
  "ReconMatrixPE": 104,
  "RepetitionTime": 1.49,
  "SAR": 0.0420938,
  "ScanOptions": "FS",
  "ScanningSequence": "EP",
  "SequenceName": "epfid2d1_104",
  "SequenceVariant": "SK\\SS",
  "SeriesDescription": "func_task-mariostars_run-02",
  "SeriesNumber": 13,
  "ShimSetting": [625, -7255, -8814, 586, 8, -202, -62, 5],
  "SliceThickness": 2,
  "SliceTiming": [0, 0.7825, 0.0975, 0.8825, 0.195, 0.98, 0.2925, 1.0775, 0.3925, 1.175, 0.49, 1.2725, 0.5875, 1.3725, 0.685, 0, 0.7825, 0.0975, 0.8825, 0.195, 0.98, 0.2925, 1.0775, 0.3925, 1.175, 0.49, 1.2725, 0.5875, 1.3725, 0.685, 0, 0.7825, 0.0975, 0.8825, 0.195, 0.98, 0.2925, 1.0775, 0.3925, 1.175, 0.49, 1.2725, 0.5875, 1.3725, 0.685, 0, 0.7825, 0.0975, 0.8825, 0.195, 0.98, 0.2925, 1.0775, 0.3925, 1.175, 0.49, 1.2725, 0.5875, 1.3725, 0.685],
  "SoftwareVersions": "syngo MR E11",
  "SpacingBetweenSlices": 2,
  "StationName": "MRC35049",
  "TaskName": "mariostars",
  "TotalReadoutTime": 0.0576811,
  "TxRefAmp": 247.924,
  "WipMemBlock": "7cc7b299-f22b-4177-8391-904e27c3dee0||Sequence: R016 ve11c/master r/e634e98; Dec 19 2017 11:00:25 by eja",
  "dcmmeta_affine": [
    [-1.99739670753479, 0.09803847223520279, -0.028196409344673157, 102.36354064941406],
    [0.10194530338048935, 1.8982335329055786, -0.621543824672699, -71.72744750976562],
    [0.0037059185560792685, 0.6221720576286316, 1.9007599353790283, -61.41859436035156],
    [0.0, 0.0, 0.0, 1.0]
],
  "dcmmeta_reorient_transform": [
    [0.0, -1.0, 0.0, 103.0],
    [1.0, 0.0, 0.0, 0.0],
    [0.0, 0.0, 1.0, 0.0],
    [0.0, 0.0, 0.0, 1.0]
],
  "dcmmeta_shape": [104, 104, 60, 420],
  "dcmmeta_slice_dim": 2,
  "dcmmeta_version": 0.6,
  "global": {
    "const": {
      "AcquisitionMatrix": [104, 0, 0, 104],
      "AngioFlag": "N",
      "BitsAllocated": 16,
      "BitsStored": 16,
      "BodyPartExamined": "BRAIN",
      "Columns": 832,
      "EchoNumbers": 1,
      "EchoTime": 37.0,
      "EchoTrainLength": 104,
      "FlipAngle": 52.0,
      "HighBit": 15,
      "ImageOrientationPatient": [0.9986983304731, -0.0509726520032, 0.00185295925669, 0.04901923439526, 0.94911675066151, -0.3110860142678],
      "ImagePositionPatient": [-875.19988982688, -777.63950939221, 227.78679030381],
      "ImageType": [
        "ORIGINAL",
        "PRIMARY",
        "M",
        "MB",
        "ND",
        "MOSAIC"
],
      "ImagedNucleus": "1H",
      "ImagingFrequency": 123.258806,
      "InPlanePhaseEncodingDirection": "COL",
      "MRAcquisitionType": "2D",
      "MagneticFieldStrength": 3.0,
      "Manufacturer": "SIEMENS",
      "ManufacturerModelName": "Prisma_fit",
      "Modality": "MR",
      "NumberOfAverages": 1.0,
      "NumberOfPhaseEncodingSteps": 104,
      "PercentPhaseFieldOfView": 100.0,
      "PercentSampling": 100.0,
      "PerformedProcedureStepStartTime": "150626.885000",
      "PhotometricInterpretation": "MONOCHROME2",
      "PixelBandwidth": 2290.0,
      "PixelRepresentation": 0,
      "PixelSpacing": [2.0, 2.0],
      "ProtocolName": "func_task-mariostars_run-02",
      "RepetitionTime": 1490.0,
      "Rows": 832,
      "SAR": 0.0420938259106,
      "SamplesPerPixel": 1,
      "ScanOptions": "FS",
      "ScanningSequence": "EP",
      "SequenceName": "epfid2d1_104",
      "SequenceVariant": [
        "SK",
        "SS"
],
      "SeriesDescription": "func_task-mariostars_run-02",
      "SeriesNumber": 13,
      "SeriesTime": "155815.232000",
      "SliceLocation": -37.523266083713,
      "SliceThickness": 2.0,
      "SmallestImagePixelValue": 0,
      "SoftwareVersions": "syngo MR E11",
      "SpacingBetweenSlices": 2.0000000593674,
      "SpecificCharacterSet": "ISO_IR 100",
      "StudyID": "1",
      "StudyTime": "150626.814000",
      "TransmitCoilName": "Body",
      "VariableFlipAngleFlag": "N",
      "WindowCenterWidthExplanation": "Algo1",
      "dBdt": 0.0},
    "slices": {}
  },
  "time": {
    "samples": {
      "AcquisitionNumber": [1, 2, 3, 4, 5, 6, 7, 8, 9, 10, 11, 12, 13, 14, 15, 16, 17, 18, 19, 20, 21, 22, 23, 24, 25, 26, 27, 28, 29, 30, 31, 32, 33, 34, 35, 36, 37, 38, 39, 40, 41, 42, 43, 44, 45, 46, 47, 48, 49, 50, 51, 52, 53, 54, 55, 56, 57, 58, 59, 60, 61, 62, 63, 64, 65, 66, 67, 68, 69, 70, 71, 72, 73, 74, 75, 76, 77, 78, 79, 80, 81, 82, 83, 84, 85, 86, 87, 88, 89, 90, 91, 92, 93, 94, 95, 96, 97, 98, 99, 100, 101, 102, 103, 104, 105, 106, 107, 108, 109, 110, 111, 112, 113, 114, 115, 116, 117, 118, 119, 120, 121, 122, 123, 124, 125, 126, 127, 128, 129, 130, 131, 132, 133, 134, 135, 136, 137, 138, 139, 140, 141, 142, 143, 144, 145, 146, 147, 148, 149, 150, 151, 152, 153, 154, 155, 156, 157, 158, 159, 160, 161, 162, 163, 164, 165, 166, 167, 168, 169, 170, 171, 172, 173, 174, 175, 176, 177, 178, 179, 180, 181, 182, 183, 184, 185, 186, 187, 188, 189, 190, 191, 192, 193, 194, 195, 196, 197, 198, 199, 200, 201, 202, 203, 204, 205, 206, 207, 208, 209, 210, 211, 212, 213, 214, 215, 216, 217, 218, 219, 220, 221, 222, 223, 224, 225, 226, 227, 228, 229, 230, 231, 232, 233, 234, 235, 236, 237, 238, 239, 240, 241, 242, 243, 244, 245, 246, 247, 248, 249, 250, 251, 252, 253, 254, 255, 256, 257, 258, 259, 260, 261, 262, 263, 264, 265, 266, 267, 268, 269, 270, 271, 272, 273, 274, 275, 276, 277, 278, 279, 280, 281, 282, 283, 284, 285, 286, 287, 288, 289, 290, 291, 292, 293, 294, 295, 296, 297, 298, 299, 300, 301, 302, 303, 304, 305, 306, 307, 308, 309, 310, 311, 312, 313, 314, 315, 316, 317, 318, 319, 320, 321, 322, 323, 324, 325, 326, 327, 328, 329, 330, 331, 332, 333, 334, 335, 336, 337, 338, 339, 340, 341, 342, 343, 344, 345, 346, 347, 348, 349, 350, 351, 352, 353, 354, 355, 356, 357, 358, 359, 360, 361, 362, 363, 364, 365, 366, 367, 368, 369, 370, 371, 372, 373, 374, 375, 376, 377, 378, 379, 380, 381, 382, 383, 384, 385, 386, 387, 388, 389, 390, 391, 392, 393, 394, 395, 396, 397, 398, 399, 400, 401, 402, 403, 404, 405, 406, 407, 408, 409, 410, 411, 412, 413, 414, 415, 416, 417, 418, 419, 420],
      "AcquisitionTime": ["155718.647500", "155720.137500", "155721.627500", "155723.117500", "155724.607500", "155726.097500", "155727.587500", "155729.077500", "155730.567500", "155732.057500", "155733.547500", "155735.037500", "155736.527500", "155738.017500", "155739.507500", "155740.997500", "155742.487500", "155743.977500", "155745.467500", "155746.957500", "155748.447500", "155749.937500", "155751.427500", "155752.917500", "155754.407500", "155755.897500", "155757.387500", "155758.877500", "155800.367500", "155801.857500", "155803.347500", "155804.837500", "155806.327500", "155807.817500", "155809.307500", "155810.797500", "155812.287500", "155813.777500", "155815.267500", "155816.757500", "155818.247500", "155819.737500", "155821.227500", "155822.717500", "155824.207500", "155825.697500", "155827.187500", "155828.677500", "155830.167500", "155831.657500", "155833.147500", "155834.637500", "155836.127500", "155837.617500", "155839.107500", "155840.597500", "155842.087500", "155843.577500", "155845.067500", "155846.557500", "155848.047500", "155849.537500", "155851.027500", "155852.517500", "155854.007500", "155855.497500", "155856.987500", "155858.477500", "155859.967500", "155901.457500", "155902.947500", "155904.437500", "155905.927500", "155907.417500", "155908.907500", "155910.397500", "155911.887500", "155913.377500", "155914.867500", "155916.357500", "155917.847500", "155919.337500", "155920.827500", "155922.317500", "155923.807500", "155925.297500", "155926.787500", "155928.277500", "155929.767500", "155931.257500", "155932.747500", "155934.237500", "155935.727500", "155937.217500", "155938.707500", "155940.197500", "155941.687500", "155943.177500", "155944.667500", "155946.157500", "155947.647500", "155949.137500", "155950.627500", "155952.117500", "155953.607500", "155955.097500", "155956.587500", "155958.077500", "155959.567500", "160001.057500", "160002.547500", "160004.037500", "160005.527500", "160007.017500", "160008.507500", "160009.997500", "160011.487500", "160012.977500", "160014.467500", "160015.957500", "160017.447500", "160018.937500", "160020.427500", "160021.917500", "160023.407500", "160024.897500", "160026.387500", "160027.877500", "160029.367500", "160030.857500", "160032.347500", "160033.837500", "160035.327500", "160036.817500", "160038.307500", "160039.797500", "160041.287500", "160042.777500", "160044.267500", "160045.757500", "160047.247500", "160048.737500", "160050.227500", "160051.717500", "160053.207500", "160054.697500", "160056.187500", "160057.677500", "160059.167500", "160100.657500", "160102.147500", "160103.637500", "160105.127500", "160106.617500", "160108.107500", "160109.597500", "160111.087500", "160112.577500", "160114.067500", "160115.557500", "160117.047500", "160118.537500", "160120.027500", "160121.517500", "160123.007500", "160124.497500", "160125.987500", "160127.477500", "160128.967500", "160130.457500", "160131.947500", "160133.437500", "160134.927500", "160136.417500", "160137.907500", "160139.397500", "160140.887500", "160142.377500", "160143.867500", "160145.357500", "160146.847500", "160148.337500", "160149.827500", "160151.317500", "160152.807500", "160154.297500", "160155.787500", "160157.277500", "160158.767500", "160200.257500", "160201.747500", "160203.237500", "160204.727500", "160206.217500", "160207.707500", "160209.197500", "160210.687500", "160212.177500", "160213.667500", "160215.157500", "160216.647500", "160218.137500", "160219.627500", "160221.117500", "160222.607500", "160224.097500", "160225.587500", "160227.077500", "160228.567500", "160230.057500", "160231.547500", "160233.037500", "160234.527500", "160236.017500", "160237.507500", "160238.997500", "160240.487500", "160241.977500", "160243.467500", "160244.957500", "160246.447500", "160247.937500", "160249.427500", "160250.917500", "160252.407500", "160253.897500", "160255.387500", "160256.877500", "160258.367500", "160259.857500", "160301.347500", "160302.837500", "160304.327500", "160305.817500", "160307.307500", "160308.797500", "160310.287500", "160311.777500", "160313.267500", "160314.757500", "160316.247500", "160317.737500", "160319.227500", "160320.717500", "160322.207500", "160323.697500", "160325.187500", "160326.677500", "160328.167500", "160329.657500", "160331.147500", "160332.637500", "160334.127500", "160335.617500", "160337.107500", "160338.597500", "160340.087500", "160341.577500", "160343.067500", "160344.557500", "160346.047500", "160347.537500", "160349.027500", "160350.517500", "160352.007500", "160353.497500", "160354.987500", "160356.477500", "160357.967500", "160359.457500", "160400.947500", "160402.437500", "160403.927500", "160405.417500", "160406.907500", "160408.397500", "160409.887500", "160411.377500", "160412.867500", "160414.357500", "160415.847500", "160417.337500", "160418.827500", "160420.317500", "160421.807500", "160423.297500", "160424.787500", "160426.277500", "160427.767500", "160429.257500", "160430.747500", "160432.237500", "160433.727500", "160435.217500", "160436.707500", "160438.197500", "160439.687500", "160441.177500", "160442.667500", "160444.157500", "160445.647500", "160447.137500", "160448.627500", "160450.117500", "160451.607500", "160453.097500", "160454.587500", "160456.077500", "160457.567500", "160459.057500", "160500.547500", "160502.037500", "160503.527500", "160505.017500", "160506.507500", "160507.997500", "160509.487500", "160510.977500", "160512.467500", "160513.957500", "160515.447500", "160516.937500", "160518.427500", "160519.917500", "160521.407500", "160522.897500", "160524.387500", "160525.877500", "160527.367500", "160528.857500", "160530.347500", "160531.837500", "160533.327500", "160534.817500", "160536.307500", "160537.797500", "160539.287500", "160540.777500", "160542.267500", "160543.757500", "160545.247500", "160546.737500", "160548.227500", "160549.717500", "160551.207500", "160552.697500", "160554.187500", "160555.677500", "160557.167500", "160558.657500", "160600.147500", "160601.637500", "160603.127500", "160604.617500", "160606.107500", "160607.597500", "160609.087500", "160610.577500", "160612.067500", "160613.557500", "160615.047500", "160616.537500", "160618.027500", "160619.517500", "160621.007500", "160622.497500", "160623.987500", "160625.477500", "160626.967500", "160628.457500", "160629.947500", "160631.437500", "160632.927500", "160634.417500", "160635.907500", "160637.397500", "160638.887500", "160640.377500", "160641.867500", "160643.357500", "160644.847500", "160646.337500", "160647.827500", "160649.317500", "160650.807500", "160652.297500", "160653.787500", "160655.277500", "160656.767500", "160658.257500", "160659.747500", "160701.237500", "160702.727500", "160704.217500", "160705.707500", "160707.197500", "160708.687500", "160710.177500", "160711.667500", "160713.157500", "160714.647500", "160716.137500", "160717.627500", "160719.117500", "160720.607500", "160722.097500", "160723.587500", "160725.077500", "160726.567500", "160728.057500", "160729.547500", "160731.037500", "160732.527500", "160734.017500", "160735.507500", "160736.997500", "160738.487500", "160739.977500", "160741.467500", "160742.957500"],
      "ContentTime": ["155815.235000", "155835.198000", "155835.202000", "155835.205000", "155835.208000", "155835.212000", "155835.215000", "155835.225000", "155835.228000", "155835.231000", "155835.235000", "155835.238000", "155835.241000", "155835.245000", "155835.248000", "155835.251000", "155835.255000", "155835.266000", "155835.269000", "155835.272000", "155835.275000", "155855.198000", "155855.202000", "155855.205000", "155855.208000", "155855.212000", "155855.215000", "155855.218000", "155855.222000", "155855.225000", "155855.228000", "155855.232000", "155855.235000", "155855.238000", "155855.241000", "155855.245000", "155855.248000", "155855.251000", "155855.255000", "155855.258000", "155855.261000", "155855.264000", "155915.198000", "155915.202000", "155915.205000", "155915.208000", "155915.212000", "155915.215000", "155915.218000", "155915.221000", "155915.224000", "155915.228000", "155915.231000", "155915.234000", "155915.238000", "155915.241000", "155915.244000", "155915.247000", "155915.251000", "155915.254000", "155915.257000", "155915.260000", "155935.199000", "155935.203000", "155935.206000", "155935.209000", "155935.212000", "155935.216000", "155935.219000", "155935.222000", "155935.225000", "155935.229000", "155935.232000", "155935.235000", "155935.239000", "155935.242000", "155935.245000", "155935.249000", "155935.252000", "155935.255000", "155935.259000", "155935.262000", "155955.199000", "155955.215000", "155955.218000", "155955.222000", "155955.225000", "155955.228000", "155955.231000", "155955.234000", "155955.238000", "155955.241000", "155955.244000", "155955.248000", "155955.251000", "155955.254000", "155955.257000", "155955.260000", "155955.264000", "155955.267000", "155955.270000", "155955.274000", "155955.277000", "160035.199000", "160035.203000", "160035.206000", "160035.209000", "160035.213000", "160035.216000", "160035.219000", "160035.223000", "160035.226000", "160035.229000", "160035.232000", "160035.236000", "160035.239000", "160035.242000", "160035.245000", "160035.249000", "160035.252000", "160035.255000", "160035.258000", "160035.262000", "160035.265000", "160035.268000", "160035.272000", "160035.275000", "160035.288000", "160035.291000", "160035.294000", "160035.298000", "160115.198000", "160115.202000", "160115.205000", "160115.208000", "160115.212000", "160115.215000", "160115.218000", "160115.221000", "160115.225000", "160115.228000", "160115.231000", "160115.235000", "160115.238000", "160115.241000", "160115.245000", "160115.248000", "160115.251000", "160115.254000", "160115.258000", "160115.261000", "160115.264000", "160115.268000", "160115.271000", "160115.274000", "160115.278000", "160115.281000", "160115.284000", "160155.199000", "160155.203000", "160155.206000", "160155.219000", "160155.222000", "160155.225000", "160155.228000", "160155.232000", "160155.235000", "160155.238000", "160155.242000", "160155.245000", "160155.249000", "160155.252000", "160155.255000", "160155.259000", "160155.262000", "160155.265000", "160155.268000", "160155.272000", "160155.275000", "160155.278000", "160155.282000", "160155.285000", "160155.288000", "160155.292000", "160155.295000", "160235.199000", "160235.203000", "160235.206000", "160235.209000", "160235.213000", "160235.216000", "160235.219000", "160235.223000", "160235.226000", "160235.229000", "160235.232000", "160235.236000", "160235.239000", "160235.242000", "160235.245000", "160235.249000", "160235.252000", "160235.256000", "160235.260000", "160235.263000", "160235.266000", "160235.270000", "160235.273000", "160235.276000", "160235.279000", "160235.283000", "160315.198000", "160315.202000", "160315.205000", "160315.208000", "160315.212000", "160315.215000", "160315.218000", "160315.222000", "160315.225000", "160315.228000", "160315.232000", "160315.235000", "160315.238000", "160315.242000", "160315.245000", "160315.248000", "160315.251000", "160315.255000", "160315.258000", "160315.261000", "160315.264000", "160315.268000", "160315.271000", "160315.275000", "160315.278000", "160315.281000", "160315.285000", "160355.198000", "160355.202000", "160355.205000", "160355.208000", "160355.212000", "160355.215000", "160355.218000", "160355.222000", "160355.225000", "160355.228000", "160355.232000", "160355.235000", "160355.238000", "160355.241000", "160355.245000", "160355.248000", "160355.251000", "160355.255000", "160355.258000", "160355.261000", "160355.264000", "160355.268000", "160355.271000", "160355.274000", "160355.278000", "160355.281000", "160355.285000", "160435.199000", "160435.210000", "160435.213000", "160435.216000", "160435.220000", "160435.223000", "160435.226000", "160435.230000", "160435.247000", "160435.250000", "160435.253000", "160435.257000", "160435.260000", "160435.263000", "160435.267000", "160435.270000", "160435.273000", "160435.277000", "160435.280000", "160435.283000", "160435.286000", "160435.290000", "160435.293000", "160435.296000", "160435.300000", "160435.303000", "160435.306000", "160515.199000", "160515.203000", "160515.206000", "160515.210000", "160515.213000", "160515.216000", "160515.219000", "160515.223000", "160515.226000", "160515.230000", "160515.233000", "160515.236000", "160515.240000", "160515.243000", "160515.246000", "160515.250000", "160515.253000", "160515.256000", "160515.260000", "160515.263000", "160515.266000", "160515.270000", "160515.273000", "160515.277000", "160515.280000", "160515.284000", "160515.287000", "160555.198000", "160555.202000", "160555.205000", "160555.208000", "160555.212000", "160555.215000", "160555.219000", "160555.222000", "160555.225000", "160555.229000", "160555.232000", "160555.235000", "160555.238000", "160555.242000", "160555.245000", "160555.248000", "160555.252000", "160555.255000", "160555.258000", "160555.261000", "160555.265000", "160555.268000", "160555.271000", "160555.275000", "160555.278000", "160555.281000", "160555.284000", "160635.199000", "160635.203000", "160635.206000", "160635.209000", "160635.213000", "160635.216000", "160635.219000", "160635.223000", "160635.226000", "160635.229000", "160635.233000", "160635.236000", "160635.239000", "160635.242000", "160635.246000", "160635.249000", "160635.252000", "160635.256000", "160635.259000", "160635.262000", "160635.280000", "160635.283000", "160635.287000", "160635.290000", "160635.293000", "160635.296000", "160715.199000", "160715.203000", "160715.206000", "160715.209000", "160715.213000", "160715.216000", "160715.219000", "160715.223000", "160715.226000", "160715.229000", "160715.232000", "160715.236000", "160715.239000", "160715.242000", "160715.246000", "160715.249000", "160715.252000", "160715.255000", "160715.259000", "160715.262000", "160715.265000", "160715.269000", "160715.272000", "160715.275000", "160715.278000", "160715.282000", "160715.285000", "160746.317000", "160746.322000", "160746.325000", "160746.329000", "160746.332000", "160746.336000", "160746.339000", "160746.343000", "160746.346000", "160746.350000", "160746.353000", "160746.356000", "160746.360000", "160746.363000", "160746.367000", "160746.370000", "160746.373000", "160746.376000", "160746.380000", "160746.383000", "160746.387000"],
      "InstanceCreationTime": ["155815.235000", "155835.198000", "155835.202000", "155835.205000", "155835.208000", "155835.212000", "155835.215000", "155835.225000", "155835.228000", "155835.231000", "155835.235000", "155835.238000", "155835.241000", "155835.245000", "155835.248000", "155835.251000", "155835.255000", "155835.266000", "155835.269000", "155835.272000", "155835.275000", "155855.198000", "155855.202000", "155855.205000", "155855.208000", "155855.212000", "155855.215000", "155855.218000", "155855.222000", "155855.225000", "155855.228000", "155855.232000", "155855.235000", "155855.238000", "155855.241000", "155855.245000", "155855.248000", "155855.251000", "155855.255000", "155855.258000", "155855.261000", "155855.264000", "155915.198000", "155915.202000", "155915.205000", "155915.208000", "155915.212000", "155915.215000", "155915.218000", "155915.221000", "155915.224000", "155915.228000", "155915.231000", "155915.234000", "155915.238000", "155915.241000", "155915.244000", "155915.247000", "155915.251000", "155915.254000", "155915.257000", "155915.260000", "155935.199000", "155935.203000", "155935.206000", "155935.209000", "155935.212000", "155935.216000", "155935.219000", "155935.222000", "155935.225000", "155935.229000", "155935.232000", "155935.235000", "155935.239000", "155935.242000", "155935.245000", "155935.249000", "155935.252000", "155935.255000", "155935.259000", "155935.262000", "155955.199000", "155955.215000", "155955.218000", "155955.222000", "155955.225000", "155955.228000", "155955.231000", "155955.234000", "155955.238000", "155955.241000", "155955.244000", "155955.248000", "155955.251000", "155955.254000", "155955.257000", "155955.260000", "155955.264000", "155955.267000", "155955.270000", "155955.274000", "155955.277000", "160035.199000", "160035.203000", "160035.206000", "160035.209000", "160035.213000", "160035.216000", "160035.219000", "160035.223000", "160035.226000", "160035.229000", "160035.232000", "160035.236000", "160035.239000", "160035.242000", "160035.245000", "160035.249000", "160035.252000", "160035.255000", "160035.258000", "160035.262000", "160035.265000", "160035.268000", "160035.272000", "160035.275000", "160035.288000", "160035.291000", "160035.294000", "160035.298000", "160115.198000", "160115.202000", "160115.205000", "160115.208000", "160115.212000", "160115.215000", "160115.218000", "160115.221000", "160115.225000", "160115.228000", "160115.231000", "160115.235000", "160115.238000", "160115.241000", "160115.245000", "160115.248000", "160115.251000", "160115.254000", "160115.258000", "160115.261000", "160115.264000", "160115.268000", "160115.271000", "160115.274000", "160115.278000", "160115.281000", "160115.284000", "160155.199000", "160155.203000", "160155.206000", "160155.219000", "160155.222000", "160155.225000", "160155.228000", "160155.232000", "160155.235000", "160155.238000", "160155.242000", "160155.245000", "160155.249000", "160155.252000", "160155.255000", "160155.259000", "160155.262000", "160155.265000", "160155.268000", "160155.272000", "160155.275000", "160155.278000", "160155.282000", "160155.285000", "160155.288000", "160155.292000", "160155.295000", "160235.199000", "160235.203000", "160235.206000", "160235.209000", "160235.213000", "160235.216000", "160235.219000", "160235.223000", "160235.226000", "160235.229000", "160235.232000", "160235.236000", "160235.239000", "160235.242000", "160235.245000", "160235.249000", "160235.252000", "160235.256000", "160235.260000", "160235.263000", "160235.266000", "160235.270000", "160235.273000", "160235.276000", "160235.279000", "160235.283000", "160315.198000", "160315.202000", "160315.205000", "160315.208000", "160315.212000", "160315.215000", "160315.218000", "160315.222000", "160315.225000", "160315.228000", "160315.232000", "160315.235000", "160315.238000", "160315.242000", "160315.245000", "160315.248000", "160315.251000", "160315.255000", "160315.258000", "160315.261000", "160315.264000", "160315.268000", "160315.271000", "160315.275000", "160315.278000", "160315.281000", "160315.285000", "160355.198000", "160355.202000", "160355.205000", "160355.208000", "160355.212000", "160355.215000", "160355.218000", "160355.222000", "160355.225000", "160355.228000", "160355.232000", "160355.235000", "160355.238000", "160355.241000", "160355.245000", "160355.248000", "160355.251000", "160355.255000", "160355.258000", "160355.261000", "160355.264000", "160355.268000", "160355.271000", "160355.274000", "160355.278000", "160355.281000", "160355.285000", "160435.199000", "160435.210000", "160435.213000", "160435.216000", "160435.220000", "160435.223000", "160435.226000", "160435.230000", "160435.247000", "160435.250000", "160435.253000", "160435.257000", "160435.260000", "160435.263000", "160435.267000", "160435.270000", "160435.273000", "160435.277000", "160435.280000", "160435.283000", "160435.286000", "160435.290000", "160435.293000", "160435.296000", "160435.300000", "160435.303000", "160435.306000", "160515.199000", "160515.203000", "160515.206000", "160515.210000", "160515.213000", "160515.216000", "160515.219000", "160515.223000", "160515.226000", "160515.230000", "160515.233000", "160515.236000", "160515.240000", "160515.243000", "160515.246000", "160515.250000", "160515.253000", "160515.256000", "160515.260000", "160515.263000", "160515.266000", "160515.270000", "160515.273000", "160515.277000", "160515.280000", "160515.284000", "160515.287000", "160555.198000", "160555.202000", "160555.205000", "160555.208000", "160555.212000", "160555.215000", "160555.219000", "160555.222000", "160555.225000", "160555.229000", "160555.232000", "160555.235000", "160555.238000", "160555.242000", "160555.245000", "160555.248000", "160555.252000", "160555.255000", "160555.258000", "160555.261000", "160555.265000", "160555.268000", "160555.271000", "160555.275000", "160555.278000", "160555.281000", "160555.284000", "160635.199000", "160635.203000", "160635.206000", "160635.209000", "160635.213000", "160635.216000", "160635.219000", "160635.223000", "160635.226000", "160635.229000", "160635.233000", "160635.236000", "160635.239000", "160635.242000", "160635.246000", "160635.249000", "160635.252000", "160635.256000", "160635.259000", "160635.262000", "160635.280000", "160635.283000", "160635.287000", "160635.290000", "160635.293000", "160635.296000", "160715.199000", "160715.203000", "160715.206000", "160715.209000", "160715.213000", "160715.216000", "160715.219000", "160715.223000", "160715.226000", "160715.229000", "160715.232000", "160715.236000", "160715.239000", "160715.242000", "160715.246000", "160715.249000", "160715.252000", "160715.255000", "160715.259000", "160715.262000", "160715.265000", "160715.269000", "160715.272000", "160715.275000", "160715.278000", "160715.282000", "160715.285000", "160746.317000", "160746.322000", "160746.325000", "160746.329000", "160746.332000", "160746.336000", "160746.339000", "160746.343000", "160746.346000", "160746.350000", "160746.353000", "160746.356000", "160746.360000", "160746.363000", "160746.367000", "160746.370000", "160746.373000", "160746.376000", "160746.380000", "160746.383000", "160746.387000"],
