{
  "AcquisitionMatrixPE": 104,
  "AcquisitionNumber": 1,
  "AcquisitionTime": "13:37:34.595000",
  "BandwidthPerPixelPhaseEncode": 17.17,
  "BaseResolution": 104,
  "BodyPartExamined": "BRAIN",
  "CoilCombinationMethod": "Sum of Squares",
  "ConsistencyInfo": "N4_VE11C_LATEST_20160120",
  "ConversionSoftware": "dcm2niix",
  "ConversionSoftwareVersion": "v1.0.20211006",
  "DerivedVendorReportedEchoSpacing": 0.000560011,
  "DeviceSerialNumber": "167006",
  "DwellTime": 2.1e-06,
  "EchoTime": 0.037,
  "EchoTrainLength": 104,
  "EffectiveEchoSpacing": 0.000560011,
  "FlipAngle": 52,
  "HeudiconvVersion": "0.11.3.post9+gc939bf8",
  "ImageComments": "Unaliased MB4/PE3/LB",
  "ImageOrientationPatientDICOM": [0.999839, -0.0110419, 0.0141589, 0.0146595, 0.957337, -0.288602],
  "ImageOrientationText": "Tra>Cor(-16.8)>Sag(0.6)",
  "ImageType": [
    "ORIGINAL",
    "PRIMARY",
    "M",
    "MB",
    "ND",
    "MOSAIC"
],
  "ImagingFrequency": 123.259,
  "InPlanePhaseEncodingDirectionDICOM": "COL",
  "InstitutionAddress": "Chemin Queen-Mary 4565,Montreal,District,CA,H3W 1W5",
  "InstitutionName": "IUGM",
  "InstitutionalDepartmentName": "Department",
  "MRAcquisitionType": "2D",
  "MagneticFieldStrength": 3,
  "Manufacturer": "Siemens",
  "ManufacturersModelName": "Prisma_fit",
  "MatrixCoilMode": "SENSE",
  "Modality": "MR",
  "MultibandAccelerationFactor": 4,
  "PartialFourier": 1,
  "PatientPosition": "HFS",
  "PercentPhaseFOV": 100,
  "PercentSampling": 100,
  "PhaseEncodingDirection": "j",
  "PhaseEncodingSteps": 104,
  "PhaseResolution": 1,
  "PixelBandwidth": 2290,
  "ProcedureStepDescription": "games^mariostars",
  "ProtocolName": "func_task-mariostars_run-01",
  "PulseSequenceDetails": "%CustomerSeq%\\cmrr_mbep2d_bold",
  "ReceiveCoilActiveElements": "HC1-7;NC1,2",
  "ReceiveCoilName": "HeadNeck_64",
  "ReconMatrixPE": 104,
  "RepetitionTime": 1.49,
  "SAR": 0.0620933,
  "ScanOptions": "FS",
  "ScanningSequence": "EP",
  "SequenceName": "epfid2d1_104",
  "SequenceVariant": "SK\\SS",
  "SeriesDescription": "func_task-mariostars_run-01",
  "SeriesNumber": 11,
  "ShimSetting": [631, -7197, -8780, 670, 54, 54, 5, -8],
  "SliceThickness": 2,
  "SliceTiming": [0, 0.785, 0.0975, 0.8825, 0.1975, 0.98, 0.295, 1.0775, 0.3925, 1.1775, 0.49, 1.275, 0.5875, 1.3725, 0.6875, 0, 0.785, 0.0975, 0.8825, 0.1975, 0.98, 0.295, 1.0775, 0.3925, 1.1775, 0.49, 1.275, 0.5875, 1.3725, 0.6875, 0, 0.785, 0.0975, 0.8825, 0.1975, 0.98, 0.295, 1.0775, 0.3925, 1.1775, 0.49, 1.275, 0.5875, 1.3725, 0.6875, 0, 0.785, 0.0975, 0.8825, 0.1975, 0.98, 0.295, 1.0775, 0.3925, 1.1775, 0.49, 1.275, 0.5875, 1.3725, 0.6875],
  "SoftwareVersions": "syngo MR E11",
  "SpacingBetweenSlices": 2,
  "StationName": "MRC35049",
  "TaskName": "mariostars",
  "TotalReadoutTime": 0.0576811,
  "TxRefAmp": 243.388,
  "WipMemBlock": "c889ca9d-eed4-465e-a61c-6289ba394027||Sequence: R017 ve11c/master r/75a17815+; Jun 28 2022 16:32:11 by eja",
  "dcmmeta_affine": [
    [-1.9996775388717651, 0.02931896224617958, 0.020736195147037506, 106.92642974853516],
    [0.022083833813667297, 1.9146738052368164, -0.577526330947876, -72.75171661376953],
    [0.028317762538790703, 0.5772042870521545, 1.9146888256072998, -61.23131561279297],
    [0.0, 0.0, 0.0, 1.0]
],
  "dcmmeta_reorient_transform": [
    [0.0, -1.0, 0.0, 103.0],
    [1.0, 0.0, 0.0, 0.0],
    [0.0, 0.0, 1.0, 0.0],
    [0.0, 0.0, 0.0, 1.0]
],
  "dcmmeta_shape": [104, 104, 60, 449],
  "dcmmeta_slice_dim": 2,
  "dcmmeta_version": 0.6,
  "global": {
    "const": {
      "AcquisitionMatrix": [104, 0, 0, 104],
      "AngioFlag": "N",
      "BitsAllocated": 16,
      "BitsStored": 16,
      "BodyPartExamined": "BRAIN",
      "Columns": 832,
      "EchoNumbers": 1,
      "EchoTime": 37.0,
      "EchoTrainLength": 104,
      "FlipAngle": 52.0,
      "HighBit": 15,
      "ImageOrientationPatient": [0.99983878808773, -0.0110419166114, 0.01415888105808, 0.01465948066889, 0.9573368813714, -0.2886021399654],
      "ImagePositionPatient": [-848.50102186289, -813.36241647868, 198.01541651768],
      "ImageType": [
        "ORIGINAL",
        "PRIMARY",
        "M",
        "MB",
        "ND",
        "MOSAIC"
],
      "ImagedNucleus": "1H",
      "ImagingFrequency": 123.25882,
      "InPlanePhaseEncodingDirection": "COL",
      "MRAcquisitionType": "2D",
      "MagneticFieldStrength": 3.0,
      "Manufacturer": "SIEMENS",
      "ManufacturerModelName": "Prisma_fit",
      "Modality": "MR",
      "NumberOfAverages": 1.0,
      "NumberOfPhaseEncodingSteps": 104,
      "PercentPhaseFieldOfView": 100.0,
      "PercentSampling": 100.0,
      "PerformedProcedureStepStartTime": "133425.188000",
      "PhotometricInterpretation": "MONOCHROME2",
      "PixelBandwidth": 2290.0,
      "PixelRepresentation": 0,
      "PixelSpacing": [2.0, 2.0],
      "ProtocolName": "func_task-mariostars_run-01",
      "RepetitionTime": 1490.0,
      "Rows": 832,
      "SAR": 0.0620932610771,
      "SamplesPerPixel": 1,
      "ScanOptions": "FS",
      "ScanningSequence": "EP",
      "SequenceName": "epfid2d1_104",
      "SequenceVariant": [
        "SK",
        "SS"
],
      "SeriesDescription": "func_task-mariostars_run-01",
      "SeriesNumber": 11,
      "SeriesTime": "133903.525000",
      "SliceLocation": -36.502819112938,
      "SliceThickness": 2.0,
      "SmallestImagePixelValue": 0,
      "SoftwareVersions": "syngo MR E11",
      "SpacingBetweenSlices": 1.9999999496541,
      "SpecificCharacterSet": "ISO_IR 100",
      "StudyID": "1",
      "StudyTime": "133425.119000",
      "TransmitCoilName": "Body",
      "VariableFlipAngleFlag": "N",
      "WindowCenterWidthExplanation": "Algo1",
      "dBdt": 0.0},
    "slices": {}
  },
  "time": {
    "samples": {
      "AcquisitionNumber": [1, 2, 3, 4, 5, 6, 7, 8, 9, 10, 11, 12, 13, 14, 15, 16, 17, 18, 19, 20, 21, 22, 23, 24, 25, 26, 27, 28, 29, 30, 31, 32, 33, 34, 35, 36, 37, 38, 39, 40, 41, 42, 43, 44, 45, 46, 47, 48, 49, 50, 51, 52, 53, 54, 55, 56, 57, 58, 59, 60, 61, 62, 63, 64, 65, 66, 67, 68, 69, 70, 71, 72, 73, 74, 75, 76, 77, 78, 79, 80, 81, 82, 83, 84, 85, 86, 87, 88, 89, 90, 91, 92, 93, 94, 95, 96, 97, 98, 99, 100, 101, 102, 103, 104, 105, 106, 107, 108, 109, 110, 111, 112, 113, 114, 115, 116, 117, 118, 119, 120, 121, 122, 123, 124, 125, 126, 127, 128, 129, 130, 131, 132, 133, 134, 135, 136, 137, 138, 139, 140, 141, 142, 143, 144, 145, 146, 147, 148, 149, 150, 151, 152, 153, 154, 155, 156, 157, 158, 159, 160, 161, 162, 163, 164, 165, 166, 167, 168, 169, 170, 171, 172, 173, 174, 175, 176, 177, 178, 179, 180, 181, 182, 183, 184, 185, 186, 187, 188, 189, 190, 191, 192, 193, 194, 195, 196, 197, 198, 199, 200, 201, 202, 203, 204, 205, 206, 207, 208, 209, 210, 211, 212, 213, 214, 215, 216, 217, 218, 219, 220, 221, 222, 223, 224, 225, 226, 227, 228, 229, 230, 231, 232, 233, 234, 235, 236, 237, 238, 239, 240, 241, 242, 243, 244, 245, 246, 247, 248, 249, 250, 251, 252, 253, 254, 255, 256, 257, 258, 259, 260, 261, 262, 263, 264, 265, 266, 267, 268, 269, 270, 271, 272, 273, 274, 275, 276, 277, 278, 279, 280, 281, 282, 283, 284, 285, 286, 287, 288, 289, 290, 291, 292, 293, 294, 295, 296, 297, 298, 299, 300, 301, 302, 303, 304, 305, 306, 307, 308, 309, 310, 311, 312, 313, 314, 315, 316, 317, 318, 319, 320, 321, 322, 323, 324, 325, 326, 327, 328, 329, 330, 331, 332, 333, 334, 335, 336, 337, 338, 339, 340, 341, 342, 343, 344, 345, 346, 347, 348, 349, 350, 351, 352, 353, 354, 355, 356, 357, 358, 359, 360, 361, 362, 363, 364, 365, 366, 367, 368, 369, 370, 371, 372, 373, 374, 375, 376, 377, 378, 379, 380, 381, 382, 383, 384, 385, 386, 387, 388, 389, 390, 391, 392, 393, 394, 395, 396, 397, 398, 399, 400, 401, 402, 403, 404, 405, 406, 407, 408, 409, 410, 411, 412, 413, 414, 415, 416, 417, 418, 419, 420, 421, 422, 423, 424, 425, 426, 427, 428, 429, 430, 431, 432, 433, 434, 435, 436, 437, 438, 439, 440, 441, 442, 443, 444, 445, 446, 447, 448, 449],
      "AcquisitionTime": ["133734.595000", "133736.085000", "133737.575000", "133739.065000", "133740.555000", "133742.045000", "133743.535000", "133745.025000", "133746.515000", "133748.005000", "133749.495000", "133750.985000", "133752.475000", "133753.965000", "133755.455000", "133756.945000", "133758.435000", "133759.925000", "133801.415000", "133802.905000", "133804.395000", "133805.885000", "133807.375000", "133808.865000", "133810.355000", "133811.845000", "133813.335000", "133814.825000", "133816.315000", "133817.805000", "133819.295000", "133820.785000", "133822.275000", "133823.765000", "133825.255000", "133826.745000", "133828.235000", "133829.725000", "133831.215000", "133832.705000", "133834.195000", "133835.685000", "133837.175000", "133838.665000", "133840.155000", "133841.645000", "133843.135000", "133844.625000", "133846.115000", "133847.605000", "133849.095000", "133850.585000", "133852.075000", "133853.565000", "133855.055000", "133856.545000", "133858.035000", "133859.525000", "133901.015000", "133902.505000", "133903.995000", "133905.485000", "133906.975000", "133908.465000", "133909.955000", "133911.445000", "133912.935000", "133914.425000", "133915.915000", "133917.405000", "133918.895000", "133920.385000", "133921.875000", "133923.365000", "133924.855000", "133926.345000", "133927.835000", "133929.325000", "133930.815000", "133932.305000", "133933.795000", "133935.285000", "133936.775000", "133938.265000", "133939.755000", "133941.245000", "133942.735000", "133944.225000", "133945.715000", "133947.205000", "133948.695000", "133950.185000", "133951.675000", "133953.165000", "133954.655000", "133956.145000", "133957.635000", "133959.125000", "134000.615000", "134002.105000", "134003.595000", "134005.085000", "134006.575000", "134008.065000", "134009.555000", "134011.045000", "134012.535000", "134014.025000", "134015.515000", "134017.005000", "134018.495000", "134019.985000", "134021.475000", "134022.965000", "134024.455000", "134025.945000", "134027.435000", "134028.925000", "134030.415000", "134031.905000", "134033.395000", "134034.885000", "134036.375000", "134037.865000", "134039.355000", "134040.845000", "134042.335000", "134043.825000", "134045.315000", "134046.805000", "134048.295000", "134049.785000", "134051.275000", "134052.765000", "134054.255000", "134055.745000", "134057.235000", "134058.725000", "134100.215000", "134101.705000", "134103.195000", "134104.685000", "134106.175000", "134107.665000", "134109.155000", "134110.645000", "134112.135000", "134113.625000", "134115.115000", "134116.605000", "134118.095000", "134119.585000", "134121.075000", "134122.565000", "134124.055000", "134125.545000", "134127.035000", "134128.525000", "134130.015000", "134131.505000", "134132.995000", "134134.485000", "134135.975000", "134137.465000", "134138.955000", "134140.445000", "134141.935000", "134143.425000", "134144.915000", "134146.405000", "134147.895000", "134149.385000", "134150.875000", "134152.365000", "134153.855000", "134155.345000", "134156.835000", "134158.325000", "134159.815000", "134201.305000", "134202.795000", "134204.285000", "134205.775000", "134207.265000", "134208.755000", "134210.245000", "134211.735000", "134213.225000", "134214.715000", "134216.205000", "134217.695000", "134219.185000", "134220.675000", "134222.165000", "134223.655000", "134225.145000", "134226.635000", "134228.125000", "134229.615000", "134231.105000", "134232.595000", "134234.085000", "134235.575000", "134237.065000", "134238.555000", "134240.045000", "134241.535000", "134243.025000", "134244.515000", "134246.005000", "134247.495000", "134248.985000", "134250.475000", "134251.965000", "134253.455000", "134254.945000", "134256.435000", "134257.925000", "134259.415000", "134300.905000", "134302.395000", "134303.885000", "134305.375000", "134306.865000", "134308.355000", "134309.845000", "134311.335000", "134312.825000", "134314.315000", "134315.805000", "134317.295000", "134318.785000", "134320.275000", "134321.765000", "134323.255000", "134324.745000", "134326.235000", "134327.725000", "134329.215000", "134330.705000", "134332.195000", "134333.685000", "134335.175000", "134336.665000", "134338.155000", "134339.645000", "134341.135000", "134342.625000", "134344.115000", "134345.605000", "134347.095000", "134348.585000", "134350.075000", "134351.565000", "134353.055000", "134354.545000", "134356.035000", "134357.525000", "134359.015000", "134400.505000", "134401.995000", "134403.485000", "134404.975000", "134406.465000", "134407.955000", "134409.445000", "134410.935000", "134412.425000", "134413.915000", "134415.405000", "134416.895000", "134418.385000", "134419.875000", "134421.365000", "134422.855000", "134424.345000", "134425.835000", "134427.325000", "134428.815000", "134430.305000", "134431.795000", "134433.285000", "134434.775000", "134436.265000", "134437.755000", "134439.245000", "134440.735000", "134442.225000", "134443.715000", "134445.205000", "134446.695000", "134448.185000", "134449.675000", "134451.165000", "134452.655000", "134454.145000", "134455.635000", "134457.125000", "134458.615000", "134500.105000", "134501.595000", "134503.085000", "134504.575000", "134506.065000", "134507.555000", "134509.045000", "134510.535000", "134512.025000", "134513.515000", "134515.005000", "134516.495000", "134517.985000", "134519.475000", "134520.965000", "134522.455000", "134523.945000", "134525.435000", "134526.925000", "134528.415000", "134529.905000", "134531.395000", "134532.885000", "134534.375000", "134535.865000", "134537.355000", "134538.845000", "134540.335000", "134541.825000", "134543.315000", "134544.805000", "134546.295000", "134547.785000", "134549.275000", "134550.765000", "134552.255000", "134553.745000", "134555.235000", "134556.725000", "134558.215000", "134559.705000", "134601.195000", "134602.685000", "134604.175000", "134605.665000", "134607.155000", "134608.645000", "134610.135000", "134611.625000", "134613.115000", "134614.605000", "134616.095000", "134617.585000", "134619.075000", "134620.565000", "134622.055000", "134623.545000", "134625.035000", "134626.525000", "134628.015000", "134629.505000", "134630.995000", "134632.485000", "134633.975000", "134635.465000", "134636.955000", "134638.445000", "134639.935000", "134641.425000", "134642.915000", "134644.405000", "134645.895000", "134647.385000", "134648.875000", "134650.365000", "134651.855000", "134653.345000", "134654.835000", "134656.325000", "134657.815000", "134659.305000", "134700.795000", "134702.285000", "134703.775000", "134705.265000", "134706.755000", "134708.245000", "134709.735000", "134711.225000", "134712.715000", "134714.205000", "134715.695000", "134717.185000", "134718.675000", "134720.165000", "134721.655000", "134723.145000", "134724.635000", "134726.125000", "134727.615000", "134729.105000", "134730.595000", "134732.085000", "134733.575000", "134735.065000", "134736.555000", "134738.045000", "134739.535000", "134741.025000", "134742.515000", "134744.005000", "134745.495000", "134746.985000", "134748.475000", "134749.965000", "134751.455000", "134752.945000", "134754.435000", "134755.925000", "134757.415000", "134758.905000", "134800.395000", "134801.885000", "134803.375000", "134804.865000", "134806.355000", "134807.845000", "134809.335000", "134810.825000", "134812.315000", "134813.805000", "134815.295000", "134816.785000", "134818.275000", "134819.765000", "134821.255000", "134822.745000", "134824.235000", "134825.725000", "134827.215000", "134828.705000", "134830.195000", "134831.685000", "134833.175000", "134834.665000", "134836.155000", "134837.645000", "134839.135000", "134840.625000", "134842.115000"],
      "ContentTime": ["133903.528000", "133903.532000", "133903.536000", "133903.539000", "133903.542000", "133903.546000", "133903.549000", "133903.553000", "133903.556000", "133903.559000", "133903.563000", "133903.566000", "133903.569000", "133903.573000", "133903.576000", "133903.580000", "133903.583000", "133903.587000", "133903.590000", "133903.594000", "133903.597000", "133903.601000", "133903.604000", "133903.607000", "133903.611000", "133903.614000", "133903.618000", "133903.621000", "133903.624000", "133903.628000", "133903.631000", "133903.635000", "133903.638000", "133903.641000", "133903.645000", "133903.648000", "133903.651000", "133903.655000", "133923.499000", "133923.503000", "133923.507000", "133923.510000", "133923.513000", "133923.517000", "133923.520000", "133923.524000", "133923.527000", "133923.530000", "133923.534000", "133923.537000", "133923.540000", "133923.544000", "133923.547000", "133923.550000", "133923.554000", "133923.557000", "133923.561000", "133923.564000", "133943.499000", "133943.503000", "133943.506000", "133943.510000", "133943.513000", "133943.517000", "133943.520000", "133943.524000", "133943.527000", "133943.531000", "133943.534000", "133943.537000", "133943.541000", "133943.544000", "133943.548000", "133943.551000", "133943.554000", "133943.558000", "133943.561000", "133943.565000", "134003.498000", "134003.502000", "134003.505000", "134003.509000", "134003.512000", "134003.515000", "134003.519000", "134003.522000", "134003.533000", "134003.537000", "134003.540000", "134003.544000", "134003.547000", "134003.550000", "134003.554000", "134003.557000", "134003.561000", "134003.564000", "134003.567000", "134003.571000", "134003.574000", "134043.498000", "134043.502000", "134043.506000", "134043.509000", "134043.512000", "134043.516000", "134043.519000", "134043.522000", "134043.526000", "134043.529000", "134043.532000", "134043.536000", "134043.539000", "134043.542000", "134043.546000", "134043.549000", "134043.553000", "134043.556000", "134043.560000", "134043.563000", "134043.566000", "134043.570000", "134043.573000", "134043.576000", "134043.580000", "134043.583000", "134043.587000", "134123.499000", "134123.503000", "134123.506000", "134123.510000", "134123.513000", "134123.516000", "134123.520000", "134123.523000", "134123.527000", "134123.530000", "134123.533000", "134123.537000", "134123.540000", "134123.550000", "134123.553000", "134123.557000", "134123.560000", "134123.564000", "134123.567000", "134123.570000", "134123.574000", "134123.577000", "134123.580000", "134123.584000", "134123.587000", "134123.591000", "134123.594000", "134203.499000", "134203.503000", "134203.506000", "134203.510000", "134203.513000", "134203.516000", "134203.520000", "134203.523000", "134203.526000", "134203.530000", "134203.533000", "134203.537000", "134203.540000", "134203.543000", "134203.547000", "134203.550000", "134203.554000", "134203.560000", "134203.563000", "134203.567000", "134203.570000", "134203.573000", "134203.577000", "134203.580000", "134203.583000", "134203.587000", "134203.590000", "134243.498000", "134243.502000", "134243.515000", "134243.518000", "134243.521000", "134243.525000", "134243.536000", "134243.539000", "134243.542000", "134243.546000", "134243.549000", "134243.553000", "134243.556000", "134243.559000", "134243.563000", "134243.567000", "134243.570000", "134243.573000", "134243.577000", "134243.580000", "134243.589000", "134243.593000", "134243.596000", "134243.600000", "134243.603000", "134243.606000", "134243.610000", "134323.500000", "134323.504000", "134323.507000", "134323.511000", "134323.514000", "134323.517000", "134323.521000", "134323.524000", "134323.528000", "134323.531000", "134323.535000", "134323.538000", "134323.541000", "134323.545000", "134323.548000", "134323.552000", "134323.555000", "134323.558000", "134323.562000", "134323.565000", "134323.569000", "134323.572000", "134323.575000", "134323.579000", "134323.582000", "134323.585000", "134323.589000", "134403.499000", "134403.503000", "134403.506000", "134403.510000", "134403.513000", "134403.517000", "134403.520000", "134403.524000", "134403.527000", "134403.530000", "134403.534000", "134403.545000", "134403.548000", "134403.552000", "134403.555000", "134403.558000", "134403.562000", "134403.565000", "134403.569000", "134403.572000", "134403.576000", "134403.581000", "134403.584000", "134403.588000", "134403.591000", "134403.595000", "134443.498000", "134443.502000", "134443.505000", "134443.509000", "134443.512000", "134443.516000", "134443.519000", "134443.532000", "134443.536000", "134443.539000", "134443.542000", "134443.546000", "134443.549000", "134443.553000", "134443.556000", "134443.559000", "134443.563000", "134443.566000", "134443.570000", "134443.573000", "134443.577000", "134443.580000", "134443.601000", "134443.604000", "134443.608000", "134443.611000", "134443.615000", "134523.498000", "134523.502000", "134523.506000", "134523.509000", "134523.513000", "134523.516000", "134523.520000", "134523.523000", "134523.527000", "134523.530000", "134523.534000", "134523.537000", "134523.540000", "134523.544000", "134523.547000", "134523.551000", "134523.554000", "134523.558000", "134523.561000", "134523.565000", "134523.568000", "134523.572000", "134523.575000", "134523.579000", "134523.582000", "134523.585000", "134523.589000", "134543.499000", "134543.503000", "134543.507000", "134543.510000", "134543.513000", "134543.517000", "134543.520000", "134543.523000", "134543.527000", "134543.530000", "134543.534000", "134543.537000", "134543.541000", "134623.499000", "134623.503000", "134623.506000", "134623.510000", "134623.513000", "134623.517000", "134623.520000", "134623.523000", "134623.527000", "134623.530000", "134623.534000", "134623.537000", "134623.540000", "134623.544000", "134623.547000", "134623.551000", "134623.554000", "134623.564000", "134623.567000", "134623.570000", "134623.574000", "134623.577000", "134623.581000", "134623.584000", "134623.587000", "134623.591000", "134623.594000", "134703.498000", "134703.502000", "134703.506000", "134703.509000", "134703.512000", "134703.516000", "134703.519000", "134703.523000", "134703.526000", "134703.529000", "134703.533000", "134703.536000", "134703.540000", "134703.543000", "134703.546000", "134703.550000", "134703.553000", "134703.557000", "134703.560000", "134703.563000", "134703.567000", "134703.582000", "134703.586000", "134703.589000", "134703.592000", "134703.596000", "134703.599000", "134743.498000", "134743.502000", "134743.507000", "134743.510000", "134743.514000", "134743.517000", "134743.520000", "134743.524000", "134743.527000", "134743.531000", "134743.534000", "134743.537000", "134743.541000", "134743.544000", "134743.548000", "134743.551000", "134743.554000", "134743.558000", "134743.561000", "134743.565000", "134743.568000", "134743.571000", "134743.575000", "134743.578000", "134743.581000", "134743.585000", "134743.588000", "134823.499000", "134823.503000", "134823.506000", "134823.510000", "134823.513000", "134823.517000", "134823.520000", "134823.523000", "134823.527000", "134823.530000", "134823.533000", "134823.537000", "134823.540000", "134823.544000", "134823.547000", "134823.551000", "134823.554000", "134823.558000", "134823.561000", "134823.564000", "134823.568000", "134823.571000", "134823.575000", "134823.578000", "134823.581000", "134823.585000", "134823.588000", "134844.252000", "134844.256000", "134844.260000", "134844.263000", "134844.267000", "134844.270000", "134844.274000", "134844.277000", "134844.280000", "134844.284000", "134844.287000", "134844.290000", "134844.294000", "134844.297000"],
