{
  "AcquisitionMatrixPE": 104,
  "AcquisitionNumber": 1,
  "AcquisitionTime": "14:02:5.512500",
  "BandwidthPerPixelPhaseEncode": 17.17,
  "BaseResolution": 104,
  "BodyPartExamined": "BRAIN",
  "CoilCombinationMethod": "Sum of Squares",
  "ConsistencyInfo": "N4_VE11C_LATEST_20160120",
  "ConversionSoftware": "dcm2niix",
  "ConversionSoftwareVersion": "v1.0.20211006",
  "DerivedVendorReportedEchoSpacing": 0.000560011,
  "DeviceSerialNumber": "167006",
  "DwellTime": 2.1e-06,
  "EchoTime": 0.037,
  "EchoTime1": 0.037,
  "EchoTime2": 0.001,
  "EchoTrainLength": 104,
  "EffectiveEchoSpacing": 0.000560011,
  "FlipAngle": 52,
  "HeudiconvVersion": "0.11.3.post9+gc939bf8",
  "ImageComments": "Unaliased MB4/PE3/LB",
  "ImageOrientationPatientDICOM": [0.999839, -0.0110419, 0.0141589, 0.0146595, 0.957337, -0.288602],
  "ImageOrientationText": "Tra>Cor(-16.8)>Sag(0.6)",
  "ImageType": [
    "ORIGINAL",
    "PRIMARY",
    "P",
    "MB",
    "ND",
    "MOSAIC",
    "PHASE"
],
  "ImagingFrequency": 123.259,
  "InPlanePhaseEncodingDirectionDICOM": "COL",
  "InstitutionAddress": "Chemin Queen-Mary 4565,Montreal,District,CA,H3W 1W5",
  "InstitutionName": "IUGM",
  "InstitutionalDepartmentName": "Department",
  "MRAcquisitionType": "2D",
  "MagneticFieldStrength": 3,
  "Manufacturer": "Siemens",
  "ManufacturersModelName": "Prisma_fit",
  "MatrixCoilMode": "SENSE",
  "Modality": "MR",
  "MultibandAccelerationFactor": 4,
  "PartialFourier": 1,
  "PatientPosition": "HFS",
  "PercentPhaseFOV": 100,
  "PercentSampling": 100,
  "PhaseEncodingDirection": "j",
  "PhaseEncodingSteps": 104,
  "PhaseResolution": 1,
  "PixelBandwidth": 2290,
  "ProcedureStepDescription": "games^mariostars",
  "ProtocolName": "func_task-mariostars_run-03",
  "PulseSequenceDetails": "%CustomerSeq%\\cmrr_mbep2d_bold",
  "ReceiveCoilActiveElements": "HC1-7;NC1,2",
  "ReceiveCoilName": "HeadNeck_64",
  "ReconMatrixPE": 104,
  "RepetitionTime": 1.49,
  "SAR": 0.0620933,
  "ScanOptions": "FS",
  "ScanningSequence": "EP",
  "SequenceName": "epfid2d1_104",
  "SequenceVariant": "SK\\SS",
  "SeriesDescription": "func_task-mariostars_run-03",
  "SeriesNumber": 18,
  "ShimSetting": [631, -7197, -8780, 670, 54, 54, 5, -8],
  "SliceThickness": 2,
  "SliceTiming": [0, 0.7825, 0.0975, 0.8825, 0.195, 0.98, 0.2925, 1.0775, 0.3925, 1.175, 0.49, 1.2725, 0.5875, 1.3725, 0.685, 0, 0.7825, 0.0975, 0.8825, 0.195, 0.98, 0.2925, 1.0775, 0.3925, 1.175, 0.49, 1.2725, 0.5875, 1.3725, 0.685, 0, 0.7825, 0.0975, 0.8825, 0.195, 0.98, 0.2925, 1.0775, 0.3925, 1.175, 0.49, 1.2725, 0.5875, 1.3725, 0.685, 0, 0.7825, 0.0975, 0.8825, 0.195, 0.98, 0.2925, 1.0775, 0.3925, 1.175, 0.49, 1.2725, 0.5875, 1.3725, 0.685],
  "SoftwareVersions": "syngo MR E11",
  "SpacingBetweenSlices": 2,
  "StationName": "MRC35049",
  "TaskName": "mariostars",
  "TotalReadoutTime": 0.0576811,
  "TxRefAmp": 243.388,
  "WipMemBlock": "bc1aafa7-f33d-47bc-ba19-d03100c5f3c7||Sequence: R017 ve11c/master r/75a17815+; Jun 28 2022 16:32:11 by eja",
  "dcmmeta_affine": [
    [-1.9996775388717651, 0.02931896224617958, 0.020736195147037506, 106.92642974853516],
    [0.022083833813667297, 1.9146738052368164, -0.577526330947876, -72.75171661376953],
    [0.028317762538790703, 0.5772042870521545, 1.9146888256072998, -61.23131561279297],
    [0.0, 0.0, 0.0, 1.0]
],
  "dcmmeta_reorient_transform": [
    [0.0, -1.0, 0.0, 103.0],
    [1.0, 0.0, 0.0, 0.0],
    [0.0, 0.0, 1.0, 0.0],
    [0.0, 0.0, 0.0, 1.0]
],
  "dcmmeta_shape": [104, 104, 60, 422],
  "dcmmeta_slice_dim": 2,
  "dcmmeta_version": 0.6,
  "global": {
    "const": {
      "AcquisitionMatrix": [104, 0, 0, 104],
      "AngioFlag": "N",
      "BitsAllocated": 16,
      "BitsStored": 16,
      "BodyPartExamined": "BRAIN",
      "Columns": 832,
      "EchoNumbers": 1,
      "EchoTime": 37.0,
      "EchoTrainLength": 104,
      "FlipAngle": 52.0,
      "HighBit": 15,
      "ImageOrientationPatient": [0.99983878808773, -0.0110419166114, 0.01415888105808, 0.01465948066889, 0.9573368813714, -0.2886021399654],
      "ImagePositionPatient": [-848.50102186289, -813.36241647868, 198.01541651768],
      "ImageType": [
        "ORIGINAL",
        "PRIMARY",
        "P",
        "MB",
        "ND",
        "MOSAIC"
],
      "ImagedNucleus": "1H",
      "ImagingFrequency": 123.258829,
      "InPlanePhaseEncodingDirection": "COL",
      "LargestImagePixelValue": 4095,
      "MRAcquisitionType": "2D",
      "MagneticFieldStrength": 3.0,
      "Manufacturer": "SIEMENS",
      "ManufacturerModelName": "Prisma_fit",
      "Modality": "MR",
      "NumberOfAverages": 1.0,
      "NumberOfPhaseEncodingSteps": 104,
      "PercentPhaseFieldOfView": 100.0,
      "PercentSampling": 100.0,
      "PerformedProcedureStepStartTime": "133425.188000",
      "PhotometricInterpretation": "MONOCHROME2",
      "PixelBandwidth": 2290.0,
      "PixelRepresentation": 0,
      "PixelSpacing": [2.0, 2.0],
      "ProtocolName": "func_task-mariostars_run-03",
      "RepetitionTime": 1490.0,
      "RescaleIntercept": -4096.0,
      "RescaleSlope": 2.0,
      "RescaleType": "US",
      "Rows": 832,
      "SAR": 0.0620932610771,
      "SamplesPerPixel": 1,
      "ScanOptions": "FS",
      "ScanningSequence": "EP",
      "SequenceName": "epfid2d1_104",
      "SequenceVariant": [
        "SK",
        "SS"
],
      "SeriesDescription": "func_task-mariostars_run-03",
      "SeriesNumber": 18,
      "SeriesTime": "140315.032000",
      "SliceLocation": -36.502819112938,
      "SliceThickness": 2.0,
      "SmallestImagePixelValue": 0,
      "SoftwareVersions": "syngo MR E11",
      "SpacingBetweenSlices": 1.9999999496541,
      "SpecificCharacterSet": "ISO_IR 100",
      "StudyID": "1",
      "StudyTime": "133425.119000",
      "TransmitCoilName": "Body",
      "VariableFlipAngleFlag": "N",
      "WindowCenterWidthExplanation": "Algo1",
      "dBdt": 0.0},
    "slices": {}
  },
  "time": {
    "samples": {
      "AcquisitionNumber": [1, 2, 3, 4, 5, 6, 7, 8, 9, 10, 11, 12, 13, 14, 15, 16, 17, 18, 19, 20, 21, 22, 23, 24, 25, 26, 27, 28, 29, 30, 31, 32, 33, 34, 35, 36, 37, 38, 39, 40, 41, 42, 43, 44, 45, 46, 47, 48, 49, 50, 51, 52, 53, 54, 55, 56, 57, 58, 59, 60, 61, 62, 63, 64, 65, 66, 67, 68, 69, 70, 71, 72, 73, 74, 75, 76, 77, 78, 79, 80, 81, 82, 83, 84, 85, 86, 87, 88, 89, 90, 91, 92, 93, 94, 95, 96, 97, 98, 99, 100, 101, 102, 103, 104, 105, 106, 107, 108, 109, 110, 111, 112, 113, 114, 115, 116, 117, 118, 119, 120, 121, 122, 123, 124, 125, 126, 127, 128, 129, 130, 131, 132, 133, 134, 135, 136, 137, 138, 139, 140, 141, 142, 143, 144, 145, 146, 147, 148, 149, 150, 151, 152, 153, 154, 155, 156, 157, 158, 159, 160, 161, 162, 163, 164, 165, 166, 167, 168, 169, 170, 171, 172, 173, 174, 175, 176, 177, 178, 179, 180, 181, 182, 183, 184, 185, 186, 187, 188, 189, 190, 191, 192, 193, 194, 195, 196, 197, 198, 199, 200, 201, 202, 203, 204, 205, 206, 207, 208, 209, 210, 211, 212, 213, 214, 215, 216, 217, 218, 219, 220, 221, 222, 223, 224, 225, 226, 227, 228, 229, 230, 231, 232, 233, 234, 235, 236, 237, 238, 239, 240, 241, 242, 243, 244, 245, 246, 247, 248, 249, 250, 251, 252, 253, 254, 255, 256, 257, 258, 259, 260, 261, 262, 263, 264, 265, 266, 267, 268, 269, 270, 271, 272, 273, 274, 275, 276, 277, 278, 279, 280, 281, 282, 283, 284, 285, 286, 287, 288, 289, 290, 291, 292, 293, 294, 295, 296, 297, 298, 299, 300, 301, 302, 303, 304, 305, 306, 307, 308, 309, 310, 311, 312, 313, 314, 315, 316, 317, 318, 319, 320, 321, 322, 323, 324, 325, 326, 327, 328, 329, 330, 331, 332, 333, 334, 335, 336, 337, 338, 339, 340, 341, 342, 343, 344, 345, 346, 347, 348, 349, 350, 351, 352, 353, 354, 355, 356, 357, 358, 359, 360, 361, 362, 363, 364, 365, 366, 367, 368, 369, 370, 371, 372, 373, 374, 375, 376, 377, 378, 379, 380, 381, 382, 383, 384, 385, 386, 387, 388, 389, 390, 391, 392, 393, 394, 395, 396, 397, 398, 399, 400, 401, 402, 403, 404, 405, 406, 407, 408, 409, 410, 411, 412, 413, 414, 415, 416, 417, 418, 419, 420, 421, 422],
      "AcquisitionTime": ["140205.512500", "140207.002500", "140208.492500", "140209.982500", "140211.472500", "140212.962500", "140214.452500", "140215.942500", "140217.432500", "140218.922500", "140220.412500", "140221.902500", "140223.392500", "140224.882500", "140226.372500", "140227.862500", "140229.352500", "140230.842500", "140232.332500", "140233.822500", "140235.312500", "140236.802500", "140238.292500", "140239.782500", "140241.272500", "140242.762500", "140244.252500", "140245.742500", "140247.232500", "140248.722500", "140250.212500", "140251.702500", "140253.192500", "140254.682500", "140256.172500", "140257.662500", "140259.152500", "140300.642500", "140302.132500", "140303.622500", "140305.112500", "140306.602500", "140308.092500", "140309.582500", "140311.072500", "140312.562500", "140314.052500", "140315.542500", "140317.032500", "140318.522500", "140320.012500", "140321.502500", "140322.992500", "140324.482500", "140325.972500", "140327.462500", "140328.952500", "140330.442500", "140331.932500", "140333.422500", "140334.912500", "140336.402500", "140337.892500", "140339.382500", "140340.872500", "140342.362500", "140343.852500", "140345.342500", "140346.832500", "140348.322500", "140349.812500", "140351.302500", "140352.792500", "140354.282500", "140355.772500", "140357.262500", "140358.752500", "140400.242500", "140401.732500", "140403.222500", "140404.712500", "140406.202500", "140407.692500", "140409.182500", "140410.672500", "140412.162500", "140413.652500", "140415.142500", "140416.632500", "140418.122500", "140419.612500", "140421.102500", "140422.592500", "140424.082500", "140425.572500", "140427.062500", "140428.552500", "140430.042500", "140431.532500", "140433.022500", "140434.512500", "140436.002500", "140437.492500", "140438.982500", "140440.472500", "140441.962500", "140443.452500", "140444.942500", "140446.432500", "140447.922500", "140449.412500", "140450.902500", "140452.392500", "140453.882500", "140455.372500", "140456.862500", "140458.352500", "140459.842500", "140501.332500", "140502.822500", "140504.312500", "140505.802500", "140507.292500", "140508.782500", "140510.272500", "140511.762500", "140513.252500", "140514.742500", "140516.232500", "140517.722500", "140519.212500", "140520.702500", "140522.192500", "140523.682500", "140525.172500", "140526.662500", "140528.152500", "140529.642500", "140531.132500", "140532.622500", "140534.112500", "140535.602500", "140537.092500", "140538.582500", "140540.072500", "140541.562500", "140543.052500", "140544.542500", "140546.032500", "140547.522500", "140549.012500", "140550.502500", "140551.992500", "140553.482500", "140554.972500", "140556.462500", "140557.952500", "140559.442500", "140600.932500", "140602.422500", "140603.912500", "140605.402500", "140606.892500", "140608.382500", "140609.872500", "140611.362500", "140612.852500", "140614.342500", "140615.832500", "140617.322500", "140618.812500", "140620.302500", "140621.792500", "140623.282500", "140624.772500", "140626.262500", "140627.752500", "140629.242500", "140630.732500", "140632.222500", "140633.712500", "140635.202500", "140636.692500", "140638.182500", "140639.672500", "140641.162500", "140642.652500", "140644.142500", "140645.632500", "140647.122500", "140648.612500", "140650.102500", "140651.592500", "140653.082500", "140654.572500", "140656.062500", "140657.552500", "140659.042500", "140700.532500", "140702.022500", "140703.512500", "140705.002500", "140706.492500", "140707.982500", "140709.472500", "140710.962500", "140712.452500", "140713.942500", "140715.432500", "140716.922500", "140718.412500", "140719.902500", "140721.392500", "140722.882500", "140724.372500", "140725.862500", "140727.352500", "140728.842500", "140730.332500", "140731.822500", "140733.312500", "140734.802500", "140736.292500", "140737.782500", "140739.272500", "140740.762500", "140742.252500", "140743.742500", "140745.232500", "140746.722500", "140748.212500", "140749.702500", "140751.192500", "140752.682500", "140754.172500", "140755.662500", "140757.152500", "140758.642500", "140800.132500", "140801.622500", "140803.112500", "140804.602500", "140806.092500", "140807.582500", "140809.072500", "140810.562500", "140812.052500", "140813.542500", "140815.032500", "140816.522500", "140818.012500", "140819.502500", "140820.992500", "140822.482500", "140823.972500", "140825.462500", "140826.952500", "140828.442500", "140829.932500", "140831.422500", "140832.912500", "140834.402500", "140835.892500", "140837.382500", "140838.872500", "140840.362500", "140841.852500", "140843.342500", "140844.832500", "140846.322500", "140847.812500", "140849.302500", "140850.792500", "140852.282500", "140853.772500", "140855.262500", "140856.752500", "140858.242500", "140859.732500", "140901.222500", "140902.712500", "140904.202500", "140905.692500", "140907.182500", "140908.672500", "140910.162500", "140911.652500", "140913.142500", "140914.632500", "140916.122500", "140917.612500", "140919.102500", "140920.592500", "140922.082500", "140923.572500", "140925.062500", "140926.552500", "140928.042500", "140929.532500", "140931.022500", "140932.512500", "140934.002500", "140935.492500", "140936.982500", "140938.472500", "140939.962500", "140941.452500", "140942.942500", "140944.432500", "140945.922500", "140947.412500", "140948.902500", "140950.392500", "140951.882500", "140953.372500", "140954.862500", "140956.352500", "140957.842500", "140959.332500", "141000.822500", "141002.312500", "141003.802500", "141005.292500", "141006.782500", "141008.272500", "141009.762500", "141011.252500", "141012.742500", "141014.232500", "141015.722500", "141017.212500", "141018.702500", "141020.192500", "141021.682500", "141023.172500", "141024.662500", "141026.152500", "141027.642500", "141029.132500", "141030.622500", "141032.112500", "141033.602500", "141035.092500", "141036.582500", "141038.072500", "141039.562500", "141041.052500", "141042.542500", "141044.032500", "141045.522500", "141047.012500", "141048.502500", "141049.992500", "141051.482500", "141052.972500", "141054.462500", "141055.952500", "141057.442500", "141058.932500", "141100.422500", "141101.912500", "141103.402500", "141104.892500", "141106.382500", "141107.872500", "141109.362500", "141110.852500", "141112.342500", "141113.832500", "141115.322500", "141116.812500", "141118.302500", "141119.792500", "141121.282500", "141122.772500", "141124.262500", "141125.752500", "141127.242500", "141128.732500", "141130.222500", "141131.712500", "141133.202500", "141134.692500", "141136.182500", "141137.672500", "141139.162500", "141140.652500", "141142.142500", "141143.632500", "141145.122500", "141146.612500", "141148.102500", "141149.592500", "141151.082500", "141152.572500", "141154.062500", "141155.552500", "141157.042500", "141158.532500", "141200.022500", "141201.512500", "141203.002500", "141204.492500", "141205.982500", "141207.472500", "141208.962500", "141210.452500", "141211.942500", "141213.432500", "141214.922500", "141216.412500", "141217.902500", "141219.392500", "141220.882500", "141222.372500", "141223.862500", "141225.352500", "141226.842500", "141228.332500", "141229.822500", "141231.312500", "141232.802500"],
      "ContentTime": ["140315.034000", "140315.036000", "140315.039000", "140315.041000", "140315.044000", "140315.046000", "140315.049000", "140315.052000", "140315.054000", "140315.057000", "140315.059000", "140315.062000", "140315.064000", "140315.067000", "140315.069000", "140315.072000", "140315.074000", "140315.077000", "140315.079000", "140315.082000", "140334.974000", "140334.976000", "140334.979000", "140334.981000", "140334.984000", "140334.986000", "140334.989000", "140334.992000", "140334.994000", "140334.997000", "140335.000000", "140335.003000", "140335.006000", "140335.008000", "140335.011000", "140335.013000", "140335.016000", "140335.027000", "140335.029000", "140335.032000", "140354.973000", "140354.975000", "140354.978000", "140354.981000", "140354.983000", "140354.986000", "140354.988000", "140354.991000", "140354.993000", "140354.996000", "140355.050000", "140355.053000", "140355.056000", "140355.058000", "140355.061000", "140355.063000", "140355.066000", "140355.068000", "140355.071000", "140355.074000", "140355.076000", "140414.960000", "140414.963000", "140414.966000", "140414.974000", "140414.977000", "140414.979000", "140414.982000", "140414.984000", "140414.987000", "140414.989000", "140414.992000", "140414.994000", "140414.997000", "140415.001000", "140415.003000", "140415.006000", "140415.008000", "140415.011000", "140415.013000", "140415.016000", "140455.026000", "140455.029000", "140455.031000", "140455.034000", "140455.037000", "140455.047000", "140455.049000", "140455.052000", "140455.054000", "140455.057000", "140455.060000", "140455.062000", "140455.065000", "140455.067000", "140455.070000", "140455.072000", "140455.075000", "140455.077000", "140455.080000", "140455.083000", "140455.085000", "140455.088000", "140455.090000", "140455.093000", "140455.095000", "140455.098000", "140455.101000", "140455.103000", "140455.106000", "140455.108000", "140455.111000", "140455.113000", "140535.028000", "140535.031000", "140535.034000", "140535.036000", "140535.039000", "140535.041000", "140535.044000", "140535.046000", "140535.059000", "140535.061000", "140535.064000", "140535.066000", "140535.069000", "140535.071000", "140535.074000", "140535.076000", "140535.079000", "140535.082000", "140535.084000", "140535.087000", "140535.089000", "140535.092000", "140535.095000", "140535.097000", "140535.100000", "140535.102000", "140535.105000", "140554.929000", "140554.932000", "140554.935000", "140554.937000", "140554.940000", "140554.942000", "140554.945000", "140554.947000", "140554.950000", "140554.952000", "140554.955000", "140554.958000", "140554.960000", "140635.011000", "140635.014000", "140635.017000", "140635.019000", "140635.022000", "140635.025000", "140635.027000", "140635.030000", "140635.032000", "140635.035000", "140635.037000", "140635.040000", "140635.042000", "140635.045000", "140635.048000", "140635.050000", "140635.053000", "140635.055000", "140635.058000", "140635.060000", "140635.063000", "140635.066000", "140635.068000", "140635.071000", "140635.073000", "140635.076000", "140635.078000", "140715.007000", "140715.010000", "140715.013000", "140715.015000", "140715.019000", "140715.021000", "140715.024000", "140715.027000", "140715.030000", "140715.032000", "140715.035000", "140715.037000", "140715.040000", "140715.042000", "140715.045000", "140715.048000", "140715.050000", "140715.053000", "140715.055000", "140715.058000", "140715.060000", "140715.063000", "140715.065000", "140715.068000", "140715.071000", "140715.073000", "140715.076000", "140755.022000", "140755.025000", "140755.027000", "140755.030000", "140755.033000", "140755.035000", "140755.038000", "140755.040000", "140755.043000", "140755.046000", "140755.048000", "140755.051000", "140755.053000", "140755.056000", "140755.058000", "140755.061000", "140755.064000", "140755.066000", "140755.069000", "140755.071000", "140755.074000", "140755.077000", "140755.079000", "140755.082000", "140755.084000", "140755.087000", "140755.090000", "140834.995000", "140834.998000", "140835.002000", "140835.004000", "140835.007000", "140835.009000", "140835.012000", "140835.015000", "140835.017000", "140835.020000", "140835.022000", "140835.025000", "140835.027000", "140835.030000", "140835.033000", "140835.035000", "140835.038000", "140835.040000", "140835.043000", "140835.045000", "140835.048000", "140835.051000", "140835.053000", "140835.056000", "140835.058000", "140835.061000", "140835.063000", "140915.414000", "140915.426000", "140915.429000", "140915.432000", "140915.435000", "140915.438000", "140915.441000", "140915.444000", "140915.446000", "140915.449000", "140915.452000", "140915.454000", "140915.457000", "140915.460000", "140915.462000", "140915.465000", "140915.467000", "140915.470000", "140915.473000", "140915.475000", "140915.478000", "140915.481000", "140915.483000", "140915.486000", "140915.489000", "140915.491000", "140915.494000", "140955.002000", "140955.004000", "140955.007000", "140955.009000", "140955.012000", "140955.026000", "140955.029000", "140955.033000", "140955.035000", "140955.038000", "140955.041000", "140955.044000", "140955.047000", "140955.049000", "140955.052000", "140955.055000", "140955.058000", "140955.060000", "140955.063000", "140955.065000", "140955.068000", "140955.071000", "140955.073000", "140955.076000", "140955.078000", "140955.081000", "141035.014000", "141035.017000", "141035.020000", "141035.022000", "141035.025000", "141035.027000", "141035.030000", "141035.032000", "141035.035000", "141035.047000", "141035.050000", "141035.052000", "141035.055000", "141035.058000", "141035.060000", "141035.063000", "141035.065000", "141035.068000", "141035.070000", "141035.073000", "141035.076000", "141035.078000", "141035.081000", "141035.083000", "141035.086000", "141035.088000", "141035.091000", "141115.018000", "141115.021000", "141115.023000", "141115.026000", "141115.028000", "141115.031000", "141115.033000", "141115.036000", "141115.039000", "141115.041000", "141115.044000", "141115.046000", "141115.049000", "141115.051000", "141115.054000", "141115.056000", "141115.059000", "141115.062000", "141115.064000", "141115.067000", "141115.069000", "141115.072000", "141115.074000", "141115.077000", "141115.080000", "141115.082000", "141115.085000", "141154.996000", "141155.000000", "141155.003000", "141155.005000", "141155.008000", "141155.010000", "141155.013000", "141155.015000", "141155.018000", "141155.021000", "141155.023000", "141155.026000", "141155.028000", "141155.031000", "141155.034000", "141155.036000", "141155.039000", "141155.041000", "141155.044000", "141155.047000", "141155.049000", "141155.052000", "141155.054000", "141155.057000", "141155.059000", "141155.062000", "141155.065000", "141235.016000", "141235.019000", "141235.023000", "141235.025000", "141235.028000", "141235.030000", "141235.033000", "141235.035000", "141235.038000", "141235.041000", "141235.043000", "141235.046000", "141235.048000", "141235.051000", "141235.053000", "141235.056000", "141235.059000", "141235.061000", "141235.065000", "141235.072000", "141235.080000", "141235.083000", "141235.086000", "141235.089000", "141235.093000", "141235.095000", "141235.098000"],
      "InstanceCreationTime": ["140315.034000", "140315.036000", "140315.039000", "140315.041000", "140315.044000", "140315.046000", "140315.049000", "140315.052000", "140315.054000", "140315.057000", "140315.059000", "140315.062000", "140315.064000", "140315.067000", "140315.069000", "140315.072000", "140315.074000", "140315.077000", "140315.079000", "140315.082000", "140334.974000", "140334.976000", "140334.979000", "140334.981000", "140334.984000", "140334.986000", "140334.989000", "140334.992000", "140334.994000", "140334.997000", "140335.000000", "140335.003000", "140335.006000", "140335.008000", "140335.011000", "140335.013000", "140335.016000", "140335.027000", "140335.029000", "140335.032000", "140354.973000", "140354.975000", "140354.978000", "140354.981000", "140354.983000", "140354.986000", "140354.988000", "140354.991000", "140354.993000", "140354.996000", "140355.050000", "140355.053000", "140355.056000", "140355.058000", "140355.061000", "140355.063000", "140355.066000", "140355.068000", "140355.071000", "140355.074000", "140355.076000", "140414.960000", "140414.963000", "140414.966000", "140414.974000", "140414.977000", "140414.979000", "140414.982000", "140414.984000", "140414.987000", "140414.989000", "140414.992000", "140414.994000", "140414.997000", "140415.001000", "140415.003000", "140415.006000", "140415.008000", "140415.011000", "140415.013000", "140415.016000", "140455.026000", "140455.029000", "140455.031000", "140455.034000", "140455.037000", "140455.047000", "140455.049000", "140455.052000", "140455.054000", "140455.057000", "140455.060000", "140455.062000", "140455.065000", "140455.067000", "140455.070000", "140455.072000", "140455.075000", "140455.077000", "140455.080000", "140455.083000", "140455.085000", "140455.088000", "140455.090000", "140455.093000", "140455.095000", "140455.098000", "140455.101000", "140455.103000", "140455.106000", "140455.108000", "140455.111000", "140455.113000", "140535.028000", "140535.031000", "140535.034000", "140535.036000", "140535.039000", "140535.041000", "140535.044000", "140535.046000", "140535.059000", "140535.061000", "140535.064000", "140535.066000", "140535.069000", "140535.071000", "140535.074000", "140535.076000", "140535.079000", "140535.082000", "140535.084000", "140535.087000", "140535.089000", "140535.092000", "140535.095000", "140535.097000", "140535.100000", "140535.102000", "140535.105000", "140554.929000", "140554.932000", "140554.935000", "140554.937000", "140554.940000", "140554.942000", "140554.945000", "140554.947000", "140554.950000", "140554.952000", "140554.955000", "140554.958000", "140554.960000", "140635.011000", "140635.014000", "140635.017000", "140635.019000", "140635.022000", "140635.025000", "140635.027000", "140635.030000", "140635.032000", "140635.035000", "140635.037000", "140635.040000", "140635.042000", "140635.045000", "140635.048000", "140635.050000", "140635.053000", "140635.055000", "140635.058000", "140635.060000", "140635.063000", "140635.066000", "140635.068000", "140635.071000", "140635.073000", "140635.076000", "140635.078000", "140715.007000", "140715.010000", "140715.013000", "140715.015000", "140715.019000", "140715.021000", "140715.024000", "140715.027000", "140715.030000", "140715.032000", "140715.035000", "140715.037000", "140715.040000", "140715.042000", "140715.045000", "140715.048000", "140715.050000", "140715.053000", "140715.055000", "140715.058000", "140715.060000", "140715.063000", "140715.065000", "140715.068000", "140715.071000", "140715.073000", "140715.076000", "140755.022000", "140755.025000", "140755.027000", "140755.030000", "140755.033000", "140755.035000", "140755.038000", "140755.040000", "140755.043000", "140755.046000", "140755.048000", "140755.051000", "140755.053000", "140755.056000", "140755.058000", "140755.061000", "140755.064000", "140755.066000", "140755.069000", "140755.071000", "140755.074000", "140755.077000", "140755.079000", "140755.082000", "140755.084000", "140755.087000", "140755.090000", "140834.995000", "140834.998000", "140835.002000", "140835.004000", "140835.007000", "140835.009000", "140835.012000", "140835.015000", "140835.017000", "140835.020000", "140835.022000", "140835.025000", "140835.027000", "140835.030000", "140835.033000", "140835.035000", "140835.038000", "140835.040000", "140835.043000", "140835.045000", "140835.048000", "140835.051000", "140835.053000", "140835.056000", "140835.058000", "140835.061000", "140835.063000", "140915.414000", "140915.426000", "140915.429000", "140915.432000", "140915.435000", "140915.438000", "140915.441000", "140915.444000", "140915.446000", "140915.449000", "140915.452000", "140915.454000", "140915.457000", "140915.460000", "140915.462000", "140915.465000", "140915.467000", "140915.470000", "140915.473000", "140915.475000", "140915.478000", "140915.481000", "140915.483000", "140915.486000", "140915.489000", "140915.491000", "140915.494000", "140955.002000", "140955.004000", "140955.007000", "140955.009000", "140955.012000", "140955.026000", "140955.029000", "140955.033000", "140955.035000", "140955.038000", "140955.041000", "140955.044000", "140955.047000", "140955.049000", "140955.052000", "140955.055000", "140955.058000", "140955.060000", "140955.063000", "140955.065000", "140955.068000", "140955.071000", "140955.073000", "140955.076000", "140955.078000", "140955.081000", "141035.014000", "141035.017000", "141035.020000", "141035.022000", "141035.025000", "141035.027000", "141035.030000", "141035.032000", "141035.035000", "141035.047000", "141035.050000", "141035.052000", "141035.055000", "141035.058000", "141035.060000", "141035.063000", "141035.065000", "141035.068000", "141035.070000", "141035.073000", "141035.076000", "141035.078000", "141035.081000", "141035.083000", "141035.086000", "141035.088000", "141035.091000", "141115.018000", "141115.021000", "141115.023000", "141115.026000", "141115.028000", "141115.031000", "141115.033000", "141115.036000", "141115.039000", "141115.041000", "141115.044000", "141115.046000", "141115.049000", "141115.051000", "141115.054000", "141115.056000", "141115.059000", "141115.062000", "141115.064000", "141115.067000", "141115.069000", "141115.072000", "141115.074000", "141115.077000", "141115.080000", "141115.082000", "141115.085000", "141154.996000", "141155.000000", "141155.003000", "141155.005000", "141155.008000", "141155.010000", "141155.013000", "141155.015000", "141155.018000", "141155.021000", "141155.023000", "141155.026000", "141155.028000", "141155.031000", "141155.034000", "141155.036000", "141155.039000", "141155.041000", "141155.044000", "141155.047000", "141155.049000", "141155.052000", "141155.054000", "141155.057000", "141155.059000", "141155.062000", "141155.065000", "141235.016000", "141235.019000", "141235.023000", "141235.025000", "141235.028000", "141235.030000", "141235.033000", "141235.035000", "141235.038000", "141235.041000", "141235.043000", "141235.046000", "141235.048000", "141235.051000", "141235.053000", "141235.056000", "141235.059000", "141235.061000", "141235.065000", "141235.072000", "141235.080000", "141235.083000", "141235.086000", "141235.089000", "141235.093000", "141235.095000", "141235.098000"],
