{
  "AcquisitionMatrixPE": 104,
  "AcquisitionNumber": 1,
  "AcquisitionTime": "17:31:16.290000",
  "BandwidthPerPixelPhaseEncode": 17.17,
  "BaseResolution": 104,
  "BodyPartExamined": "BRAIN",
  "CoilCombinationMethod": "Sum of Squares",
  "ConsistencyInfo": "N4_VE11C_LATEST_20160120",
  "ConversionSoftware": "dcm2niix",
  "ConversionSoftwareVersion": "v1.0.20220505",
  "DerivedVendorReportedEchoSpacing": 0.000560011,
  "DeviceSerialNumber": "167006",
  "DwellTime": 2.1e-06,
  "EchoTime": 0.037,
  "EchoTrainLength": 104,
  "EffectiveEchoSpacing": 0.000560011,
  "FlipAngle": 52,
  "HeudiconvVersion": "0.5.3.post811+g6206e14",
  "ImageComments": "Unaliased MB4/PE3/LB",
  "ImageOrientationPatientDICOM": [0.999785, -0.0206866, -0.00154093, 0.0184986, 0.92272, -0.385027],
  "ImageOrientationText": "Tra>Cor(-22.6)>Sag(-0.5)",
  "ImageType": [
    "ORIGINAL",
    "PRIMARY",
    "M",
    "MB",
    "ND",
    "MOSAIC"
],
  "ImagingFrequency": 123.26,
  "InPlanePhaseEncodingDirectionDICOM": "COL",
  "InstitutionAddress": "Chemin Queen-Mary 4565,Montreal,District,CA,H3W 1W5",
  "InstitutionName": "IUGM",
  "InstitutionalDepartmentName": "Department",
  "MRAcquisitionType": "2D",
  "MagneticFieldStrength": 3,
  "Manufacturer": "Siemens",
  "ManufacturersModelName": "Prisma_fit",
  "MatrixCoilMode": "SENSE",
  "Modality": "MR",
  "MultibandAccelerationFactor": 4,
  "PartialFourier": 1,
  "PatientPosition": "HFS",
  "PercentPhaseFOV": 100,
  "PercentSampling": 100,
  "PhaseEncodingDirection": "j",
  "PhaseEncodingSteps": 104,
  "PhaseResolution": 1,
  "PixelBandwidth": 2290,
  "ProcedureStepDescription": "games^mariostars",
  "ProtocolName": "func_task-mariostars_run-01",
  "PulseSequenceDetails": "%CustomerSeq%\\cmrr_mbep2d_bold",
  "ReceiveCoilActiveElements": "HC1-7;NC1,2",
  "ReceiveCoilName": "HeadNeck_64",
  "ReconMatrixPE": 104,
  "RepetitionTime": 1.49,
  "SAR": 0.0595901,
  "ScanOptions": "FS",
  "ScanningSequence": "EP",
  "SequenceName": "epfid2d1_104",
  "SequenceVariant": "SK\\SS",
  "SeriesDescription": "func_task-mariostars_run-01",
  "SeriesNumber": 11,
  "ShimSetting": [602, -7255, -8824, 440, 20, -324, -26, 30],
  "SliceThickness": 2,
  "SliceTiming": [0, 0.7825, 0.0975, 0.88, 0.195, 0.9775, 0.2925, 1.0775, 0.39, 1.175, 0.4875, 1.2725, 0.5875, 1.37, 0.685, 0, 0.7825, 0.0975, 0.88, 0.195, 0.9775, 0.2925, 1.0775, 0.39, 1.175, 0.4875, 1.2725, 0.5875, 1.37, 0.685, 0, 0.7825, 0.0975, 0.88, 0.195, 0.9775, 0.2925, 1.0775, 0.39, 1.175, 0.4875, 1.2725, 0.5875, 1.37, 0.685, 0, 0.7825, 0.0975, 0.88, 0.195, 0.9775, 0.2925, 1.0775, 0.39, 1.175, 0.4875, 1.2725, 0.5875, 1.37, 0.685],
  "SoftwareVersions": "syngo MR E11",
  "SpacingBetweenSlices": 2,
  "StationName": "MRC35049",
  "TaskName": "mariostars",
  "TotalReadoutTime": 0.0576811,
  "TxRefAmp": 267.892,
  "WipMemBlock": "95c60acf-61b2-459d-99e2-d79a914b6072||Sequence: R017 ve11c/master r/75a17815+; Jun 28 2022 16:32:11 by eja",
  "dcmmeta_affine": [
    [-1.9995696544647217, 0.03699727728962898, -0.018773529678583145, 101.84754943847656],
    [0.041373252868652344, 1.8454394340515137, -0.7698321342468262, -66.55876922607422],
    [-0.0030818600207567215, 0.7700548768043518, 1.845807671546936, -62.56386947631836],
    [0.0, 0.0, 0.0, 1.0]
],
  "dcmmeta_reorient_transform": [
    [0.0, -1.0, 0.0, 103.0],
    [1.0, 0.0, 0.0, 0.0],
    [0.0, 0.0, 1.0, 0.0],
    [0.0, 0.0, 0.0, 1.0]
],
  "dcmmeta_shape": [104, 104, 60, 513],
  "dcmmeta_slice_dim": 2,
  "dcmmeta_version": 0.6,
  "global": {
    "const": {
      "AcquisitionMatrix": [104, 0, 0, 104],
      "AngioFlag": "N",
      "BitsAllocated": 16,
      "BitsStored": 16,
      "BodyPartExamined": "BRAIN",
      "Columns": 832,
      "EchoNumbers": 1,
      "EchoTime": 37.0,
      "EchoTrainLength": 104,
      "FlipAngle": 52.0,
      "HighBit": 15,
      "ImageOrientationPatient": [0.99978482134791, -0.0206866270116, -0.0015409299793, 0.01849863881403, 0.92271971677343, -0.3850274336195],
      "ImagePositionPatient": [-846.96862608034, -780.20157935735, 298.1735521439],
      "ImageType": [
        "ORIGINAL",
        "PRIMARY",
        "M",
        "MB",
        "ND",
        "MOSAIC"
],
      "ImagedNucleus": "1H",
      "ImagingFrequency": 123.260228,
      "InPlanePhaseEncodingDirection": "COL",
      "MRAcquisitionType": "2D",
      "MagneticFieldStrength": 3.0,
      "Manufacturer": "SIEMENS",
      "ManufacturerModelName": "Prisma_fit",
      "Modality": "MR",
      "NumberOfAverages": 1.0,
      "NumberOfPhaseEncodingSteps": 104,
      "PercentPhaseFieldOfView": 100.0,
      "PercentSampling": 100.0,
      "PerformedProcedureStepStartTime": "170720.661000",
      "PhotometricInterpretation": "MONOCHROME2",
      "PixelBandwidth": 2290.0,
      "PixelRepresentation": 0,
      "PixelSpacing": [2.0, 2.0],
      "ProtocolName": "func_task-mariostars_run-01",
      "RepetitionTime": 1490.0,
      "Rows": 832,
      "SAR": 0.05959008934377,
      "SamplesPerPixel": 1,
      "ScanOptions": "FS",
      "ScanningSequence": "EP",
      "SequenceName": "epfid2d1_104",
      "SequenceVariant": [
        "SK",
        "SS"
],
      "SeriesDescription": "func_task-mariostars_run-01",
      "SeriesNumber": 11,
      "SeriesTime": "173234.071000",
      "SliceLocation": -33.07691165514,
      "SliceThickness": 2.0,
      "SmallestImagePixelValue": 0,
      "SoftwareVersions": "syngo MR E11",
      "SpacingBetweenSlices": 1.9999999616502,
      "SpecificCharacterSet": "ISO_IR 100",
      "StudyID": "1",
      "StudyTime": "170720.587000",
      "TransmitCoilName": "Body",
      "VariableFlipAngleFlag": "N",
      "WindowCenterWidthExplanation": "Algo1",
      "dBdt": 0.0},
    "slices": {}
  },
  "time": {
    "samples": {
      "AcquisitionNumber": [1, 2, 3, 4, 5, 6, 7, 8, 9, 10, 11, 12, 13, 14, 15, 16, 17, 18, 19, 20, 21, 22, 23, 24, 25, 26, 27, 28, 29, 30, 31, 32, 33, 34, 35, 36, 37, 38, 39, 40, 41, 42, 43, 44, 45, 46, 47, 48, 49, 50, 51, 52, 53, 54, 55, 56, 57, 58, 59, 60, 61, 62, 63, 64, 65, 66, 67, 68, 69, 70, 71, 72, 73, 74, 75, 76, 77, 78, 79, 80, 81, 82, 83, 84, 85, 86, 87, 88, 89, 90, 91, 92, 93, 94, 95, 96, 97, 98, 99, 100, 101, 102, 103, 104, 105, 106, 107, 108, 109, 110, 111, 112, 113, 114, 115, 116, 117, 118, 119, 120, 121, 122, 123, 124, 125, 126, 127, 128, 129, 130, 131, 132, 133, 134, 135, 136, 137, 138, 139, 140, 141, 142, 143, 144, 145, 146, 147, 148, 149, 150, 151, 152, 153, 154, 155, 156, 157, 158, 159, 160, 161, 162, 163, 164, 165, 166, 167, 168, 169, 170, 171, 172, 173, 174, 175, 176, 177, 178, 179, 180, 181, 182, 183, 184, 185, 186, 187, 188, 189, 190, 191, 192, 193, 194, 195, 196, 197, 198, 199, 200, 201, 202, 203, 204, 205, 206, 207, 208, 209, 210, 211, 212, 213, 214, 215, 216, 217, 218, 219, 220, 221, 222, 223, 224, 225, 226, 227, 228, 229, 230, 231, 232, 233, 234, 235, 236, 237, 238, 239, 240, 241, 242, 243, 244, 245, 246, 247, 248, 249, 250, 251, 252, 253, 254, 255, 256, 257, 258, 259, 260, 261, 262, 263, 264, 265, 266, 267, 268, 269, 270, 271, 272, 273, 274, 275, 276, 277, 278, 279, 280, 281, 282, 283, 284, 285, 286, 287, 288, 289, 290, 291, 292, 293, 294, 295, 296, 297, 298, 299, 300, 301, 302, 303, 304, 305, 306, 307, 308, 309, 310, 311, 312, 313, 314, 315, 316, 317, 318, 319, 320, 321, 322, 323, 324, 325, 326, 327, 328, 329, 330, 331, 332, 333, 334, 335, 336, 337, 338, 339, 340, 341, 342, 343, 344, 345, 346, 347, 348, 349, 350, 351, 352, 353, 354, 355, 356, 357, 358, 359, 360, 361, 362, 363, 364, 365, 366, 367, 368, 369, 370, 371, 372, 373, 374, 375, 376, 377, 378, 379, 380, 381, 382, 383, 384, 385, 386, 387, 388, 389, 390, 391, 392, 393, 394, 395, 396, 397, 398, 399, 400, 401, 402, 403, 404, 405, 406, 407, 408, 409, 410, 411, 412, 413, 414, 415, 416, 417, 418, 419, 420, 421, 422, 423, 424, 425, 426, 427, 428, 429, 430, 431, 432, 433, 434, 435, 436, 437, 438, 439, 440, 441, 442, 443, 444, 445, 446, 447, 448, 449, 450, 451, 452, 453, 454, 455, 456, 457, 458, 459, 460, 461, 462, 463, 464, 465, 466, 467, 468, 469, 470, 471, 472, 473, 474, 475, 476, 477, 478, 479, 480, 481, 482, 483, 484, 485, 486, 487, 488, 489, 490, 491, 492, 493, 494, 495, 496, 497, 498, 499, 500, 501, 502, 503, 504, 505, 506, 507, 508, 509, 510, 511, 512, 513],
      "AcquisitionTime": ["173116.290000", "173117.780000", "173119.270000", "173120.760000", "173122.250000", "173123.740000", "173125.230000", "173126.720000", "173128.210000", "173129.700000", "173131.190000", "173132.680000", "173134.170000", "173135.660000", "173137.150000", "173138.640000", "173140.130000", "173141.620000", "173143.110000", "173144.600000", "173146.090000", "173147.580000", "173149.070000", "173150.560000", "173152.050000", "173153.540000", "173155.030000", "173156.520000", "173158.010000", "173159.500000", "173200.990000", "173202.480000", "173203.970000", "173205.460000", "173206.950000", "173208.440000", "173209.930000", "173211.420000", "173212.910000", "173214.400000", "173215.890000", "173217.380000", "173218.870000", "173220.360000", "173221.850000", "173223.340000", "173224.830000", "173226.320000", "173227.810000", "173229.300000", "173230.790000", "173232.280000", "173233.770000", "173235.260000", "173236.750000", "173238.240000", "173239.730000", "173241.220000", "173242.710000", "173244.200000", "173245.690000", "173247.180000", "173248.670000", "173250.160000", "173251.650000", "173253.140000", "173254.630000", "173256.120000", "173257.610000", "173259.100000", "173300.590000", "173302.080000", "173303.570000", "173305.060000", "173306.550000", "173308.040000", "173309.530000", "173311.020000", "173312.510000", "173314.000000", "173315.490000", "173316.980000", "173318.470000", "173319.960000", "173321.450000", "173322.940000", "173324.430000", "173325.920000", "173327.410000", "173328.900000", "173330.390000", "173331.880000", "173333.370000", "173334.860000", "173336.350000", "173337.840000", "173339.330000", "173340.820000", "173342.310000", "173343.800000", "173345.290000", "173346.780000", "173348.270000", "173349.760000", "173351.250000", "173352.740000", "173354.230000", "173355.720000", "173357.210000", "173358.700000", "173400.190000", "173401.680000", "173403.170000", "173404.660000", "173406.150000", "173407.640000", "173409.130000", "173410.620000", "173412.110000", "173413.600000", "173415.090000", "173416.580000", "173418.070000", "173419.560000", "173421.050000", "173422.540000", "173424.030000", "173425.520000", "173427.010000", "173428.500000", "173429.990000", "173431.480000", "173432.970000", "173434.460000", "173435.950000", "173437.440000", "173438.930000", "173440.420000", "173441.910000", "173443.400000", "173444.890000", "173446.380000", "173447.870000", "173449.360000", "173450.850000", "173452.340000", "173453.830000", "173455.320000", "173456.810000", "173458.300000", "173459.790000", "173501.280000", "173502.770000", "173504.260000", "173505.750000", "173507.240000", "173508.730000", "173510.220000", "173511.710000", "173513.200000", "173514.690000", "173516.180000", "173517.670000", "173519.160000", "173520.650000", "173522.140000", "173523.630000", "173525.120000", "173526.610000", "173528.100000", "173529.590000", "173531.080000", "173532.570000", "173534.060000", "173535.550000", "173537.040000", "173538.530000", "173540.020000", "173541.510000", "173543.000000", "173544.490000", "173545.980000", "173547.470000", "173548.960000", "173550.450000", "173551.940000", "173553.430000", "173554.920000", "173556.410000", "173557.900000", "173559.390000", "173600.880000", "173602.370000", "173603.860000", "173605.350000", "173606.840000", "173608.330000", "173609.820000", "173611.310000", "173612.800000", "173614.290000", "173615.780000", "173617.270000", "173618.760000", "173620.250000", "173621.740000", "173623.230000", "173624.720000", "173626.210000", "173627.700000", "173629.190000", "173630.680000", "173632.170000", "173633.660000", "173635.150000", "173636.640000", "173638.130000", "173639.620000", "173641.110000", "173642.600000", "173644.090000", "173645.580000", "173647.070000", "173648.560000", "173650.050000", "173651.540000", "173653.030000", "173654.520000", "173656.010000", "173657.500000", "173658.990000", "173700.480000", "173701.970000", "173703.460000", "173704.950000", "173706.440000", "173707.930000", "173709.420000", "173710.910000", "173712.400000", "173713.890000", "173715.380000", "173716.870000", "173718.360000", "173719.850000", "173721.340000", "173722.830000", "173724.320000", "173725.810000", "173727.300000", "173728.790000", "173730.280000", "173731.770000", "173733.260000", "173734.750000", "173736.240000", "173737.730000", "173739.220000", "173740.710000", "173742.200000", "173743.690000", "173745.180000", "173746.670000", "173748.160000", "173749.650000", "173751.140000", "173752.630000", "173754.120000", "173755.610000", "173757.100000", "173758.590000", "173800.080000", "173801.570000", "173803.060000", "173804.550000", "173806.040000", "173807.530000", "173809.020000", "173810.510000", "173812.000000", "173813.490000", "173814.980000", "173816.470000", "173817.960000", "173819.450000", "173820.940000", "173822.430000", "173823.920000", "173825.410000", "173826.900000", "173828.390000", "173829.880000", "173831.370000", "173832.860000", "173834.350000", "173835.840000", "173837.330000", "173838.820000", "173840.310000", "173841.800000", "173843.290000", "173844.780000", "173846.270000", "173847.760000", "173849.250000", "173850.740000", "173852.230000", "173853.720000", "173855.210000", "173856.700000", "173858.190000", "173859.680000", "173901.170000", "173902.660000", "173904.150000", "173905.640000", "173907.130000", "173908.620000", "173910.110000", "173911.600000", "173913.090000", "173914.580000", "173916.070000", "173917.560000", "173919.050000", "173920.540000", "173922.030000", "173923.520000", "173925.010000", "173926.500000", "173927.990000", "173929.480000", "173930.970000", "173932.460000", "173933.950000", "173935.440000", "173936.930000", "173938.420000", "173939.910000", "173941.400000", "173942.890000", "173944.380000", "173945.870000", "173947.360000", "173948.850000", "173950.340000", "173951.830000", "173953.320000", "173954.810000", "173956.300000", "173957.790000", "173959.280000", "174000.770000", "174002.260000", "174003.750000", "174005.240000", "174006.730000", "174008.220000", "174009.710000", "174011.200000", "174012.690000", "174014.180000", "174015.670000", "174017.160000", "174018.650000", "174020.140000", "174021.630000", "174023.120000", "174024.610000", "174026.100000", "174027.590000", "174029.080000", "174030.570000", "174032.060000", "174033.550000", "174035.040000", "174036.530000", "174038.020000", "174039.510000", "174041.000000", "174042.490000", "174043.980000", "174045.470000", "174046.960000", "174048.450000", "174049.940000", "174051.430000", "174052.920000", "174054.410000", "174055.900000", "174057.390000", "174058.880000", "174100.370000", "174101.860000", "174103.350000", "174104.840000", "174106.330000", "174107.820000", "174109.310000", "174110.800000", "174112.290000", "174113.780000", "174115.270000", "174116.760000", "174118.250000", "174119.740000", "174121.230000", "174122.720000", "174124.210000", "174125.700000", "174127.190000", "174128.680000", "174130.170000", "174131.660000", "174133.150000", "174134.640000", "174136.130000", "174137.620000", "174139.110000", "174140.600000", "174142.090000", "174143.580000", "174145.070000", "174146.560000", "174148.050000", "174149.540000", "174151.030000", "174152.520000", "174154.010000", "174155.500000", "174156.990000", "174158.480000", "174159.970000", "174201.460000", "174202.950000", "174204.440000", "174205.930000", "174207.420000", "174208.910000", "174210.400000", "174211.890000", "174213.380000", "174214.870000", "174216.360000", "174217.850000", "174219.340000", "174220.830000", "174222.320000", "174223.810000", "174225.300000", "174226.790000", "174228.280000", "174229.770000", "174231.260000", "174232.750000", "174234.240000", "174235.730000", "174237.220000", "174238.710000", "174240.200000", "174241.690000", "174243.180000", "174244.670000", "174246.160000", "174247.650000", "174249.140000", "174250.630000", "174252.120000", "174253.610000", "174255.100000", "174256.590000", "174258.080000", "174259.570000", "174301.060000", "174302.550000", "174304.040000", "174305.530000", "174307.020000", "174308.510000", "174310.000000", "174311.490000", "174312.980000", "174314.470000", "174315.960000", "174317.450000", "174318.940000", "174320.430000", "174321.920000", "174323.410000", "174324.900000", "174326.390000", "174327.880000", "174329.370000", "174330.860000", "174332.350000", "174333.840000", "174335.330000", "174336.820000", "174338.310000", "174339.800000", "174341.290000", "174342.780000", "174344.270000", "174345.760000", "174347.250000", "174348.740000", "174350.230000", "174351.720000", "174353.210000", "174354.700000", "174356.190000", "174357.680000", "174359.170000"],
      "ContentTime": ["173234.074000", "173234.078000", "173234.082000", "173234.085000", "173234.089000", "173234.094000", "173234.098000", "173234.101000", "173234.105000", "173234.108000", "173234.111000", "173234.115000", "173234.119000", "173234.122000", "173234.125000", "173234.128000", "173234.131000", "173234.154000", "173234.157000", "173234.161000", "173234.164000", "173234.167000", "173234.171000", "173234.174000", "173234.177000", "173234.180000", "173234.184000", "173234.187000", "173234.190000", "173234.193000", "173254.041000", "173254.045000", "173254.052000", "173254.055000", "173254.058000", "173254.062000", "173254.065000", "173254.068000", "173254.072000", "173254.075000", "173254.078000", "173254.081000", "173254.084000", "173254.088000", "173254.091000", "173254.094000", "173254.097000", "173254.101000", "173254.104000", "173254.107000", "173254.110000", "173314.041000", "173314.045000", "173314.048000", "173314.057000", "173314.060000", "173314.063000", "173314.066000", "173314.070000", "173314.073000", "173314.076000", "173314.079000", "173314.086000", "173314.090000", "173314.093000", "173314.096000", "173314.100000", "173314.103000", "173314.106000", "173314.110000", "173314.113000", "173334.041000", "173334.045000", "173334.048000", "173334.051000", "173334.055000", "173334.058000", "173334.061000", "173334.065000", "173334.068000", "173334.071000", "173334.074000", "173334.078000", "173334.081000", "173334.084000", "173334.088000", "173334.091000", "173334.095000", "173334.098000", "173334.101000", "173334.104000", "173414.040000", "173414.044000", "173414.047000", "173414.050000", "173414.054000", "173414.057000", "173414.060000", "173414.063000", "173414.067000", "173414.070000", "173414.074000", "173414.077000", "173414.080000", "173414.084000", "173414.087000", "173414.090000", "173414.094000", "173414.097000", "173414.100000", "173414.103000", "173414.106000", "173414.110000", "173414.113000", "173414.116000", "173414.120000", "173414.123000", "173414.126000", "173454.040000", "173454.044000", "173454.053000", "173454.057000", "173454.060000", "173454.063000", "173454.066000", "173454.070000", "173454.073000", "173454.076000", "173454.080000", "173454.083000", "173454.086000", "173454.089000", "173454.093000", "173454.096000", "173454.099000", "173454.103000", "173454.106000", "173454.109000", "173454.113000", "173454.116000", "173454.119000", "173454.123000", "173454.126000", "173454.129000", "173454.133000", "173534.041000", "173534.045000", "173534.048000", "173534.051000", "173534.055000", "173534.058000", "173534.061000", "173534.064000", "173534.068000", "173534.071000", "173534.074000", "173534.077000", "173534.081000", "173534.084000", "173534.087000", "173534.090000", "173534.094000", "173534.097000", "173534.100000", "173534.104000", "173534.107000", "173534.110000", "173534.113000", "173534.117000", "173534.120000", "173534.123000", "173534.140000", "173614.040000", "173614.044000", "173614.047000", "173614.050000", "173614.054000", "173614.057000", "173614.060000", "173614.063000", "173614.066000", "173614.070000", "173614.073000", "173614.076000", "173614.079000", "173614.083000", "173614.086000", "173614.089000", "173614.092000", "173614.096000", "173614.099000", "173614.102000", "173614.106000", "173614.109000", "173614.112000", "173614.115000", "173614.118000", "173614.122000", "173614.125000", "173654.040000", "173654.044000", "173654.047000", "173654.050000", "173654.054000", "173654.057000", "173654.060000", "173654.064000", "173654.067000", "173654.070000", "173654.073000", "173654.077000", "173654.080000", "173654.083000", "173654.086000", "173654.090000", "173654.093000", "173654.096000", "173654.099000", "173654.103000", "173654.106000", "173654.109000", "173654.112000", "173654.116000", "173654.119000", "173654.122000", "173654.126000", "173734.041000", "173734.045000", "173734.048000", "173734.051000", "173734.054000", "173734.058000", "173734.061000", "173734.064000", "173734.068000", "173734.071000", "173734.074000", "173734.077000", "173734.081000", "173734.084000", "173734.087000", "173734.090000", "173734.094000", "173734.097000", "173734.100000", "173734.104000", "173734.107000", "173734.110000", "173734.113000", "173734.117000", "173734.120000", "173734.123000", "173734.126000", "173814.042000", "173814.045000", "173814.048000", "173814.052000", "173814.055000", "173814.058000", "173814.061000", "173814.076000", "173814.079000", "173814.082000", "173814.086000", "173814.089000", "173814.092000", "173814.095000", "173814.099000", "173814.102000", "173814.105000", "173814.109000", "173814.112000", "173814.115000", "173814.118000", "173814.122000", "173814.125000", "173814.128000", "173814.132000", "173814.135000", "173854.040000", "173854.044000", "173854.047000", "173854.050000", "173854.054000", "173854.057000", "173854.060000", "173854.063000", "173854.067000", "173854.070000", "173854.073000", "173854.076000", "173854.080000", "173854.083000", "173854.086000", "173854.089000", "173854.093000", "173854.096000", "173854.099000", "173854.102000", "173854.106000", "173854.109000", "173854.112000", "173854.116000", "173854.119000", "173854.122000", "173854.125000", "173934.040000", "173934.044000", "173934.047000", "173934.051000", "173934.054000", "173934.057000", "173934.061000", "173934.064000", "173934.067000", "173934.071000", "173934.074000", "173934.077000", "173934.080000", "173934.084000", "173934.087000", "173934.090000", "173934.093000", "173934.097000", "173934.100000", "173934.103000", "173934.106000", "173934.110000", "173934.113000", "173934.116000", "173934.120000", "173934.123000", "173934.126000", "174014.041000", "174014.045000", "174014.048000", "174014.051000", "174014.055000", "174014.058000", "174014.061000", "174014.065000", "174014.068000", "174014.071000", "174014.074000", "174014.078000", "174014.081000", "174014.084000", "174014.088000", "174014.091000", "174014.094000", "174014.097000", "174014.101000", "174014.104000", "174014.119000", "174014.122000", "174014.126000", "174014.129000", "174014.132000", "174014.136000", "174014.139000", "174054.040000", "174054.044000", "174054.047000", "174054.050000", "174054.054000", "174054.057000", "174054.061000", "174054.064000", "174054.067000", "174054.071000", "174054.074000", "174054.077000", "174054.081000", "174054.084000", "174054.087000", "174054.092000", "174054.095000", "174054.098000", "174054.102000", "174054.105000", "174054.108000", "174054.111000", "174054.115000", "174054.118000", "174054.121000", "174054.124000", "174054.128000", "174134.040000", "174134.044000", "174134.047000", "174134.050000", "174134.054000", "174134.057000", "174134.060000", "174134.064000", "174134.067000", "174134.070000", "174134.073000", "174134.077000", "174134.080000", "174134.083000", "174134.086000", "174134.090000", "174134.093000", "174134.096000", "174134.099000", "174134.103000", "174134.106000", "174134.109000", "174134.112000", "174134.116000", "174134.119000", "174134.122000", "174134.126000", "174214.042000", "174214.046000", "174214.049000", "174214.053000", "174214.056000", "174214.060000", "174214.063000", "174214.066000", "174214.070000", "174214.073000", "174214.076000", "174214.079000", "174214.083000", "174214.086000", "174214.089000", "174214.093000", "174214.096000", "174214.099000", "174214.102000", "174214.106000", "174214.109000", "174214.112000", "174214.115000", "174214.119000", "174214.122000", "174214.125000", "174254.041000", "174254.045000", "174254.048000", "174254.052000", "174254.055000", "174254.058000", "174254.069000", "174254.072000", "174254.075000", "174254.079000", "174254.082000", "174254.085000", "174254.089000", "174254.092000", "174254.095000", "174254.099000", "174254.102000", "174254.105000", "174254.109000", "174254.112000", "174254.116000", "174254.119000", "174254.122000", "174254.126000", "174254.129000", "174254.133000", "174254.136000", "174334.040000", "174334.044000", "174334.047000", "174334.051000", "174334.054000", "174334.057000", "174334.060000", "174334.064000", "174334.067000", "174334.071000", "174334.074000", "174334.077000", "174334.080000", "174334.084000", "174334.087000", "174334.090000", "174334.093000", "174334.097000", "174334.100000", "174334.103000", "174334.106000", "174334.110000", "174334.113000", "174334.116000", "174334.120000", "174334.123000", "174334.126000", "174402.343000", "174402.347000", "174402.350000", "174402.353000", "174402.357000", "174402.360000", "174402.363000", "174402.367000", "174402.370000", "174402.374000", "174402.377000", "174402.381000", "174402.384000", "174402.388000", "174402.391000", "174402.395000", "174402.398000", "174402.401000", "174402.405000"],
