{
  "AcquisitionMatrixPE": 104,
  "AcquisitionNumber": 1,
  "AcquisitionTime": "17:45:12.285000",
  "BandwidthPerPixelPhaseEncode": 17.17,
  "BaseResolution": 104,
  "BodyPartExamined": "BRAIN",
  "CoilCombinationMethod": "Sum of Squares",
  "ConsistencyInfo": "N4_VE11C_LATEST_20160120",
  "ConversionSoftware": "dcm2niix",
  "ConversionSoftwareVersion": "v1.0.20220505",
  "DerivedVendorReportedEchoSpacing": 0.000560011,
  "DeviceSerialNumber": "167006",
  "DwellTime": 2.1e-06,
  "EchoTime": 0.037,
  "EchoTrainLength": 104,
  "EffectiveEchoSpacing": 0.000560011,
  "FlipAngle": 52,
  "HeudiconvVersion": "0.5.3.post811+g6206e14",
  "ImageComments": "Unaliased MB4/PE3/LB",
  "ImageOrientationPatientDICOM": [0.999785, -0.0206866, -0.00154093, 0.0184986, 0.92272, -0.385027],
  "ImageOrientationText": "Tra>Cor(-22.6)>Sag(-0.5)",
  "ImageType": [
    "ORIGINAL",
    "PRIMARY",
    "M",
    "MB",
    "ND",
    "MOSAIC"
],
  "ImagingFrequency": 123.26,
  "InPlanePhaseEncodingDirectionDICOM": "COL",
  "InstitutionAddress": "Chemin Queen-Mary 4565,Montreal,District,CA,H3W 1W5",
  "InstitutionName": "IUGM",
  "InstitutionalDepartmentName": "Department",
  "MRAcquisitionType": "2D",
  "MagneticFieldStrength": 3,
  "Manufacturer": "Siemens",
  "ManufacturersModelName": "Prisma_fit",
  "MatrixCoilMode": "SENSE",
  "Modality": "MR",
  "MultibandAccelerationFactor": 4,
  "PartialFourier": 1,
  "PatientPosition": "HFS",
  "PercentPhaseFOV": 100,
  "PercentSampling": 100,
  "PhaseEncodingDirection": "j",
  "PhaseEncodingSteps": 104,
  "PhaseResolution": 1,
  "PixelBandwidth": 2290,
  "ProcedureStepDescription": "games^mariostars",
  "ProtocolName": "func_task-mariostars_run-02",
  "PulseSequenceDetails": "%CustomerSeq%\\cmrr_mbep2d_bold",
  "ReceiveCoilActiveElements": "HC1-7;NC1,2",
  "ReceiveCoilName": "HeadNeck_64",
  "ReconMatrixPE": 104,
  "RepetitionTime": 1.49,
  "SAR": 0.0595901,
  "ScanOptions": "FS",
  "ScanningSequence": "EP",
  "SequenceName": "epfid2d1_104",
  "SequenceVariant": "SK\\SS",
  "SeriesDescription": "func_task-mariostars_run-02",
  "SeriesNumber": 14,
  "ShimSetting": [602, -7255, -8824, 440, 20, -324, -26, 30],
  "SliceThickness": 2,
  "SliceTiming": [0, 0.785, 0.0975, 0.8825, 0.1975, 0.98, 0.295, 1.0775, 0.3925, 1.175, 0.49, 1.275, 0.5875, 1.3725, 0.6875, 0, 0.785, 0.0975, 0.8825, 0.1975, 0.98, 0.295, 1.0775, 0.3925, 1.175, 0.49, 1.275, 0.5875, 1.3725, 0.6875, 0, 0.785, 0.0975, 0.8825, 0.1975, 0.98, 0.295, 1.0775, 0.3925, 1.175, 0.49, 1.275, 0.5875, 1.3725, 0.6875, 0, 0.785, 0.0975, 0.8825, 0.1975, 0.98, 0.295, 1.0775, 0.3925, 1.175, 0.49, 1.275, 0.5875, 1.3725, 0.6875],
  "SoftwareVersions": "syngo MR E11",
  "SpacingBetweenSlices": 2,
  "StationName": "MRC35049",
  "TaskName": "mariostars",
  "TotalReadoutTime": 0.0576811,
  "TxRefAmp": 267.892,
  "WipMemBlock": "213f0463-bc89-453b-82b8-3ef47f0e7b1f||Sequence: R017 ve11c/master r/75a17815+; Jun 28 2022 16:32:11 by eja",
  "dcmmeta_affine": [
    [-1.9995696544647217, 0.03699727728962898, -0.018773529678583145, 101.84754943847656],
    [0.041373252868652344, 1.8454394340515137, -0.7698321342468262, -66.55876922607422],
    [-0.0030818600207567215, 0.7700548768043518, 1.845807671546936, -62.56386947631836],
    [0.0, 0.0, 0.0, 1.0]
],
  "dcmmeta_reorient_transform": [
    [0.0, -1.0, 0.0, 103.0],
    [1.0, 0.0, 0.0, 0.0],
    [0.0, 0.0, 1.0, 0.0],
    [0.0, 0.0, 0.0, 1.0]
],
  "dcmmeta_shape": [104, 104, 60, 465],
  "dcmmeta_slice_dim": 2,
  "dcmmeta_version": 0.6,
  "global": {
    "const": {
      "AcquisitionMatrix": [104, 0, 0, 104],
      "AngioFlag": "N",
      "BitsAllocated": 16,
      "BitsStored": 16,
      "BodyPartExamined": "BRAIN",
      "Columns": 832,
      "EchoNumbers": 1,
      "EchoTime": 37.0,
      "EchoTrainLength": 104,
      "FlipAngle": 52.0,
      "HighBit": 15,
      "ImageOrientationPatient": [0.99978482134791, -0.0206866270116, -0.0015409299793, 0.01849863881403, 0.92271971677343, -0.3850274336195],
      "ImagePositionPatient": [-846.96862608034, -780.20157935735, 298.1735521439],
      "ImageType": [
        "ORIGINAL",
        "PRIMARY",
        "M",
        "MB",
        "ND",
        "MOSAIC"
],
      "ImagedNucleus": "1H",
      "ImagingFrequency": 123.260238,
      "InPlanePhaseEncodingDirection": "COL",
      "MRAcquisitionType": "2D",
      "MagneticFieldStrength": 3.0,
      "Manufacturer": "SIEMENS",
      "ManufacturerModelName": "Prisma_fit",
      "Modality": "MR",
      "NumberOfAverages": 1.0,
      "NumberOfPhaseEncodingSteps": 104,
      "PercentPhaseFieldOfView": 100.0,
      "PercentSampling": 100.0,
      "PerformedProcedureStepStartTime": "170720.661000",
      "PhotometricInterpretation": "MONOCHROME2",
      "PixelBandwidth": 2290.0,
      "PixelRepresentation": 0,
      "PixelSpacing": [2.0, 2.0],
      "ProtocolName": "func_task-mariostars_run-02",
      "RepetitionTime": 1490.0,
      "Rows": 832,
      "SAR": 0.05959008934377,
      "SamplesPerPixel": 1,
      "ScanOptions": "FS",
      "ScanningSequence": "EP",
      "SequenceName": "epfid2d1_104",
      "SequenceVariant": [
        "SK",
        "SS"
],
      "SeriesDescription": "func_task-mariostars_run-02",
      "SeriesNumber": 14,
      "SeriesTime": "174635.026000",
      "SliceLocation": -33.07691165514,
      "SliceThickness": 2.0,
      "SmallestImagePixelValue": 0,
      "SoftwareVersions": "syngo MR E11",
      "SpacingBetweenSlices": 1.9999999616502,
      "SpecificCharacterSet": "ISO_IR 100",
      "StudyID": "1",
      "StudyTime": "170720.587000",
      "TransmitCoilName": "Body",
      "VariableFlipAngleFlag": "N",
      "WindowCenterWidthExplanation": "Algo1",
      "dBdt": 0.0},
    "slices": {}
  },
  "time": {
    "samples": {
      "AcquisitionNumber": [1, 2, 3, 4, 5, 6, 7, 8, 9, 10, 11, 12, 13, 14, 15, 16, 17, 18, 19, 20, 21, 22, 23, 24, 25, 26, 27, 28, 29, 30, 31, 32, 33, 34, 35, 36, 37, 38, 39, 40, 41, 42, 43, 44, 45, 46, 47, 48, 49, 50, 51, 52, 53, 54, 55, 56, 57, 58, 59, 60, 61, 62, 63, 64, 65, 66, 67, 68, 69, 70, 71, 72, 73, 74, 75, 76, 77, 78, 79, 80, 81, 82, 83, 84, 85, 86, 87, 88, 89, 90, 91, 92, 93, 94, 95, 96, 97, 98, 99, 100, 101, 102, 103, 104, 105, 106, 107, 108, 109, 110, 111, 112, 113, 114, 115, 116, 117, 118, 119, 120, 121, 122, 123, 124, 125, 126, 127, 128, 129, 130, 131, 132, 133, 134, 135, 136, 137, 138, 139, 140, 141, 142, 143, 144, 145, 146, 147, 148, 149, 150, 151, 152, 153, 154, 155, 156, 157, 158, 159, 160, 161, 162, 163, 164, 165, 166, 167, 168, 169, 170, 171, 172, 173, 174, 175, 176, 177, 178, 179, 180, 181, 182, 183, 184, 185, 186, 187, 188, 189, 190, 191, 192, 193, 194, 195, 196, 197, 198, 199, 200, 201, 202, 203, 204, 205, 206, 207, 208, 209, 210, 211, 212, 213, 214, 215, 216, 217, 218, 219, 220, 221, 222, 223, 224, 225, 226, 227, 228, 229, 230, 231, 232, 233, 234, 235, 236, 237, 238, 239, 240, 241, 242, 243, 244, 245, 246, 247, 248, 249, 250, 251, 252, 253, 254, 255, 256, 257, 258, 259, 260, 261, 262, 263, 264, 265, 266, 267, 268, 269, 270, 271, 272, 273, 274, 275, 276, 277, 278, 279, 280, 281, 282, 283, 284, 285, 286, 287, 288, 289, 290, 291, 292, 293, 294, 295, 296, 297, 298, 299, 300, 301, 302, 303, 304, 305, 306, 307, 308, 309, 310, 311, 312, 313, 314, 315, 316, 317, 318, 319, 320, 321, 322, 323, 324, 325, 326, 327, 328, 329, 330, 331, 332, 333, 334, 335, 336, 337, 338, 339, 340, 341, 342, 343, 344, 345, 346, 347, 348, 349, 350, 351, 352, 353, 354, 355, 356, 357, 358, 359, 360, 361, 362, 363, 364, 365, 366, 367, 368, 369, 370, 371, 372, 373, 374, 375, 376, 377, 378, 379, 380, 381, 382, 383, 384, 385, 386, 387, 388, 389, 390, 391, 392, 393, 394, 395, 396, 397, 398, 399, 400, 401, 402, 403, 404, 405, 406, 407, 408, 409, 410, 411, 412, 413, 414, 415, 416, 417, 418, 419, 420, 421, 422, 423, 424, 425, 426, 427, 428, 429, 430, 431, 432, 433, 434, 435, 436, 437, 438, 439, 440, 441, 442, 443, 444, 445, 446, 447, 448, 449, 450, 451, 452, 453, 454, 455, 456, 457, 458, 459, 460, 461, 462, 463, 464, 465],
      "AcquisitionTime": ["174512.285000", "174513.775000", "174515.265000", "174516.755000", "174518.245000", "174519.735000", "174521.225000", "174522.715000", "174524.205000", "174525.695000", "174527.185000", "174528.675000", "174530.165000", "174531.655000", "174533.145000", "174534.635000", "174536.125000", "174537.615000", "174539.105000", "174540.595000", "174542.085000", "174543.575000", "174545.065000", "174546.555000", "174548.045000", "174549.535000", "174551.025000", "174552.515000", "174554.005000", "174555.495000", "174556.985000", "174558.475000", "174559.965000", "174601.455000", "174602.945000", "174604.435000", "174605.925000", "174607.415000", "174608.905000", "174610.395000", "174611.885000", "174613.375000", "174614.865000", "174616.355000", "174617.845000", "174619.335000", "174620.825000", "174622.315000", "174623.805000", "174625.295000", "174626.785000", "174628.275000", "174629.765000", "174631.255000", "174632.745000", "174634.235000", "174635.725000", "174637.215000", "174638.705000", "174640.195000", "174641.685000", "174643.175000", "174644.665000", "174646.155000", "174647.645000", "174649.135000", "174650.625000", "174652.115000", "174653.605000", "174655.095000", "174656.585000", "174658.075000", "174659.565000", "174701.055000", "174702.545000", "174704.035000", "174705.525000", "174707.015000", "174708.505000", "174709.995000", "174711.485000", "174712.975000", "174714.465000", "174715.955000", "174717.445000", "174718.935000", "174720.425000", "174721.915000", "174723.405000", "174724.895000", "174726.385000", "174727.875000", "174729.365000", "174730.855000", "174732.345000", "174733.835000", "174735.325000", "174736.815000", "174738.305000", "174739.795000", "174741.285000", "174742.775000", "174744.265000", "174745.755000", "174747.245000", "174748.735000", "174750.225000", "174751.715000", "174753.205000", "174754.695000", "174756.185000", "174757.675000", "174759.165000", "174800.655000", "174802.145000", "174803.635000", "174805.125000", "174806.615000", "174808.105000", "174809.595000", "174811.085000", "174812.575000", "174814.065000", "174815.555000", "174817.045000", "174818.535000", "174820.025000", "174821.515000", "174823.005000", "174824.495000", "174825.985000", "174827.475000", "174828.965000", "174830.455000", "174831.945000", "174833.435000", "174834.925000", "174836.415000", "174837.905000", "174839.395000", "174840.885000", "174842.375000", "174843.865000", "174845.355000", "174846.845000", "174848.335000", "174849.825000", "174851.315000", "174852.805000", "174854.295000", "174855.785000", "174857.275000", "174858.765000", "174900.255000", "174901.745000", "174903.235000", "174904.725000", "174906.215000", "174907.705000", "174909.195000", "174910.685000", "174912.175000", "174913.665000", "174915.155000", "174916.645000", "174918.135000", "174919.625000", "174921.115000", "174922.605000", "174924.095000", "174925.585000", "174927.075000", "174928.565000", "174930.055000", "174931.545000", "174933.035000", "174934.525000", "174936.015000", "174937.505000", "174938.995000", "174940.485000", "174941.975000", "174943.465000", "174944.955000", "174946.445000", "174947.935000", "174949.425000", "174950.915000", "174952.405000", "174953.895000", "174955.385000", "174956.875000", "174958.365000", "174959.855000", "175001.345000", "175002.835000", "175004.325000", "175005.815000", "175007.305000", "175008.795000", "175010.285000", "175011.775000", "175013.265000", "175014.755000", "175016.245000", "175017.735000", "175019.225000", "175020.715000", "175022.205000", "175023.695000", "175025.185000", "175026.675000", "175028.165000", "175029.655000", "175031.145000", "175032.635000", "175034.125000", "175035.615000", "175037.105000", "175038.595000", "175040.085000", "175041.575000", "175043.065000", "175044.555000", "175046.045000", "175047.535000", "175049.025000", "175050.515000", "175052.005000", "175053.495000", "175054.985000", "175056.475000", "175057.965000", "175059.455000", "175100.945000", "175102.435000", "175103.925000", "175105.415000", "175106.905000", "175108.395000", "175109.885000", "175111.375000", "175112.865000", "175114.355000", "175115.845000", "175117.335000", "175118.825000", "175120.315000", "175121.805000", "175123.295000", "175124.785000", "175126.275000", "175127.765000", "175129.255000", "175130.745000", "175132.235000", "175133.725000", "175135.215000", "175136.705000", "175138.195000", "175139.685000", "175141.175000", "175142.665000", "175144.155000", "175145.645000", "175147.135000", "175148.625000", "175150.115000", "175151.605000", "175153.095000", "175154.585000", "175156.075000", "175157.565000", "175159.055000", "175200.545000", "175202.035000", "175203.525000", "175205.015000", "175206.505000", "175207.995000", "175209.485000", "175210.975000", "175212.465000", "175213.955000", "175215.445000", "175216.935000", "175218.425000", "175219.915000", "175221.405000", "175222.895000", "175224.385000", "175225.875000", "175227.365000", "175228.855000", "175230.345000", "175231.835000", "175233.325000", "175234.815000", "175236.305000", "175237.795000", "175239.285000", "175240.775000", "175242.265000", "175243.755000", "175245.245000", "175246.735000", "175248.225000", "175249.715000", "175251.205000", "175252.695000", "175254.185000", "175255.675000", "175257.165000", "175258.655000", "175300.145000", "175301.635000", "175303.125000", "175304.615000", "175306.105000", "175307.595000", "175309.085000", "175310.575000", "175312.065000", "175313.555000", "175315.045000", "175316.535000", "175318.025000", "175319.515000", "175321.005000", "175322.495000", "175323.985000", "175325.475000", "175326.965000", "175328.455000", "175329.945000", "175331.435000", "175332.925000", "175334.415000", "175335.905000", "175337.395000", "175338.885000", "175340.375000", "175341.865000", "175343.355000", "175344.845000", "175346.335000", "175347.825000", "175349.315000", "175350.805000", "175352.295000", "175353.785000", "175355.275000", "175356.765000", "175358.255000", "175359.745000", "175401.235000", "175402.725000", "175404.215000", "175405.705000", "175407.195000", "175408.685000", "175410.175000", "175411.665000", "175413.155000", "175414.645000", "175416.135000", "175417.625000", "175419.115000", "175420.605000", "175422.095000", "175423.585000", "175425.075000", "175426.565000", "175428.055000", "175429.545000", "175431.035000", "175432.525000", "175434.015000", "175435.505000", "175436.995000", "175438.485000", "175439.975000", "175441.465000", "175442.955000", "175444.445000", "175445.935000", "175447.425000", "175448.915000", "175450.405000", "175451.895000", "175453.385000", "175454.875000", "175456.365000", "175457.855000", "175459.345000", "175500.835000", "175502.325000", "175503.815000", "175505.305000", "175506.795000", "175508.285000", "175509.775000", "175511.265000", "175512.755000", "175514.245000", "175515.735000", "175517.225000", "175518.715000", "175520.205000", "175521.695000", "175523.185000", "175524.675000", "175526.165000", "175527.655000", "175529.145000", "175530.635000", "175532.125000", "175533.615000", "175535.105000", "175536.595000", "175538.085000", "175539.575000", "175541.065000", "175542.555000", "175544.045000", "175545.535000", "175547.025000", "175548.515000", "175550.005000", "175551.495000", "175552.985000", "175554.475000", "175555.965000", "175557.455000", "175558.945000", "175600.435000", "175601.925000", "175603.415000", "175604.905000", "175606.395000", "175607.885000", "175609.375000", "175610.865000", "175612.355000", "175613.845000", "175615.335000", "175616.825000", "175618.315000", "175619.805000", "175621.295000", "175622.785000", "175624.275000", "175625.765000", "175627.255000", "175628.745000", "175630.235000", "175631.725000", "175633.215000", "175634.705000", "175636.195000", "175637.685000", "175639.175000", "175640.665000", "175642.155000", "175643.645000"],
      "ContentTime": ["174635.030000", "174635.039000", "174635.042000", "174635.045000", "174635.049000", "174635.052000", "174635.055000", "174635.059000", "174635.062000", "174635.065000", "174635.068000", "174635.072000", "174635.075000", "174635.078000", "174635.082000", "174635.085000", "174635.088000", "174635.091000", "174635.095000", "174635.104000", "174635.107000", "174635.111000", "174635.114000", "174635.117000", "174635.121000", "174635.124000", "174635.127000", "174635.131000", "174635.134000", "174635.137000", "174635.140000", "174635.144000", "174635.147000", "174635.150000", "174635.153000", "174635.156000", "174654.993000", "174654.997000", "174655.001000", "174655.004000", "174655.007000", "174655.011000", "174655.014000", "174655.017000", "174655.020000", "174655.024000", "174655.027000", "174655.030000", "174655.033000", "174655.037000", "174655.040000", "174655.043000", "174655.046000", "174655.049000", "174655.053000", "174655.061000", "174714.993000", "174714.997000", "174715.001000", "174715.004000", "174715.007000", "174715.011000", "174715.014000", "174715.017000", "174715.020000", "174715.024000", "174715.027000", "174715.044000", "174715.047000", "174715.050000", "174715.053000", "174715.057000", "174715.060000", "174715.063000", "174715.067000", "174715.070000", "174754.993000", "174754.997000", "174755.001000", "174755.004000", "174755.008000", "174755.011000", "174755.014000", "174755.017000", "174755.021000", "174755.024000", "174755.027000", "174755.030000", "174755.034000", "174755.037000", "174755.040000", "174755.044000", "174755.047000", "174755.050000", "174755.053000", "174755.056000", "174755.060000", "174755.063000", "174755.066000", "174755.069000", "174755.073000", "174755.076000", "174755.079000", "174755.082000", "174755.086000", "174755.089000", "174755.103000", "174755.106000", "174834.992000", "174834.996000", "174835.000000", "174835.009000", "174835.013000", "174835.016000", "174835.019000", "174835.023000", "174835.026000", "174835.029000", "174835.033000", "174835.036000", "174835.039000", "174835.042000", "174835.045000", "174835.049000", "174835.052000", "174835.055000", "174835.059000", "174835.062000", "174835.065000", "174835.068000", "174835.072000", "174835.075000", "174835.078000", "174835.081000", "174835.085000", "174914.993000", "174914.997000", "174915.001000", "174915.004000", "174915.008000", "174915.011000", "174915.014000", "174915.017000", "174915.021000", "174915.024000", "174915.027000", "174915.031000", "174915.034000", "174915.037000", "174915.040000", "174915.044000", "174915.047000", "174915.050000", "174915.053000", "174915.057000", "174915.060000", "174915.063000", "174915.066000", "174915.070000", "174915.073000", "174915.076000", "174915.079000", "174954.993000", "174954.997000", "174955.001000", "174955.004000", "174955.007000", "174955.011000", "174955.014000", "174955.017000", "174955.021000", "174955.024000", "174955.027000", "174955.030000", "174955.034000", "174955.037000", "174955.040000", "174955.044000", "174955.047000", "174955.050000", "174955.053000", "174955.057000", "174955.060000", "174955.063000", "174955.066000", "174955.070000", "174955.073000", "174955.076000", "174955.079000", "175034.992000", "175034.996000", "175035.000000", "175035.004000", "175035.007000", "175035.010000", "175035.013000", "175035.017000", "175035.020000", "175035.023000", "175035.027000", "175035.030000", "175035.033000", "175035.055000", "175035.058000", "175035.062000", "175035.065000", "175035.068000", "175035.071000", "175035.075000", "175035.081000", "175035.085000", "175035.088000", "175035.091000", "175035.095000", "175035.098000", "175035.101000", "175114.993000", "175115.015000", "175115.018000", "175115.021000", "175115.025000", "175115.028000", "175115.031000", "175115.034000", "175115.038000", "175115.041000", "175115.044000", "175115.047000", "175115.051000", "175115.054000", "175115.057000", "175115.061000", "175115.064000", "175115.067000", "175115.070000", "175115.074000", "175115.077000", "175115.080000", "175115.083000", "175115.087000", "175115.090000", "175115.093000", "175154.993000", "175154.997000", "175155.001000", "175155.005000", "175155.008000", "175155.011000", "175155.014000", "175155.018000", "175155.021000", "175155.024000", "175155.028000", "175155.031000", "175155.034000", "175155.038000", "175155.041000", "175155.045000", "175155.048000", "175155.052000", "175155.055000", "175155.058000", "175155.062000", "175155.065000", "175155.068000", "175155.071000", "175155.075000", "175155.078000", "175155.081000", "175234.993000", "175234.997000", "175235.001000", "175235.004000", "175235.008000", "175235.011000", "175235.014000", "175235.018000", "175235.021000", "175235.024000", "175235.027000", "175235.031000", "175235.034000", "175235.037000", "175235.041000", "175235.044000", "175235.047000", "175235.050000", "175235.054000", "175235.057000", "175235.060000", "175235.064000", "175235.067000", "175235.070000", "175235.073000", "175235.077000", "175235.080000", "175254.992000", "175254.996000", "175255.000000", "175255.004000", "175255.007000", "175255.010000", "175255.014000", "175255.017000", "175255.020000", "175255.023000", "175255.027000", "175255.030000", "175255.033000", "175255.037000", "175334.993000", "175334.997000", "175335.000000", "175335.004000", "175335.007000", "175335.010000", "175335.013000", "175335.017000", "175335.020000", "175335.024000", "175335.028000", "175335.031000", "175335.035000", "175335.039000", "175335.042000", "175335.046000", "175335.049000", "175335.052000", "175335.056000", "175335.059000", "175335.062000", "175335.065000", "175335.069000", "175335.072000", "175335.075000", "175335.079000", "175414.993000", "175414.997000", "175415.001000", "175415.005000", "175415.008000", "175415.011000", "175415.014000", "175415.018000", "175415.021000", "175415.024000", "175415.028000", "175415.031000", "175415.034000", "175415.037000", "175415.041000", "175415.044000", "175415.047000", "175415.051000", "175415.059000", "175415.062000", "175415.066000", "175415.069000", "175415.072000", "175415.075000", "175415.079000", "175415.082000", "175415.085000", "175454.993000", "175454.998000", "175455.003000", "175455.006000", "175455.009000", "175455.013000", "175455.016000", "175455.019000", "175455.023000", "175455.026000", "175455.029000", "175455.032000", "175455.036000", "175455.039000", "175455.042000", "175455.046000", "175455.049000", "175455.052000", "175455.056000", "175455.059000", "175455.062000", "175455.065000", "175455.080000", "175455.083000", "175455.086000", "175455.089000", "175455.093000", "175534.992000", "175534.996000", "175534.999000", "175535.002000", "175535.006000", "175535.009000", "175535.012000", "175535.016000", "175535.019000", "175535.022000", "175535.025000", "175535.029000", "175535.032000", "175535.035000", "175535.038000", "175535.042000", "175535.045000", "175535.048000", "175535.051000", "175535.055000", "175535.058000", "175535.061000", "175535.065000", "175535.068000", "175535.071000", "175535.074000", "175535.078000", "175614.993000", "175614.997000", "175615.001000", "175615.005000", "175615.008000", "175615.011000", "175615.015000", "175615.018000", "175615.021000", "175615.024000", "175615.028000", "175615.031000", "175615.034000", "175615.038000", "175615.041000", "175615.044000", "175615.047000", "175615.051000", "175615.054000", "175615.057000", "175615.061000", "175615.064000", "175615.067000", "175615.070000", "175615.073000", "175615.077000", "175615.080000", "175646.538000", "175646.541000", "175646.545000", "175646.548000", "175646.551000", "175646.555000", "175646.558000", "175646.561000", "175646.564000", "175646.568000", "175646.571000", "175646.574000", "175646.577000", "175646.581000", "175646.584000", "175646.587000", "175646.591000", "175646.594000", "175646.597000", "175646.600000", "175646.604000"],
